{
  "AcquisitionMatrixPE": 104,
  "AcquisitionNumber": 1,
  "AcquisitionTime": "19:37:3.195000",
  "BandwidthPerPixelPhaseEncode": 17.17,
  "BaseResolution": 104,
  "BodyPartExamined": "BRAIN",
  "CoilString": "HC1-7;NC1_2",
  "ConsistencyInfo": "N4_VE11C_LATEST_20160120",
  "ConversionSoftware": "dcm2niix",
  "ConversionSoftwareVersion": "v1.0.20190720  (JP2:OpenJPEG) GCC7.3.0",
  "DerivedVendorReportedEchoSpacing": 0.000560011,
  "DeviceSerialNumber": "167006",
  "DwellTime": 2.1e-06,
  "EchoTime": 0.037,
  "EchoTrainLength": 104,
  "EffectiveEchoSpacing": 0.000560011,
  "FlipAngle": 52,
  "ImageComments": "Unaliased_MB4_PE3_LB",
  "ImageOrientationPatientDICOM": [0.99942, -0.0251728, -0.0229465, 0.0148277, 0.928016, -0.372244],
  "ImageType": [
    "ORIGINAL",
    "PRIMARY",
    "M",
    "MB",
    "ND",
    "MOSAIC"
],
  "ImagingFrequency": 123.259,
  "InPlanePhaseEncodingDirectionDICOM": "COL",
  "InstitutionAddress": "Chemin_Queen-Mary_4565_Montreal_District_CA_H3W_1W5",
  "InstitutionName": "IUGM",
  "InstitutionalDepartmentName": "Department",
  "MRAcquisitionType": "2D",
  "MagneticFieldStrength": 3,
  "Manufacturer": "Siemens",
  "ManufacturersModelName": "Prisma_fit",
  "Modality": "MR",
  "MultibandAccelerationFactor": 4,
  "PartialFourier": 1,
  "PatientPosition": "HFS",
  "PercentPhaseFOV": 100,
  "PhaseEncodingDirection": "j",
  "PhaseEncodingSteps": 104,
  "PhaseResolution": 1,
  "PixelBandwidth": 2290,
  "ProcedureStepDescription": "video_friends",
  "ProtocolName": "func_task-friends-s01e24b",
  "PulseSequenceDetails": "%CustomerSeq%_cmrr_mbep2d_bold",
  "ReceiveCoilActiveElements": "HC1-7;NC1,2",
  "ReceiveCoilName": "HeadNeck_64",
  "ReconMatrixPE": 104,
  "RepetitionTime": 1.49,
  "SAR": 0.0335284,
  "ScanOptions": "FS",
  "ScanningSequence": "EP",
  "SequenceName": "epfid2d1_104",
  "SequenceVariant": "SK_SS",
  "SeriesDescription": "func_task-friends-s01e24b",
  "SeriesNumber": 19,
  "ShimSetting": [619, -7273, -8841, 436, 20, -456, 12, 47],
  "SliceThickness": 2,
  "SliceTiming": [0, 0.7825, 0.0975, 0.88, 0.195, 0.98, 0.2925, 1.0775, 0.3925, 1.175, 0.49, 1.2725, 0.5875, 1.37, 0.685, 0, 0.7825, 0.0975, 0.88, 0.195, 0.98, 0.2925, 1.0775, 0.3925, 1.175, 0.49, 1.2725, 0.5875, 1.37, 0.685, 0, 0.7825, 0.0975, 0.88, 0.195, 0.98, 0.2925, 1.0775, 0.3925, 1.175, 0.49, 1.2725, 0.5875, 1.37, 0.685, 0, 0.7825, 0.0975, 0.88, 0.195, 0.98, 0.2925, 1.0775, 0.3925, 1.175, 0.49, 1.2725, 0.5875, 1.37, 0.685],
  "SoftwareVersions": "syngo_MR_E11",
  "SpacingBetweenSlices": 2,
  "StationName": "MRC35049",
  "TaskName": "friends",
  "TotalReadoutTime": 0.0576811,
  "TxRefAmp": 232.158,
  "WipMemBlock": "cdb1600c-e945-4a6f-92a7-b7867be0e27d||Sequence: R016 ve11c/master r/e634e98; Dec 19 2017 11:00:25 by eja",
  "dcmmeta_affine": [
    [-1.9988394975662231, 0.02965542860329151, -0.061330344527959824, 99.73523712158203],
    [0.05034567788243294, 1.8560329675674438, -0.7433754801750183, -72.8251953125],
    [-0.04589300975203514, 0.7444879412651062, 1.8557024002075195, -68.38180541992188],
    [0.0, 0.0, 0.0, 1.0]
],
  "dcmmeta_reorient_transform": [
    [0.0, -1.0, 0.0, 103.0],
    [1.0, 0.0, 0.0, 0.0],
    [0.0, 0.0, 1.0, 0.0],
    [0.0, 0.0, 0.0, 1.0]
],
  "dcmmeta_shape": [104, 104, 60, 515],
  "dcmmeta_slice_dim": 2,
  "dcmmeta_version": 0.6,
  "global": {
    "const": {
      "AcquisitionMatrix": [104, 0, 0, 104],
      "AngioFlag": "N",
      "BitsAllocated": 16,
      "BitsStored": 16,
      "BodyPartExamined": "BRAIN",
      "Columns": 832,
      "EchoNumbers": 1,
      "EchoTime": 37.0,
      "EchoTrainLength": 104,
      "FlipAngle": 52.0,
      "HighBit": 15,
      "ImageOrientationPatient": [0.99941972467814, -0.0251728385403, -0.0229465057054, 0.01482771420554, 0.92801646488749, -0.3722439788488],
      "ImagePositionPatient": [-841.16187829886, -775.61635374013, 295.99912859584],
      "ImageType": [
        "ORIGINAL",
        "PRIMARY",
        "M",
        "MB",
        "ND",
        "MOSAIC"
],
      "ImagedNucleus": "1H",
      "ImagingFrequency": 123.259395,
      "InPlanePhaseEncodingDirection": "COL",
      "MRAcquisitionType": "2D",
      "MagneticFieldStrength": 3.0,
      "Manufacturer": "SIEMENS",
      "ManufacturerModelName": "Prisma_fit",
      "Modality": "MR",
      "NumberOfAverages": 1.0,
      "NumberOfPhaseEncodingSteps": 104,
      "PercentPhaseFieldOfView": 100.0,
      "PercentSampling": 100.0,
      "PerformedProcedureStepStartTime": "175528.350000",
      "PhotometricInterpretation": "MONOCHROME2",
      "PixelBandwidth": 2290.0,
      "PixelRepresentation": 0,
      "PixelSpacing": [2.0, 2.0],
      "ProtocolName": "func_task-friends-s01e24b",
      "RepetitionTime": 1490.0,
      "Rows": 832,
      "SAR": 0.03352838980457,
      "SamplesPerPixel": 1,
      "ScanOptions": "FS",
      "ScanningSequence": "EP",
      "SequenceName": "epfid2d1_104",
      "SequenceVariant": [
        "SK",
        "SS"
],
      "SeriesDescription": "func_task-friends-s01e24b",
      "SeriesNumber": 19,
      "SeriesTime": "193835.547000",
      "SliceLocation": -39.438305358726,
      "SliceThickness": 2.0,
      "SmallestImagePixelValue": 0,
      "SoftwareVersions": "syngo MR E11",
      "SpacingBetweenSlices": 1.9999999845052,
      "SpecificCharacterSet": "ISO_IR 100",
      "StudyID": "1",
      "StudyTime": "175528.284000",
      "TransmitCoilName": "Body",
      "VariableFlipAngleFlag": "N",
      "WindowCenterWidthExplanation": "Algo1",
      "dBdt": 0.0},
    "slices": {}
  },
  "time": {
    "samples": {
      "AcquisitionNumber": [1, 2, 3, 4, 5, 6, 7, 8, 9, 10, 11, 12, 13, 14, 15, 16, 17, 18, 19, 20, 21, 22, 23, 24, 25, 26, 27, 28, 29, 30, 31, 32, 33, 34, 35, 36, 37, 38, 39, 40, 41, 42, 43, 44, 45, 46, 47, 48, 49, 50, 51, 52, 53, 54, 55, 56, 57, 58, 59, 60, 61, 62, 63, 64, 65, 66, 67, 68, 69, 70, 71, 72, 73, 74, 75, 76, 77, 78, 79, 80, 81, 82, 83, 84, 85, 86, 87, 88, 89, 90, 91, 92, 93, 94, 95, 96, 97, 98, 99, 100, 101, 102, 103, 104, 105, 106, 107, 108, 109, 110, 111, 112, 113, 114, 115, 116, 117, 118, 119, 120, 121, 122, 123, 124, 125, 126, 127, 128, 129, 130, 131, 132, 133, 134, 135, 136, 137, 138, 139, 140, 141, 142, 143, 144, 145, 146, 147, 148, 149, 150, 151, 152, 153, 154, 155, 156, 157, 158, 159, 160, 161, 162, 163, 164, 165, 166, 167, 168, 169, 170, 171, 172, 173, 174, 175, 176, 177, 178, 179, 180, 181, 182, 183, 184, 185, 186, 187, 188, 189, 190, 191, 192, 193, 194, 195, 196, 197, 198, 199, 200, 201, 202, 203, 204, 205, 206, 207, 208, 209, 210, 211, 212, 213, 214, 215, 216, 217, 218, 219, 220, 221, 222, 223, 224, 225, 226, 227, 228, 229, 230, 231, 232, 233, 234, 235, 236, 237, 238, 239, 240, 241, 242, 243, 244, 245, 246, 247, 248, 249, 250, 251, 252, 253, 254, 255, 256, 257, 258, 259, 260, 261, 262, 263, 264, 265, 266, 267, 268, 269, 270, 271, 272, 273, 274, 275, 276, 277, 278, 279, 280, 281, 282, 283, 284, 285, 286, 287, 288, 289, 290, 291, 292, 293, 294, 295, 296, 297, 298, 299, 300, 301, 302, 303, 304, 305, 306, 307, 308, 309, 310, 311, 312, 313, 314, 315, 316, 317, 318, 319, 320, 321, 322, 323, 324, 325, 326, 327, 328, 329, 330, 331, 332, 333, 334, 335, 336, 337, 338, 339, 340, 341, 342, 343, 344, 345, 346, 347, 348, 349, 350, 351, 352, 353, 354, 355, 356, 357, 358, 359, 360, 361, 362, 363, 364, 365, 366, 367, 368, 369, 370, 371, 372, 373, 374, 375, 376, 377, 378, 379, 380, 381, 382, 383, 384, 385, 386, 387, 388, 389, 390, 391, 392, 393, 394, 395, 396, 397, 398, 399, 400, 401, 402, 403, 404, 405, 406, 407, 408, 409, 410, 411, 412, 413, 414, 415, 416, 417, 418, 419, 420, 421, 422, 423, 424, 425, 426, 427, 428, 429, 430, 431, 432, 433, 434, 435, 436, 437, 438, 439, 440, 441, 442, 443, 444, 445, 446, 447, 448, 449, 450, 451, 452, 453, 454, 455, 456, 457, 458, 459, 460, 461, 462, 463, 464, 465, 466, 467, 468, 469, 470, 471, 472, 473, 474, 475, 476, 477, 478, 479, 480, 481, 482, 483, 484, 485, 486, 487, 488, 489, 490, 491, 492, 493, 494, 495, 496, 497, 498, 499, 500, 501, 502, 503, 504, 505, 506, 507, 508, 509, 510, 511, 512, 513, 514, 515],
      "AcquisitionTime": ["193703.195000", "193704.685000", "193706.175000", "193707.665000", "193709.155000", "193710.645000", "193712.135000", "193713.625000", "193715.115000", "193716.605000", "193718.095000", "193719.585000", "193721.075000", "193722.565000", "193724.055000", "193725.545000", "193727.035000", "193728.525000", "193730.015000", "193731.505000", "193732.995000", "193734.485000", "193735.975000", "193737.465000", "193738.955000", "193740.445000", "193741.935000", "193743.425000", "193744.915000", "193746.405000", "193747.895000", "193749.385000", "193750.875000", "193752.365000", "193753.855000", "193755.345000", "193756.835000", "193758.325000", "193759.815000", "193801.305000", "193802.795000", "193804.285000", "193805.775000", "193807.265000", "193808.755000", "193810.245000", "193811.735000", "193813.225000", "193814.715000", "193816.205000", "193817.695000", "193819.185000", "193820.675000", "193822.165000", "193823.655000", "193825.145000", "193826.635000", "193828.125000", "193829.615000", "193831.105000", "193832.595000", "193834.085000", "193835.575000", "193837.065000", "193838.555000", "193840.045000", "193841.535000", "193843.025000", "193844.515000", "193846.005000", "193847.495000", "193848.985000", "193850.475000", "193851.965000", "193853.455000", "193854.945000", "193856.435000", "193857.925000", "193859.415000", "193900.905000", "193902.395000", "193903.885000", "193905.375000", "193906.865000", "193908.355000", "193909.845000", "193911.335000", "193912.825000", "193914.315000", "193915.805000", "193917.295000", "193918.785000", "193920.275000", "193921.765000", "193923.255000", "193924.745000", "193926.235000", "193927.725000", "193929.215000", "193930.705000", "193932.195000", "193933.685000", "193935.175000", "193936.665000", "193938.155000", "193939.645000", "193941.135000", "193942.625000", "193944.115000", "193945.605000", "193947.095000", "193948.585000", "193950.075000", "193951.565000", "193953.055000", "193954.545000", "193956.035000", "193957.525000", "193959.015000", "194000.505000", "194001.995000", "194003.485000", "194004.975000", "194006.465000", "194007.955000", "194009.445000", "194010.935000", "194012.425000", "194013.915000", "194015.405000", "194016.895000", "194018.385000", "194019.875000", "194021.365000", "194022.855000", "194024.345000", "194025.835000", "194027.325000", "194028.815000", "194030.305000", "194031.795000", "194033.285000", "194034.775000", "194036.265000", "194037.755000", "194039.245000", "194040.735000", "194042.225000", "194043.715000", "194045.205000", "194046.695000", "194048.185000", "194049.675000", "194051.165000", "194052.655000", "194054.145000", "194055.635000", "194057.125000", "194058.615000", "194100.105000", "194101.595000", "194103.085000", "194104.575000", "194106.065000", "194107.555000", "194109.045000", "194110.535000", "194112.025000", "194113.515000", "194115.005000", "194116.495000", "194117.985000", "194119.475000", "194120.965000", "194122.455000", "194123.945000", "194125.435000", "194126.925000", "194128.415000", "194129.905000", "194131.395000", "194132.885000", "194134.375000", "194135.865000", "194137.355000", "194138.845000", "194140.335000", "194141.825000", "194143.315000", "194144.805000", "194146.295000", "194147.785000", "194149.275000", "194150.765000", "194152.255000", "194153.745000", "194155.235000", "194156.725000", "194158.215000", "194159.705000", "194201.195000", "194202.685000", "194204.175000", "194205.665000", "194207.155000", "194208.645000", "194210.135000", "194211.625000", "194213.115000", "194214.605000", "194216.095000", "194217.585000", "194219.075000", "194220.565000", "194222.055000", "194223.545000", "194225.035000", "194226.525000", "194228.015000", "194229.505000", "194230.995000", "194232.485000", "194233.975000", "194235.465000", "194236.955000", "194238.445000", "194239.935000", "194241.425000", "194242.915000", "194244.405000", "194245.895000", "194247.385000", "194248.875000", "194250.365000", "194251.855000", "194253.345000", "194254.835000", "194256.325000", "194257.815000", "194259.305000", "194300.795000", "194302.285000", "194303.775000", "194305.265000", "194306.755000", "194308.245000", "194309.735000", "194311.225000", "194312.715000", "194314.205000", "194315.695000", "194317.185000", "194318.675000", "194320.165000", "194321.655000", "194323.145000", "194324.635000", "194326.125000", "194327.615000", "194329.105000", "194330.595000", "194332.085000", "194333.575000", "194335.065000", "194336.555000", "194338.045000", "194339.535000", "194341.025000", "194342.515000", "194344.005000", "194345.495000", "194346.985000", "194348.475000", "194349.965000", "194351.455000", "194352.945000", "194354.435000", "194355.925000", "194357.415000", "194358.905000", "194400.395000", "194401.885000", "194403.375000", "194404.865000", "194406.355000", "194407.845000", "194409.335000", "194410.825000", "194412.315000", "194413.805000", "194415.295000", "194416.785000", "194418.275000", "194419.765000", "194421.255000", "194422.745000", "194424.235000", "194425.725000", "194427.215000", "194428.705000", "194430.195000", "194431.685000", "194433.175000", "194434.665000", "194436.155000", "194437.645000", "194439.135000", "194440.625000", "194442.115000", "194443.605000", "194445.095000", "194446.585000", "194448.075000", "194449.565000", "194451.055000", "194452.545000", "194454.035000", "194455.525000", "194457.015000", "194458.505000", "194459.995000", "194501.485000", "194502.975000", "194504.465000", "194505.955000", "194507.445000", "194508.935000", "194510.425000", "194511.915000", "194513.405000", "194514.895000", "194516.385000", "194517.875000", "194519.365000", "194520.855000", "194522.345000", "194523.835000", "194525.325000", "194526.815000", "194528.305000", "194529.795000", "194531.285000", "194532.775000", "194534.265000", "194535.755000", "194537.245000", "194538.735000", "194540.225000", "194541.715000", "194543.205000", "194544.695000", "194546.185000", "194547.675000", "194549.165000", "194550.655000", "194552.145000", "194553.635000", "194555.125000", "194556.615000", "194558.105000", "194559.595000", "194601.085000", "194602.575000", "194604.065000", "194605.555000", "194607.045000", "194608.535000", "194610.025000", "194611.515000", "194613.005000", "194614.495000", "194615.985000", "194617.475000", "194618.965000", "194620.455000", "194621.945000", "194623.435000", "194624.925000", "194626.415000", "194627.905000", "194629.395000", "194630.885000", "194632.375000", "194633.865000", "194635.355000", "194636.845000", "194638.335000", "194639.825000", "194641.315000", "194642.805000", "194644.295000", "194645.785000", "194647.275000", "194648.765000", "194650.255000", "194651.745000", "194653.235000", "194654.725000", "194656.215000", "194657.705000", "194659.195000", "194700.685000", "194702.175000", "194703.665000", "194705.155000", "194706.645000", "194708.135000", "194709.625000", "194711.115000", "194712.605000", "194714.095000", "194715.585000", "194717.075000", "194718.565000", "194720.055000", "194721.545000", "194723.035000", "194724.525000", "194726.015000", "194727.505000", "194728.995000", "194730.485000", "194731.975000", "194733.465000", "194734.955000", "194736.445000", "194737.935000", "194739.425000", "194740.915000", "194742.405000", "194743.895000", "194745.385000", "194746.875000", "194748.365000", "194749.855000", "194751.345000", "194752.835000", "194754.325000", "194755.815000", "194757.305000", "194758.795000", "194800.285000", "194801.775000", "194803.265000", "194804.755000", "194806.245000", "194807.735000", "194809.225000", "194810.715000", "194812.205000", "194813.695000", "194815.185000", "194816.675000", "194818.165000", "194819.655000", "194821.145000", "194822.635000", "194824.125000", "194825.615000", "194827.105000", "194828.595000", "194830.085000", "194831.575000", "194833.065000", "194834.555000", "194836.045000", "194837.535000", "194839.025000", "194840.515000", "194842.005000", "194843.495000", "194844.985000", "194846.475000", "194847.965000", "194849.455000", "194850.945000", "194852.435000", "194853.925000", "194855.415000", "194856.905000", "194858.395000", "194859.885000", "194901.375000", "194902.865000", "194904.355000", "194905.845000", "194907.335000", "194908.825000", "194910.315000", "194911.805000", "194913.295000", "194914.785000", "194916.275000", "194917.765000", "194919.255000", "194920.745000", "194922.235000", "194923.725000", "194925.215000", "194926.705000", "194928.195000", "194929.685000", "194931.175000", "194932.665000", "194934.155000", "194935.645000", "194937.135000", "194938.625000", "194940.115000", "194941.605000", "194943.095000", "194944.585000", "194946.075000", "194947.565000", "194949.055000"],
      "ContentTime": ["193835.550000", "193835.553000", "193835.556000", "193835.559000", "193835.562000", "193835.565000", "193835.568000", "193835.571000", "193835.574000", "193835.577000", "193835.580000", "193835.583000", "193835.586000", "193835.589000", "193835.591000", "193835.594000", "193835.597000", "193835.600000", "193835.603000", "193835.606000", "193835.625000", "193835.628000", "193835.630000", "193835.633000", "193835.636000", "193835.639000", "193835.642000", "193835.649000", "193835.652000", "193835.655000", "193835.658000", "193835.661000", "193835.664000", "193835.667000", "193835.670000", "193855.514000", "193855.517000", "193855.520000", "193855.523000", "193855.526000", "193855.529000", "193855.532000", "193855.539000", "193855.542000", "193855.545000", "193855.548000", "193855.551000", "193855.553000", "193855.556000", "193855.559000", "193855.562000", "193855.565000", "193855.568000", "193855.571000", "193855.574000", "193915.514000", "193915.517000", "193915.520000", "193915.523000", "193915.530000", "193915.533000", "193915.536000", "193915.539000", "193915.542000", "193915.545000", "193915.548000", "193915.550000", "193915.554000", "193915.556000", "193915.559000", "193915.562000", "193915.565000", "193915.568000", "193915.571000", "193915.574000", "193935.514000", "193935.517000", "193935.520000", "193935.523000", "193935.526000", "193935.529000", "193935.531000", "193935.534000", "193935.537000", "193935.540000", "193935.543000", "193935.546000", "193935.549000", "193935.552000", "193935.555000", "193935.558000", "193935.561000", "193935.564000", "193935.567000", "193935.570000", "193955.514000", "193955.517000", "193955.520000", "193955.523000", "193955.529000", "193955.532000", "193955.535000", "193955.538000", "193955.540000", "193955.543000", "193955.546000", "193955.549000", "193955.552000", "193955.555000", "193955.558000", "193955.561000", "193955.563000", "193955.566000", "193955.569000", "193955.572000", "194035.514000", "194035.517000", "194035.520000", "194035.523000", "194035.526000", "194035.529000", "194035.532000", "194035.534000", "194035.537000", "194035.540000", "194035.543000", "194035.546000", "194035.549000", "194035.552000", "194035.555000", "194035.557000", "194035.560000", "194035.563000", "194035.566000", "194035.569000", "194035.572000", "194035.575000", "194035.578000", "194035.581000", "194035.584000", "194035.586000", "194035.589000", "194115.514000", "194115.517000", "194115.520000", "194115.523000", "194115.526000", "194115.529000", "194115.532000", "194115.535000", "194115.537000", "194115.540000", "194115.543000", "194115.546000", "194115.549000", "194115.552000", "194115.555000", "194115.558000", "194115.560000", "194115.563000", "194115.566000", "194115.578000", "194115.581000", "194115.584000", "194115.587000", "194115.590000", "194115.593000", "194115.596000", "194155.514000", "194155.517000", "194155.520000", "194155.523000", "194155.526000", "194155.540000", "194155.543000", "194155.546000", "194155.549000", "194155.552000", "194155.555000", "194155.558000", "194155.561000", "194155.564000", "194155.567000", "194155.570000", "194155.573000", "194155.575000", "194155.578000", "194155.581000", "194155.584000", "194155.587000", "194155.590000", "194155.593000", "194155.596000", "194155.599000", "194155.602000", "194235.514000", "194235.517000", "194235.520000", "194235.523000", "194235.526000", "194235.529000", "194235.532000", "194235.535000", "194235.538000", "194235.541000", "194235.543000", "194235.546000", "194235.549000", "194235.552000", "194235.555000", "194235.558000", "194235.561000", "194235.564000", "194235.567000", "194235.570000", "194235.573000", "194235.576000", "194235.578000", "194235.581000", "194235.584000", "194235.587000", "194235.590000", "194315.514000", "194315.517000", "194315.520000", "194315.523000", "194315.526000", "194315.529000", "194315.532000", "194315.535000", "194315.537000", "194315.540000", "194315.543000", "194315.546000", "194315.549000", "194315.561000", "194315.564000", "194315.567000", "194315.570000", "194315.573000", "194315.576000", "194315.579000", "194315.582000", "194315.585000", "194315.587000", "194315.590000", "194315.593000", "194315.596000", "194315.599000", "194355.514000", "194355.517000", "194355.520000", "194355.523000", "194355.526000", "194355.529000", "194355.532000", "194355.535000", "194355.537000", "194355.540000", "194355.543000", "194355.546000", "194355.549000", "194355.552000", "194355.555000", "194355.558000", "194355.561000", "194355.563000", "194355.566000", "194355.569000", "194355.572000", "194355.575000", "194355.578000", "194355.581000", "194355.584000", "194355.587000", "194355.590000", "194435.514000", "194435.517000", "194435.520000", "194435.523000", "194435.526000", "194435.529000", "194435.532000", "194435.535000", "194435.537000", "194435.540000", "194435.543000", "194435.546000", "194435.549000", "194435.552000", "194435.555000", "194435.558000", "194435.561000", "194435.564000", "194435.567000", "194435.569000", "194435.572000", "194435.575000", "194435.578000", "194435.581000", "194435.584000", "194435.587000", "194435.590000", "194515.514000", "194515.517000", "194515.521000", "194515.523000", "194515.526000", "194515.529000", "194515.533000", "194515.536000", "194515.539000", "194515.542000", "194515.545000", "194515.548000", "194515.551000", "194515.554000", "194515.557000", "194515.560000", "194515.562000", "194515.565000", "194515.568000", "194515.571000", "194515.574000", "194515.577000", "194515.580000", "194515.583000", "194515.586000", "194515.589000", "194555.514000", "194555.517000", "194555.520000", "194555.523000", "194555.526000", "194555.528000", "194555.532000", "194555.534000", "194555.537000", "194555.540000", "194555.543000", "194555.546000", "194555.549000", "194555.552000", "194555.555000", "194555.557000", "194555.560000", "194555.563000", "194555.566000", "194555.569000", "194555.572000", "194555.575000", "194555.578000", "194555.580000", "194555.583000", "194555.586000", "194555.589000", "194635.514000", "194635.517000", "194635.520000", "194635.523000", "194635.526000", "194635.544000", "194635.547000", "194635.550000", "194635.553000", "194635.556000", "194635.559000", "194635.562000", "194635.565000", "194635.568000", "194635.571000", "194635.573000", "194635.576000", "194635.579000", "194635.582000", "194635.585000", "194635.588000", "194635.591000", "194635.594000", "194635.597000", "194635.600000", "194635.603000", "194635.606000", "194715.514000", "194715.517000", "194715.520000", "194715.523000", "194715.526000", "194715.529000", "194715.532000", "194715.535000", "194715.537000", "194715.540000", "194715.553000", "194715.556000", "194715.559000", "194715.562000", "194715.565000", "194715.568000", "194715.571000", "194715.574000", "194715.577000", "194715.579000", "194715.582000", "194715.585000", "194715.588000", "194715.591000", "194715.594000", "194715.597000", "194715.600000", "194755.514000", "194755.517000", "194755.520000", "194755.523000", "194755.526000", "194755.529000", "194755.532000", "194755.535000", "194755.538000", "194755.541000", "194755.543000", "194755.546000", "194755.549000", "194755.552000", "194755.555000", "194755.558000", "194755.561000", "194755.564000", "194755.567000", "194755.570000", "194755.573000", "194755.576000", "194755.579000", "194755.582000", "194755.585000", "194755.588000", "194755.591000", "194835.514000", "194835.517000", "194835.520000", "194835.523000", "194835.526000", "194835.529000", "194835.532000", "194835.535000", "194835.538000", "194835.541000", "194835.544000", "194835.546000", "194835.549000", "194835.552000", "194835.555000", "194835.558000", "194835.561000", "194835.564000", "194835.567000", "194835.570000", "194835.573000", "194835.576000", "194835.579000", "194835.582000", "194835.585000", "194835.588000", "194835.591000", "194915.514000", "194915.517000", "194915.520000", "194915.523000", "194915.526000", "194915.529000", "194915.532000", "194915.535000", "194915.538000", "194915.541000", "194915.544000", "194915.546000", "194915.549000", "194915.552000", "194915.555000", "194915.558000", "194915.561000", "194915.564000", "194915.567000", "194915.570000", "194915.572000", "194915.575000", "194915.578000", "194915.581000", "194915.584000", "194915.587000", "194915.590000", "194951.220000", "194951.223000", "194951.226000", "194951.229000", "194951.232000", "194951.235000", "194951.238000", "194951.241000", "194951.244000", "194951.247000", "194951.250000", "194951.253000", "194951.255000", "194951.258000", "194951.261000", "194951.264000", "194951.267000", "194951.270000", "194951.273000", "194951.276000", "194951.279000", "194951.282000", "194951.285000", "194951.288000"],
