{
  "AcquisitionMatrixPE": 104,
  "AcquisitionNumber": 1,
  "AcquisitionTime": "16:24:48.720000",
  "BandwidthPerPixelPhaseEncode": 17.17,
  "BaseResolution": 104,
  "BodyPartExamined": "BRAIN",
  "CoilCombinationMethod": "Sum of Squares",
  "ConsistencyInfo": "N4_VE11C_LATEST_20160120",
  "ConversionSoftware": "dcm2niix",
  "ConversionSoftwareVersion": "v1.0.20230411",
  "DerivedVendorReportedEchoSpacing": 0.000560011,
  "DeviceSerialNumber": "167006",
  "DwellTime": 2.1e-06,
  "EchoTime": 0.037,
  "EchoTrainLength": 104,
  "EffectiveEchoSpacing": 0.000560011,
  "FlipAngle": 52,
  "HeudiconvVersion": "0.5.3.post861+ge7d3c7f",
  "ImageComments": "Unaliased MB4/PE3/LB",
  "ImageOrientationPatientDICOM": [0.999511, 0.0307893, -0.00540187, -0.0287919, 0.839463, -0.542654],
  "ImageOrientationText": "Tra>Cor(-32.9)>Sag(0.7)",
  "ImageType": [
    "ORIGINAL",
    "PRIMARY",
    "M",
    "MB",
    "ND",
    "MOSAIC"
],
  "ImagingFrequency": 123.249535,
  "InPlanePhaseEncodingDirectionDICOM": "COL",
  "InstitutionAddress": "Chemin Queen-Mary 4565,Montreal,District,CA,H3W 1W5",
  "InstitutionName": "IUGM",
  "InstitutionalDepartmentName": "Department",
  "MRAcquisitionType": "2D",
  "MagneticFieldStrength": 3,
  "Manufacturer": "Siemens",
  "ManufacturersModelName": "Prisma_fit",
  "MatrixCoilMode": "SENSE",
  "Modality": "MR",
  "MultibandAccelerationFactor": 4,
  "NonlinearGradientCorrection": false,
  "PartialFourier": 1,
  "PatientPosition": "HFS",
  "PercentPhaseFOV": 100,
  "PercentSampling": 100,
  "PhaseEncodingDirection": "j",
  "PhaseEncodingSteps": 104,
  "PhaseResolution": 1,
  "PixelBandwidth": 2290,
  "ProcedureStepDescription": "video^friends",
  "ProtocolName": "func_task-friends-s07e23a",
  "PulseSequenceDetails": "%CustomerSeq%\\cmrr_mbep2d_bold",
  "ReceiveCoilActiveElements": "HC1-7;NC1,2",
  "ReceiveCoilName": "HeadNeck_64",
  "ReconMatrixPE": 104,
  "RepetitionTime": 1.49,
  "SAR": 0.0597049,
  "ScanOptions": "FS",
  "ScanningSequence": "EP",
  "SequenceName": "epfid2d1_104",
  "SequenceVariant": "SK\\SS",
  "SeriesDescription": "func_task-friends-s07e23a",
  "SeriesNumber": 16,
  "ShimSetting": [595, -7234, -8837, 309, 5, -174, -107, 64],
  "SliceThickness": 2,
  "SliceTiming": [0, 0.785, 0.0975, 0.8825, 0.195, 0.98, 0.295, 1.0775, 0.3925, 1.175, 0.49, 1.275, 0.5875, 1.3725, 0.685, 0, 0.785, 0.0975, 0.8825, 0.195, 0.98, 0.295, 1.0775, 0.3925, 1.175, 0.49, 1.275, 0.5875, 1.3725, 0.685, 0, 0.785, 0.0975, 0.8825, 0.195, 0.98, 0.295, 1.0775, 0.3925, 1.175, 0.49, 1.275, 0.5875, 1.3725, 0.685, 0, 0.785, 0.0975, 0.8825, 0.195, 0.98, 0.295, 1.0775, 0.3925, 1.175, 0.49, 1.275, 0.5875, 1.3725, 0.685],
  "SoftwareVersions": "syngo MR E11",
  "SpacingBetweenSlices": 2,
  "StationName": "MRC35049",
  "TaskName": "s07e23a",
  "TotalReadoutTime": 0.0576811,
  "TxRefAmp": 285.16,
  "WipMemBlock": "fd1f4926-043b-4a02-87e5-9583bcea1c3d||Sequence: R017 ve11c/master r/75a17815+; Jun 28 2022 16:32:11 by eja",
  "dcmmeta_affine": [
    [-1.9990226030349731, -0.05758373811841011, 0.024346500635147095, 105.91053771972656],
    [-0.061578553169965744, 1.6789255142211914, -1.0850884914398193, -52.046409606933594],
    [-0.010803744196891785, 1.0853078365325928, 1.6798779964447021, -81.59675598144531],
    [0.0, 0.0, 0.0, 1.0]
],
  "dcmmeta_reorient_transform": [
    [0.0, -1.0, 0.0, 103.0],
    [1.0, 0.0, 0.0, 0.0],
    [0.0, 0.0, 1.0, 0.0],
    [0.0, 0.0, 0.0, 1.0]
],
  "dcmmeta_shape": [104, 104, 60, 480],
  "dcmmeta_slice_dim": 2,
  "dcmmeta_version": 0.6,
  "global": {
    "const": {
      "AcquisitionMatrix": [104, 0, 0, 104],
      "AngioFlag": "N",
      "BitsAllocated": 16,
      "BitsStored": 16,
      "BodyPartExamined": "BRAIN",
      "Columns": 832,
      "EchoNumbers": 1,
      "EchoTime": 37.0,
      "EchoTrainLength": 104,
      "FlipAngle": 52.0,
      "HighBit": 15,
      "ImageOrientationPatient": [0.99951130068556, 0.03078927699601, -0.0054018722603, -0.0287918697947, 0.83946278210483, -0.5426539096833],
      "ImagePositionPatient": [-806.66315741065, -754.42642406362, 429.17455497093],
      "ImageType": [
        "ORIGINAL",
        "PRIMARY",
        "M",
        "MB",
        "ND",
        "MOSAIC"
],
      "ImagedNucleus": "1H",
      "ImagingFrequency": 123.249535,
      "InPlanePhaseEncodingDirection": "COL",
      "MRAcquisitionType": "2D",
      "MagneticFieldStrength": 3.0,
      "Manufacturer": "SIEMENS",
      "ManufacturerModelName": "Prisma_fit",
      "Modality": "MR",
      "NumberOfAverages": 1.0,
      "NumberOfPhaseEncodingSteps": 104,
      "PercentPhaseFieldOfView": 100.0,
      "PercentSampling": 100.0,
      "PerformedProcedureStepStartTime": "154820.459000",
      "PhotometricInterpretation": "MONOCHROME2",
      "PixelBandwidth": 2290.0,
      "PixelRepresentation": 0,
      "PixelSpacing": [2.0, 2.0],
      "ProtocolName": "func_task-friends-s07e23a",
      "RepetitionTime": 1490.0,
      "Rows": 832,
      "SAR": 0.05970487095018,
      "SamplesPerPixel": 1,
      "ScanOptions": "FS",
      "ScanningSequence": "EP",
      "SequenceName": "epfid2d1_104",
      "SequenceVariant": [
        "SK",
        "SS"
],
      "SeriesDescription": "func_task-friends-s07e23a",
      "SeriesNumber": 16,
      "SeriesTime": "162543.238000",
      "SliceLocation": -39.009547493068,
      "SliceThickness": 2.0,
      "SmallestImagePixelValue": 0,
      "SoftwareVersions": "syngo MR E11",
      "SpacingBetweenSlices": 1.9999999661365,
      "SpecificCharacterSet": "ISO_IR 100",
      "StudyID": "1",
      "StudyTime": "154820.375000",
      "TransmitCoilName": "Body",
      "VariableFlipAngleFlag": "N",
      "WindowCenterWidthExplanation": "Algo1",
      "dBdt": 0.0},
    "slices": {}
  },
  "time": {
    "samples": {
      "AcquisitionNumber": [1, 2, 3, 4, 5, 6, 7, 8, 9, 10, 11, 12, 13, 14, 15, 16, 17, 18, 19, 20, 21, 22, 23, 24, 25, 26, 27, 28, 29, 30, 31, 32, 33, 34, 35, 36, 37, 38, 39, 40, 41, 42, 43, 44, 45, 46, 47, 48, 49, 50, 51, 52, 53, 54, 55, 56, 57, 58, 59, 60, 61, 62, 63, 64, 65, 66, 67, 68, 69, 70, 71, 72, 73, 74, 75, 76, 77, 78, 79, 80, 81, 82, 83, 84, 85, 86, 87, 88, 89, 90, 91, 92, 93, 94, 95, 96, 97, 98, 99, 100, 101, 102, 103, 104, 105, 106, 107, 108, 109, 110, 111, 112, 113, 114, 115, 116, 117, 118, 119, 120, 121, 122, 123, 124, 125, 126, 127, 128, 129, 130, 131, 132, 133, 134, 135, 136, 137, 138, 139, 140, 141, 142, 143, 144, 145, 146, 147, 148, 149, 150, 151, 152, 153, 154, 155, 156, 157, 158, 159, 160, 161, 162, 163, 164, 165, 166, 167, 168, 169, 170, 171, 172, 173, 174, 175, 176, 177, 178, 179, 180, 181, 182, 183, 184, 185, 186, 187, 188, 189, 190, 191, 192, 193, 194, 195, 196, 197, 198, 199, 200, 201, 202, 203, 204, 205, 206, 207, 208, 209, 210, 211, 212, 213, 214, 215, 216, 217, 218, 219, 220, 221, 222, 223, 224, 225, 226, 227, 228, 229, 230, 231, 232, 233, 234, 235, 236, 237, 238, 239, 240, 241, 242, 243, 244, 245, 246, 247, 248, 249, 250, 251, 252, 253, 254, 255, 256, 257, 258, 259, 260, 261, 262, 263, 264, 265, 266, 267, 268, 269, 270, 271, 272, 273, 274, 275, 276, 277, 278, 279, 280, 281, 282, 283, 284, 285, 286, 287, 288, 289, 290, 291, 292, 293, 294, 295, 296, 297, 298, 299, 300, 301, 302, 303, 304, 305, 306, 307, 308, 309, 310, 311, 312, 313, 314, 315, 316, 317, 318, 319, 320, 321, 322, 323, 324, 325, 326, 327, 328, 329, 330, 331, 332, 333, 334, 335, 336, 337, 338, 339, 340, 341, 342, 343, 344, 345, 346, 347, 348, 349, 350, 351, 352, 353, 354, 355, 356, 357, 358, 359, 360, 361, 362, 363, 364, 365, 366, 367, 368, 369, 370, 371, 372, 373, 374, 375, 376, 377, 378, 379, 380, 381, 382, 383, 384, 385, 386, 387, 388, 389, 390, 391, 392, 393, 394, 395, 396, 397, 398, 399, 400, 401, 402, 403, 404, 405, 406, 407, 408, 409, 410, 411, 412, 413, 414, 415, 416, 417, 418, 419, 420, 421, 422, 423, 424, 425, 426, 427, 428, 429, 430, 431, 432, 433, 434, 435, 436, 437, 438, 439, 440, 441, 442, 443, 444, 445, 446, 447, 448, 449, 450, 451, 452, 453, 454, 455, 456, 457, 458, 459, 460, 461, 462, 463, 464, 465, 466, 467, 468, 469, 470, 471, 472, 473, 474, 475, 476, 477, 478, 479, 480],
      "AcquisitionTime": ["162448.720000", "162450.210000", "162451.700000", "162453.190000", "162454.680000", "162456.170000", "162457.660000", "162459.150000", "162500.640000", "162502.130000", "162503.620000", "162505.110000", "162506.600000", "162508.090000", "162509.580000", "162511.070000", "162512.560000", "162514.050000", "162515.540000", "162517.030000", "162518.520000", "162520.010000", "162521.500000", "162522.990000", "162524.480000", "162525.970000", "162527.460000", "162528.950000", "162530.440000", "162531.930000", "162533.420000", "162534.910000", "162536.400000", "162537.890000", "162539.380000", "162540.870000", "162542.360000", "162543.850000", "162545.340000", "162546.830000", "162548.320000", "162549.810000", "162551.300000", "162552.790000", "162554.280000", "162555.770000", "162557.260000", "162558.750000", "162600.240000", "162601.730000", "162603.220000", "162604.710000", "162606.200000", "162607.690000", "162609.180000", "162610.670000", "162612.160000", "162613.650000", "162615.140000", "162616.630000", "162618.120000", "162619.610000", "162621.100000", "162622.590000", "162624.080000", "162625.570000", "162627.060000", "162628.550000", "162630.040000", "162631.530000", "162633.020000", "162634.510000", "162636.000000", "162637.490000", "162638.980000", "162640.470000", "162641.960000", "162643.450000", "162644.940000", "162646.430000", "162647.920000", "162649.410000", "162650.900000", "162652.390000", "162653.880000", "162655.370000", "162656.860000", "162658.350000", "162659.840000", "162701.330000", "162702.820000", "162704.310000", "162705.800000", "162707.290000", "162708.780000", "162710.270000", "162711.760000", "162713.250000", "162714.740000", "162716.230000", "162717.720000", "162719.210000", "162720.700000", "162722.190000", "162723.680000", "162725.170000", "162726.660000", "162728.150000", "162729.640000", "162731.130000", "162732.620000", "162734.110000", "162735.600000", "162737.090000", "162738.580000", "162740.070000", "162741.560000", "162743.050000", "162744.540000", "162746.030000", "162747.520000", "162749.010000", "162750.500000", "162751.990000", "162753.480000", "162754.970000", "162756.460000", "162757.950000", "162759.440000", "162800.930000", "162802.420000", "162803.910000", "162805.400000", "162806.890000", "162808.380000", "162809.870000", "162811.360000", "162812.850000", "162814.340000", "162815.830000", "162817.320000", "162818.810000", "162820.300000", "162821.790000", "162823.280000", "162824.770000", "162826.260000", "162827.750000", "162829.240000", "162830.730000", "162832.220000", "162833.710000", "162835.200000", "162836.690000", "162838.180000", "162839.670000", "162841.160000", "162842.650000", "162844.140000", "162845.630000", "162847.120000", "162848.610000", "162850.100000", "162851.590000", "162853.080000", "162854.570000", "162856.060000", "162857.550000", "162859.040000", "162900.530000", "162902.020000", "162903.510000", "162905.000000", "162906.490000", "162907.980000", "162909.470000", "162910.960000", "162912.450000", "162913.940000", "162915.430000", "162916.920000", "162918.410000", "162919.900000", "162921.390000", "162922.880000", "162924.370000", "162925.860000", "162927.350000", "162928.840000", "162930.330000", "162931.820000", "162933.310000", "162934.800000", "162936.290000", "162937.780000", "162939.270000", "162940.760000", "162942.250000", "162943.740000", "162945.230000", "162946.720000", "162948.210000", "162949.700000", "162951.190000", "162952.680000", "162954.170000", "162955.660000", "162957.150000", "162958.640000", "163000.130000", "163001.620000", "163003.110000", "163004.600000", "163006.090000", "163007.580000", "163009.070000", "163010.560000", "163012.050000", "163013.540000", "163015.030000", "163016.520000", "163018.010000", "163019.500000", "163020.990000", "163022.480000", "163023.970000", "163025.460000", "163026.950000", "163028.440000", "163029.930000", "163031.420000", "163032.910000", "163034.400000", "163035.890000", "163037.380000", "163038.870000", "163040.360000", "163041.850000", "163043.340000", "163044.830000", "163046.320000", "163047.810000", "163049.300000", "163050.790000", "163052.280000", "163053.770000", "163055.260000", "163056.750000", "163058.240000", "163059.730000", "163101.220000", "163102.710000", "163104.200000", "163105.690000", "163107.180000", "163108.670000", "163110.160000", "163111.650000", "163113.140000", "163114.630000", "163116.120000", "163117.610000", "163119.100000", "163120.590000", "163122.080000", "163123.570000", "163125.060000", "163126.550000", "163128.040000", "163129.530000", "163131.020000", "163132.510000", "163134.000000", "163135.490000", "163136.980000", "163138.470000", "163139.960000", "163141.450000", "163142.940000", "163144.430000", "163145.920000", "163147.410000", "163148.900000", "163150.390000", "163151.880000", "163153.370000", "163154.860000", "163156.350000", "163157.840000", "163159.330000", "163200.820000", "163202.310000", "163203.800000", "163205.290000", "163206.780000", "163208.270000", "163209.760000", "163211.250000", "163212.740000", "163214.230000", "163215.720000", "163217.210000", "163218.700000", "163220.190000", "163221.680000", "163223.170000", "163224.660000", "163226.150000", "163227.640000", "163229.130000", "163230.620000", "163232.110000", "163233.600000", "163235.090000", "163236.580000", "163238.070000", "163239.560000", "163241.050000", "163242.540000", "163244.030000", "163245.520000", "163247.010000", "163248.500000", "163249.990000", "163251.480000", "163252.970000", "163254.460000", "163255.950000", "163257.440000", "163258.930000", "163300.420000", "163301.910000", "163303.400000", "163304.890000", "163306.380000", "163307.870000", "163309.360000", "163310.850000", "163312.340000", "163313.830000", "163315.320000", "163316.810000", "163318.300000", "163319.790000", "163321.280000", "163322.770000", "163324.260000", "163325.750000", "163327.240000", "163328.730000", "163330.220000", "163331.710000", "163333.200000", "163334.690000", "163336.180000", "163337.670000", "163339.160000", "163340.650000", "163342.140000", "163343.630000", "163345.120000", "163346.610000", "163348.100000", "163349.590000", "163351.080000", "163352.570000", "163354.060000", "163355.550000", "163357.040000", "163358.530000", "163400.020000", "163401.510000", "163403.000000", "163404.490000", "163405.980000", "163407.470000", "163408.960000", "163410.450000", "163411.940000", "163413.430000", "163414.920000", "163416.410000", "163417.900000", "163419.390000", "163420.880000", "163422.370000", "163423.860000", "163425.350000", "163426.840000", "163428.330000", "163429.820000", "163431.310000", "163432.800000", "163434.290000", "163435.780000", "163437.270000", "163438.760000", "163440.250000", "163441.740000", "163443.230000", "163444.720000", "163446.210000", "163447.700000", "163449.190000", "163450.680000", "163452.170000", "163453.660000", "163455.150000", "163456.640000", "163458.130000", "163459.620000", "163501.110000", "163502.600000", "163504.090000", "163505.580000", "163507.070000", "163508.560000", "163510.050000", "163511.540000", "163513.030000", "163514.520000", "163516.010000", "163517.500000", "163518.990000", "163520.480000", "163521.970000", "163523.460000", "163524.950000", "163526.440000", "163527.930000", "163529.420000", "163530.910000", "163532.400000", "163533.890000", "163535.380000", "163536.870000", "163538.360000", "163539.850000", "163541.340000", "163542.830000", "163544.320000", "163545.810000", "163547.300000", "163548.790000", "163550.280000", "163551.770000", "163553.260000", "163554.750000", "163556.240000", "163557.730000", "163559.220000", "163600.710000", "163602.200000", "163603.690000", "163605.180000", "163606.670000", "163608.160000", "163609.650000", "163611.140000", "163612.630000", "163614.120000", "163615.610000", "163617.100000", "163618.590000", "163620.080000", "163621.570000", "163623.060000", "163624.550000", "163626.040000", "163627.530000", "163629.020000", "163630.510000", "163632.000000", "163633.490000", "163634.980000", "163636.470000", "163637.960000", "163639.450000", "163640.940000", "163642.430000"],
      "ContentTime": ["162543.241000", "162543.244000", "162543.247000", "162603.208000", "162603.211000", "162603.214000", "162603.217000", "162603.220000", "162603.223000", "162603.226000", "162603.229000", "162603.232000", "162603.235000", "162603.238000", "162603.241000", "162603.244000", "162603.247000", "162603.250000", "162603.253000", "162603.256000", "162603.258000", "162603.261000", "162603.264000", "162623.208000", "162623.211000", "162623.214000", "162623.217000", "162623.220000", "162623.223000", "162623.226000", "162623.229000", "162623.232000", "162623.235000", "162623.238000", "162623.241000", "162623.244000", "162623.247000", "162623.254000", "162623.257000", "162623.260000", "162623.263000", "162623.266000", "162623.269000", "162643.208000", "162643.211000", "162643.214000", "162643.217000", "162643.220000", "162643.223000", "162643.226000", "162643.229000", "162643.232000", "162643.235000", "162643.238000", "162643.241000", "162643.244000", "162643.247000", "162643.250000", "162643.253000", "162643.256000", "162643.259000", "162643.262000", "162643.265000", "162703.208000", "162703.211000", "162703.214000", "162703.217000", "162703.220000", "162703.223000", "162703.226000", "162703.229000", "162703.232000", "162703.235000", "162703.238000", "162703.241000", "162703.244000", "162703.247000", "162703.250000", "162703.253000", "162703.256000", "162703.259000", "162703.262000", "162703.265000", "162723.208000", "162723.211000", "162723.214000", "162723.217000", "162723.220000", "162723.223000", "162723.226000", "162723.229000", "162723.232000", "162723.235000", "162723.238000", "162723.241000", "162723.244000", "162723.247000", "162723.250000", "162723.253000", "162723.256000", "162723.259000", "162723.262000", "162723.265000", "162803.208000", "162803.211000", "162803.214000", "162803.217000", "162803.220000", "162803.223000", "162803.226000", "162803.229000", "162803.232000", "162803.235000", "162803.238000", "162803.241000", "162803.244000", "162803.247000", "162803.250000", "162803.253000", "162803.256000", "162803.259000", "162803.262000", "162803.265000", "162803.268000", "162803.271000", "162803.274000", "162803.277000", "162803.280000", "162803.283000", "162803.286000", "162843.208000", "162843.211000", "162843.214000", "162843.217000", "162843.220000", "162843.223000", "162843.226000", "162843.229000", "162843.232000", "162843.235000", "162843.238000", "162843.241000", "162843.244000", "162843.247000", "162843.250000", "162843.253000", "162843.256000", "162843.259000", "162843.262000", "162843.265000", "162843.268000", "162843.271000", "162843.274000", "162843.277000", "162843.280000", "162843.283000", "162843.286000", "162923.208000", "162923.211000", "162923.214000", "162923.217000", "162923.220000", "162923.223000", "162923.226000", "162923.229000", "162923.232000", "162923.235000", "162923.238000", "162923.241000", "162923.244000", "162923.247000", "162923.250000", "162923.253000", "162923.256000", "162923.259000", "162923.262000", "162923.265000", "162923.268000", "162923.271000", "162923.274000", "162923.277000", "162923.280000", "162923.283000", "162923.286000", "163003.208000", "163003.211000", "163003.214000", "163003.217000", "163003.220000", "163003.223000", "163003.226000", "163003.229000", "163003.232000", "163003.235000", "163003.238000", "163003.241000", "163003.244000", "163003.247000", "163003.250000", "163003.253000", "163003.256000", "163003.259000", "163003.262000", "163003.265000", "163003.268000", "163003.271000", "163003.274000", "163003.277000", "163003.280000", "163003.283000", "163003.286000", "163043.208000", "163043.211000", "163043.214000", "163043.217000", "163043.221000", "163043.224000", "163043.227000", "163043.230000", "163043.233000", "163043.236000", "163043.239000", "163043.242000", "163043.245000", "163043.248000", "163043.251000", "163043.254000", "163043.257000", "163043.260000", "163043.263000", "163043.266000", "163043.269000", "163043.271000", "163043.274000", "163043.277000", "163043.280000", "163043.284000", "163123.208000", "163123.211000", "163123.214000", "163123.217000", "163123.220000", "163123.223000", "163123.226000", "163123.229000", "163123.232000", "163123.235000", "163123.238000", "163123.241000", "163123.244000", "163123.247000", "163123.250000", "163123.253000", "163123.256000", "163123.259000", "163123.262000", "163123.265000", "163123.268000", "163123.271000", "163123.274000", "163123.277000", "163123.280000", "163123.283000", "163123.286000", "163203.208000", "163203.211000", "163203.214000", "163203.217000", "163203.220000", "163203.223000", "163203.226000", "163203.229000", "163203.232000", "163203.235000", "163203.238000", "163203.241000", "163203.244000", "163203.247000", "163203.250000", "163203.253000", "163203.256000", "163203.259000", "163203.262000", "163203.265000", "163203.268000", "163203.271000", "163203.274000", "163203.277000", "163203.280000", "163203.283000", "163203.286000", "163243.208000", "163243.211000", "163243.214000", "163243.217000", "163243.220000", "163243.223000", "163243.226000", "163243.229000", "163243.232000", "163243.235000", "163243.238000", "163243.241000", "163243.244000", "163243.247000", "163243.250000", "163243.253000", "163243.256000", "163243.259000", "163243.262000", "163243.265000", "163243.268000", "163243.271000", "163243.274000", "163243.277000", "163243.280000", "163243.283000", "163243.286000", "163323.208000", "163323.211000", "163323.214000", "163323.217000", "163323.220000", "163323.223000", "163323.226000", "163323.229000", "163323.246000", "163323.254000", "163323.257000", "163323.260000", "163323.263000", "163323.266000", "163323.269000", "163323.272000", "163323.275000", "163323.278000", "163323.281000", "163323.284000", "163323.288000", "163323.291000", "163323.294000", "163323.297000", "163323.300000", "163323.303000", "163323.306000", "163403.208000", "163403.211000", "163403.214000", "163403.217000", "163403.220000", "163403.223000", "163403.226000", "163403.229000", "163403.232000", "163403.235000", "163403.238000", "163403.241000", "163403.244000", "163403.247000", "163403.250000", "163403.253000", "163403.256000", "163403.259000", "163403.262000", "163403.265000", "163403.268000", "163403.271000", "163403.274000", "163403.277000", "163403.280000", "163403.283000", "163403.286000", "163443.208000", "163443.212000", "163443.216000", "163443.220000", "163443.223000", "163443.226000", "163443.229000", "163443.232000", "163443.235000", "163443.238000", "163443.241000", "163443.244000", "163443.247000", "163443.250000", "163443.253000", "163443.256000", "163443.259000", "163443.262000", "163443.264000", "163443.268000", "163443.271000", "163443.273000", "163443.276000", "163443.279000", "163443.282000", "163443.285000", "163523.208000", "163523.211000", "163523.214000", "163523.217000", "163523.220000", "163523.223000", "163523.226000", "163523.229000", "163523.232000", "163523.235000", "163523.238000", "163523.241000", "163523.244000", "163523.247000", "163523.250000", "163523.253000", "163523.256000", "163523.259000", "163523.263000", "163523.267000", "163523.270000", "163523.273000", "163523.276000", "163523.279000", "163523.282000", "163523.285000", "163523.288000", "163543.208000", "163543.211000", "163543.214000", "163543.217000", "163543.220000", "163543.223000", "163543.226000", "163543.229000", "163543.232000", "163543.235000", "163543.239000", "163543.241000", "163543.244000", "163543.247000", "163623.208000", "163623.211000", "163623.214000", "163623.217000", "163623.220000", "163623.223000", "163623.226000", "163623.229000", "163623.232000", "163623.235000", "163623.238000", "163623.241000", "163623.244000", "163623.247000", "163623.250000", "163623.253000", "163623.256000", "163623.259000", "163623.262000", "163623.265000", "163623.268000", "163623.271000", "163623.274000", "163623.277000", "163623.280000", "163623.283000", "163623.286000", "163643.897000", "163643.900000", "163643.903000", "163643.906000", "163643.909000", "163643.912000", "163643.915000", "163643.918000", "163643.921000", "163643.924000", "163643.927000", "163643.930000", "163643.933000", "163643.936000"],
