{
  "AcquisitionMatrixPE": 104,
  "AcquisitionNumber": 1,
  "AcquisitionTime": "11:19:4.420000",
  "BandwidthPerPixelPhaseEncode": 17.17,
  "BaseResolution": 104,
  "BodyPartExamined": "BRAIN",
  "CoilString": "HC1-7;NC1_2",
  "ConsistencyInfo": "N4_VE11C_LATEST_20160120",
  "ConversionSoftware": "dcm2niix",
  "ConversionSoftwareVersion": "v1.0.20190720  (JP2:OpenJPEG) GCC7.3.0",
  "DerivedVendorReportedEchoSpacing": 0.000560011,
  "DeviceSerialNumber": "167006",
  "DwellTime": 2.1e-06,
  "EchoTime": 0.037,
  "EchoTrainLength": 104,
  "EffectiveEchoSpacing": 0.000560011,
  "FlipAngle": 52,
  "ImageComments": "Unaliased_MB4_PE3_LB",
  "ImageOrientationPatientDICOM": [0.998138, 0.0537461, 0.0288354, -0.0416599, 0.946061, -0.321298],
  "ImageType": [
    "ORIGINAL",
    "PRIMARY",
    "M",
    "MB",
    "ND",
    "MOSAIC"
],
  "ImagingFrequency": 123.259,
  "InPlanePhaseEncodingDirectionDICOM": "COL",
  "InstitutionAddress": "Chemin_Queen-Mary_4565_Montreal_District_CA_H3W_1W5",
  "InstitutionName": "IUGM",
  "InstitutionalDepartmentName": "Department",
  "MRAcquisitionType": "2D",
  "MagneticFieldStrength": 3,
  "Manufacturer": "Siemens",
  "ManufacturersModelName": "Prisma_fit",
  "Modality": "MR",
  "MultibandAccelerationFactor": 4,
  "PartialFourier": 1,
  "PatientPosition": "HFS",
  "PercentPhaseFOV": 100,
  "PhaseEncodingDirection": "j",
  "PhaseEncodingSteps": 104,
  "PhaseResolution": 1,
  "PixelBandwidth": 2290,
  "ProcedureStepDescription": "video_friends",
  "ProtocolName": "func_task-s01e05b",
  "PulseSequenceDetails": "%CustomerSeq%_cmrr_mbep2d_bold",
  "ReceiveCoilActiveElements": "HC1-7;NC1,2",
  "ReceiveCoilName": "HeadNeck_64",
  "ReconMatrixPE": 104,
  "RepetitionTime": 1.49,
  "SAR": 0.0379515,
  "ScanOptions": "FS",
  "ScanningSequence": "EP",
  "SequenceName": "epfid2d1_104",
  "SequenceVariant": "SK_SS",
  "SeriesDescription": "func_task-s01e05b",
  "SeriesNumber": 11,
  "ShimSetting": [634, -7191, -8835, 741, 114, 43, 35, -11],
  "SliceThickness": 2,
  "SliceTiming": [0, 0.7825, 0.0975, 0.8825, 0.195, 0.98, 0.2925, 1.0775, 0.3925, 1.175, 0.49, 1.2725, 0.5875, 1.3725, 0.685, 0, 0.7825, 0.0975, 0.8825, 0.195, 0.98, 0.2925, 1.0775, 0.3925, 1.175, 0.49, 1.2725, 0.5875, 1.3725, 0.685, 0, 0.7825, 0.0975, 0.8825, 0.195, 0.98, 0.2925, 1.0775, 0.3925, 1.175, 0.49, 1.2725, 0.5875, 1.3725, 0.685, 0, 0.7825, 0.0975, 0.8825, 0.195, 0.98, 0.2925, 1.0775, 0.3925, 1.175, 0.49, 1.2725, 0.5875, 1.3725, 0.685],
  "SoftwareVersions": "syngo_MR_E11",
  "SpacingBetweenSlices": 2,
  "StationName": "MRC35049",
  "TaskName": "friends",
  "TotalReadoutTime": 0.0576811,
  "TxRefAmp": 246.642,
  "WipMemBlock": "2a608686-fb06-41a4-b6d6-72422dd09706||Sequence: R016 ve11c/master r/e634e98; Dec 19 2017 11:00:25 by eja",
  "dcmmeta_affine": [
    [-1.9962763786315918, -0.083319753408432, 0.08909720182418823, 105.36856842041016],
    [-0.10749214142560959, 1.892122745513916, -0.6389967799186707, -65.36427307128906],
    [0.05767089128494263, 0.6425957083702087, 1.893078088760376, -65.26132202148438],
    [0.0, 0.0, 0.0, 1.0]
],
  "dcmmeta_reorient_transform": [
    [0.0, -1.0, 0.0, 103.0],
    [1.0, 0.0, 0.0, 0.0],
    [0.0, 0.0, 1.0, 0.0],
    [0.0, 0.0, 0.0, 1.0]
],
  "dcmmeta_shape": [104, 104, 60, 488],
  "dcmmeta_slice_dim": 2,
  "dcmmeta_version": 0.6,
  "global": {
    "const": {
      "AcquisitionMatrix": [104, 0, 0, 104],
      "AngioFlag": "N",
      "BitsAllocated": 16,
      "BitsStored": 16,
      "BodyPartExamined": "BRAIN",
      "Columns": 832,
      "EchoNumbers": 1,
      "EchoTime": 37.0,
      "EchoTrainLength": 104,
      "FlipAngle": 52.0,
      "HighBit": 15,
      "ImageOrientationPatient": [0.99813820526705, 0.05374607226032, 0.02883544525163, -0.0416598783322, 0.94606137980162, -0.3212978683172],
      "ImagePositionPatient": [-793.10285901623, -857.38419556231, 213.83868090635],
      "ImageType": [
        "ORIGINAL",
        "PRIMARY",
        "M",
        "MB",
        "ND",
        "MOSAIC"
],
      "ImagedNucleus": "1H",
      "ImagingFrequency": 123.259443,
      "InPlanePhaseEncodingDirection": "COL",
      "MRAcquisitionType": "2D",
      "MagneticFieldStrength": 3.0,
      "Manufacturer": "SIEMENS",
      "ManufacturerModelName": "Prisma_fit",
      "Modality": "MR",
      "NumberOfAverages": 1.0,
      "NumberOfPhaseEncodingSteps": 104,
      "PercentPhaseFieldOfView": 100.0,
      "PercentSampling": 100.0,
      "PerformedProcedureStepStartTime": "105642.942000",
      "PhotometricInterpretation": "MONOCHROME2",
      "PixelBandwidth": 2290.0,
      "PixelRepresentation": 0,
      "PixelSpacing": [2.0, 2.0],
      "ProtocolName": "func_task-s01e05b",
      "RepetitionTime": 1490.0,
      "Rows": 832,
      "SAR": 0.03795151834143,
      "SamplesPerPixel": 1,
      "ScanOptions": "FS",
      "ScanningSequence": "EP",
      "SequenceName": "epfid2d1_104",
      "SequenceVariant": [
        "SK",
        "SS"
],
      "SeriesDescription": "func_task-s01e05b",
      "SeriesNumber": 11,
      "SeriesTime": "112027.911000",
      "SliceLocation": -36.19458942094,
      "SliceThickness": 2.0,
      "SmallestImagePixelValue": 0,
      "SoftwareVersions": "syngo MR E11",
      "SpacingBetweenSlices": 1.9999999781009,
      "SpecificCharacterSet": "ISO_IR 100",
      "StudyID": "1",
      "StudyTime": "105642.867000",
      "TransmitCoilName": "Body",
      "VariableFlipAngleFlag": "N",
      "WindowCenterWidthExplanation": "Algo1",
      "dBdt": 0.0},
    "slices": {}
  },
  "time": {
    "samples": {
      "AcquisitionNumber": [1, 2, 3, 4, 5, 6, 7, 8, 9, 10, 11, 12, 13, 14, 15, 16, 17, 18, 19, 20, 21, 22, 23, 24, 25, 26, 27, 28, 29, 30, 31, 32, 33, 34, 35, 36, 37, 38, 39, 40, 41, 42, 43, 44, 45, 46, 47, 48, 49, 50, 51, 52, 53, 54, 55, 56, 57, 58, 59, 60, 61, 62, 63, 64, 65, 66, 67, 68, 69, 70, 71, 72, 73, 74, 75, 76, 77, 78, 79, 80, 81, 82, 83, 84, 85, 86, 87, 88, 89, 90, 91, 92, 93, 94, 95, 96, 97, 98, 99, 100, 101, 102, 103, 104, 105, 106, 107, 108, 109, 110, 111, 112, 113, 114, 115, 116, 117, 118, 119, 120, 121, 122, 123, 124, 125, 126, 127, 128, 129, 130, 131, 132, 133, 134, 135, 136, 137, 138, 139, 140, 141, 142, 143, 144, 145, 146, 147, 148, 149, 150, 151, 152, 153, 154, 155, 156, 157, 158, 159, 160, 161, 162, 163, 164, 165, 166, 167, 168, 169, 170, 171, 172, 173, 174, 175, 176, 177, 178, 179, 180, 181, 182, 183, 184, 185, 186, 187, 188, 189, 190, 191, 192, 193, 194, 195, 196, 197, 198, 199, 200, 201, 202, 203, 204, 205, 206, 207, 208, 209, 210, 211, 212, 213, 214, 215, 216, 217, 218, 219, 220, 221, 222, 223, 224, 225, 226, 227, 228, 229, 230, 231, 232, 233, 234, 235, 236, 237, 238, 239, 240, 241, 242, 243, 244, 245, 246, 247, 248, 249, 250, 251, 252, 253, 254, 255, 256, 257, 258, 259, 260, 261, 262, 263, 264, 265, 266, 267, 268, 269, 270, 271, 272, 273, 274, 275, 276, 277, 278, 279, 280, 281, 282, 283, 284, 285, 286, 287, 288, 289, 290, 291, 292, 293, 294, 295, 296, 297, 298, 299, 300, 301, 302, 303, 304, 305, 306, 307, 308, 309, 310, 311, 312, 313, 314, 315, 316, 317, 318, 319, 320, 321, 322, 323, 324, 325, 326, 327, 328, 329, 330, 331, 332, 333, 334, 335, 336, 337, 338, 339, 340, 341, 342, 343, 344, 345, 346, 347, 348, 349, 350, 351, 352, 353, 354, 355, 356, 357, 358, 359, 360, 361, 362, 363, 364, 365, 366, 367, 368, 369, 370, 371, 372, 373, 374, 375, 376, 377, 378, 379, 380, 381, 382, 383, 384, 385, 386, 387, 388, 389, 390, 391, 392, 393, 394, 395, 396, 397, 398, 399, 400, 401, 402, 403, 404, 405, 406, 407, 408, 409, 410, 411, 412, 413, 414, 415, 416, 417, 418, 419, 420, 421, 422, 423, 424, 425, 426, 427, 428, 429, 430, 431, 432, 433, 434, 435, 436, 437, 438, 439, 440, 441, 442, 443, 444, 445, 446, 447, 448, 449, 450, 451, 452, 453, 454, 455, 456, 457, 458, 459, 460, 461, 462, 463, 464, 465, 466, 467, 468, 469, 470, 471, 472, 473, 474, 475, 476, 477, 478, 479, 480, 481, 482, 483, 484, 485, 486, 487, 488],
      "AcquisitionTime": ["111904.420000", "111905.910000", "111907.400000", "111908.890000", "111910.380000", "111911.870000", "111913.360000", "111914.850000", "111916.340000", "111917.830000", "111919.320000", "111920.810000", "111922.300000", "111923.790000", "111925.280000", "111926.770000", "111928.260000", "111929.750000", "111931.240000", "111932.730000", "111934.220000", "111935.710000", "111937.200000", "111938.690000", "111940.180000", "111941.670000", "111943.160000", "111944.650000", "111946.140000", "111947.630000", "111949.120000", "111950.610000", "111952.100000", "111953.590000", "111955.080000", "111956.570000", "111958.060000", "111959.550000", "112001.040000", "112002.530000", "112004.020000", "112005.510000", "112007.000000", "112008.490000", "112009.980000", "112011.470000", "112012.960000", "112014.450000", "112015.940000", "112017.430000", "112018.920000", "112020.410000", "112021.900000", "112023.390000", "112024.880000", "112026.370000", "112027.860000", "112029.350000", "112030.840000", "112032.330000", "112033.820000", "112035.310000", "112036.800000", "112038.290000", "112039.780000", "112041.270000", "112042.760000", "112044.250000", "112045.740000", "112047.230000", "112048.720000", "112050.210000", "112051.700000", "112053.190000", "112054.680000", "112056.170000", "112057.660000", "112059.150000", "112100.640000", "112102.130000", "112103.620000", "112105.110000", "112106.600000", "112108.090000", "112109.580000", "112111.070000", "112112.560000", "112114.050000", "112115.540000", "112117.030000", "112118.520000", "112120.010000", "112121.500000", "112122.990000", "112124.480000", "112125.970000", "112127.460000", "112128.950000", "112130.440000", "112131.930000", "112133.420000", "112134.910000", "112136.400000", "112137.890000", "112139.380000", "112140.870000", "112142.360000", "112143.850000", "112145.340000", "112146.830000", "112148.320000", "112149.810000", "112151.300000", "112152.790000", "112154.280000", "112155.770000", "112157.260000", "112158.750000", "112200.240000", "112201.730000", "112203.220000", "112204.710000", "112206.200000", "112207.690000", "112209.180000", "112210.670000", "112212.160000", "112213.650000", "112215.140000", "112216.630000", "112218.120000", "112219.610000", "112221.100000", "112222.590000", "112224.080000", "112225.570000", "112227.060000", "112228.550000", "112230.040000", "112231.530000", "112233.020000", "112234.510000", "112236.000000", "112237.490000", "112238.980000", "112240.470000", "112241.960000", "112243.450000", "112244.940000", "112246.430000", "112247.920000", "112249.410000", "112250.900000", "112252.390000", "112253.880000", "112255.370000", "112256.860000", "112258.350000", "112259.840000", "112301.330000", "112302.820000", "112304.310000", "112305.800000", "112307.290000", "112308.780000", "112310.270000", "112311.760000", "112313.250000", "112314.740000", "112316.230000", "112317.720000", "112319.210000", "112320.700000", "112322.190000", "112323.680000", "112325.170000", "112326.660000", "112328.150000", "112329.640000", "112331.130000", "112332.620000", "112334.110000", "112335.600000", "112337.090000", "112338.580000", "112340.070000", "112341.560000", "112343.050000", "112344.540000", "112346.030000", "112347.520000", "112349.010000", "112350.500000", "112351.990000", "112353.480000", "112354.970000", "112356.460000", "112357.950000", "112359.440000", "112400.930000", "112402.420000", "112403.910000", "112405.400000", "112406.890000", "112408.380000", "112409.870000", "112411.360000", "112412.850000", "112414.340000", "112415.830000", "112417.320000", "112418.810000", "112420.300000", "112421.790000", "112423.280000", "112424.770000", "112426.260000", "112427.750000", "112429.240000", "112430.730000", "112432.220000", "112433.710000", "112435.200000", "112436.690000", "112438.180000", "112439.670000", "112441.160000", "112442.650000", "112444.140000", "112445.630000", "112447.120000", "112448.610000", "112450.100000", "112451.590000", "112453.080000", "112454.570000", "112456.060000", "112457.550000", "112459.040000", "112500.530000", "112502.020000", "112503.510000", "112505.000000", "112506.490000", "112507.980000", "112509.470000", "112510.960000", "112512.450000", "112513.940000", "112515.430000", "112516.920000", "112518.410000", "112519.900000", "112521.390000", "112522.880000", "112524.370000", "112525.860000", "112527.350000", "112528.840000", "112530.330000", "112531.820000", "112533.310000", "112534.800000", "112536.290000", "112537.780000", "112539.270000", "112540.760000", "112542.250000", "112543.740000", "112545.230000", "112546.720000", "112548.210000", "112549.700000", "112551.190000", "112552.680000", "112554.170000", "112555.660000", "112557.150000", "112558.640000", "112600.130000", "112601.620000", "112603.110000", "112604.600000", "112606.090000", "112607.580000", "112609.070000", "112610.560000", "112612.050000", "112613.540000", "112615.030000", "112616.520000", "112618.010000", "112619.500000", "112620.990000", "112622.480000", "112623.970000", "112625.460000", "112626.950000", "112628.440000", "112629.930000", "112631.420000", "112632.910000", "112634.400000", "112635.890000", "112637.380000", "112638.870000", "112640.360000", "112641.850000", "112643.340000", "112644.830000", "112646.320000", "112647.810000", "112649.300000", "112650.790000", "112652.280000", "112653.770000", "112655.260000", "112656.750000", "112658.240000", "112659.730000", "112701.220000", "112702.710000", "112704.200000", "112705.690000", "112707.180000", "112708.670000", "112710.160000", "112711.650000", "112713.140000", "112714.630000", "112716.120000", "112717.610000", "112719.100000", "112720.590000", "112722.080000", "112723.570000", "112725.060000", "112726.550000", "112728.040000", "112729.530000", "112731.020000", "112732.510000", "112734.000000", "112735.490000", "112736.980000", "112738.470000", "112739.960000", "112741.450000", "112742.940000", "112744.430000", "112745.920000", "112747.410000", "112748.900000", "112750.390000", "112751.880000", "112753.370000", "112754.860000", "112756.350000", "112757.840000", "112759.330000", "112800.820000", "112802.310000", "112803.800000", "112805.290000", "112806.780000", "112808.270000", "112809.760000", "112811.250000", "112812.740000", "112814.230000", "112815.720000", "112817.210000", "112818.700000", "112820.190000", "112821.680000", "112823.170000", "112824.660000", "112826.150000", "112827.640000", "112829.130000", "112830.620000", "112832.110000", "112833.600000", "112835.090000", "112836.580000", "112838.070000", "112839.560000", "112841.050000", "112842.540000", "112844.030000", "112845.520000", "112847.010000", "112848.500000", "112849.990000", "112851.480000", "112852.970000", "112854.460000", "112855.950000", "112857.440000", "112858.930000", "112900.420000", "112901.910000", "112903.400000", "112904.890000", "112906.380000", "112907.870000", "112909.360000", "112910.850000", "112912.340000", "112913.830000", "112915.320000", "112916.810000", "112918.300000", "112919.790000", "112921.280000", "112922.770000", "112924.260000", "112925.750000", "112927.240000", "112928.730000", "112930.220000", "112931.710000", "112933.200000", "112934.690000", "112936.180000", "112937.670000", "112939.160000", "112940.650000", "112942.140000", "112943.630000", "112945.120000", "112946.610000", "112948.100000", "112949.590000", "112951.080000", "112952.570000", "112954.060000", "112955.550000", "112957.040000", "112958.530000", "113000.020000", "113001.510000", "113003.000000", "113004.490000", "113005.980000", "113007.470000", "113008.960000", "113010.450000", "113011.940000", "113013.430000", "113014.920000", "113016.410000", "113017.900000", "113019.390000", "113020.880000", "113022.370000", "113023.860000", "113025.350000", "113026.840000", "113028.330000", "113029.820000", "113031.310000", "113032.800000", "113034.290000", "113035.780000", "113037.270000", "113038.760000", "113040.250000", "113041.740000", "113043.230000", "113044.720000", "113046.210000", "113047.700000", "113049.190000", "113050.680000", "113052.170000", "113053.660000", "113055.150000", "113056.640000", "113058.130000", "113059.620000", "113101.110000", "113102.600000", "113104.090000", "113105.580000", "113107.070000", "113108.560000", "113110.050000"],
      "ContentTime": ["112027.913000", "112027.917000", "112027.919000", "112027.922000", "112027.925000", "112027.928000", "112027.931000", "112027.933000", "112027.936000", "112027.939000", "112027.942000", "112027.945000", "112027.948000", "112027.950000", "112027.953000", "112027.956000", "112027.959000", "112027.961000", "112027.964000", "112027.967000", "112027.970000", "112027.973000", "112027.975000", "112027.978000", "112027.981000", "112027.984000", "112027.987000", "112027.990000", "112027.993000", "112027.995000", "112047.876000", "112047.885000", "112047.887000", "112047.890000", "112047.893000", "112047.896000", "112047.899000", "112047.901000", "112047.905000", "112047.908000", "112047.911000", "112047.914000", "112047.917000", "112047.919000", "112047.922000", "112047.925000", "112047.928000", "112047.930000", "112047.933000", "112047.936000", "112107.876000", "112107.879000", "112107.882000", "112107.884000", "112107.887000", "112107.890000", "112107.893000", "112107.896000", "112107.899000", "112107.902000", "112107.913000", "112107.916000", "112107.919000", "112107.922000", "112107.925000", "112107.927000", "112107.930000", "112107.933000", "112107.936000", "112107.939000", "112127.877000", "112127.880000", "112127.883000", "112127.887000", "112127.890000", "112127.893000", "112127.896000", "112127.900000", "112127.903000", "112127.920000", "112127.923000", "112127.925000", "112127.928000", "112127.931000", "112127.934000", "112127.937000", "112127.940000", "112127.943000", "112127.946000", "112127.949000", "112127.952000", "112207.877000", "112207.891000", "112207.894000", "112207.897000", "112207.900000", "112207.903000", "112207.905000", "112207.908000", "112207.911000", "112207.914000", "112207.917000", "112207.920000", "112207.923000", "112207.925000", "112207.929000", "112207.932000", "112207.934000", "112207.937000", "112207.940000", "112207.943000", "112207.946000", "112207.948000", "112207.951000", "112207.954000", "112207.957000", "112207.959000", "112207.962000", "112207.965000", "112207.968000", "112207.971000", "112207.974000", "112247.876000", "112247.879000", "112247.882000", "112247.884000", "112247.887000", "112247.890000", "112247.893000", "112247.896000", "112247.898000", "112247.901000", "112247.904000", "112247.907000", "112247.910000", "112247.912000", "112247.915000", "112247.918000", "112247.921000", "112247.924000", "112247.926000", "112247.929000", "112247.932000", "112247.935000", "112247.944000", "112247.947000", "112247.950000", "112247.953000", "112247.956000", "112327.876000", "112327.879000", "112327.882000", "112327.884000", "112327.887000", "112327.890000", "112327.893000", "112327.896000", "112327.898000", "112327.901000", "112327.904000", "112327.907000", "112327.910000", "112327.912000", "112327.915000", "112327.918000", "112327.921000", "112327.924000", "112327.926000", "112327.929000", "112327.932000", "112327.935000", "112327.938000", "112327.940000", "112327.943000", "112327.946000", "112327.949000", "112407.877000", "112407.880000", "112407.883000", "112407.885000", "112407.888000", "112407.891000", "112407.894000", "112407.897000", "112407.899000", "112407.902000", "112407.905000", "112407.908000", "112407.911000", "112407.913000", "112407.916000", "112407.919000", "112407.922000", "112407.924000", "112407.928000", "112407.930000", "112407.933000", "112407.936000", "112407.939000", "112407.942000", "112407.945000", "112407.948000", "112407.951000", "112447.876000", "112447.879000", "112447.882000", "112447.884000", "112447.887000", "112447.890000", "112447.893000", "112447.896000", "112447.898000", "112447.901000", "112447.904000", "112447.907000", "112447.910000", "112447.913000", "112447.916000", "112447.924000", "112447.927000", "112447.930000", "112447.933000", "112447.936000", "112447.938000", "112447.941000", "112447.944000", "112447.947000", "112447.950000", "112447.953000", "112527.876000", "112527.879000", "112527.882000", "112527.884000", "112527.887000", "112527.890000", "112527.893000", "112527.896000", "112527.898000", "112527.901000", "112527.904000", "112527.907000", "112527.910000", "112527.913000", "112527.915000", "112527.918000", "112527.921000", "112527.924000", "112527.926000", "112527.929000", "112527.932000", "112527.935000", "112527.938000", "112527.941000", "112527.943000", "112527.946000", "112527.949000", "112607.877000", "112607.880000", "112607.883000", "112607.885000", "112607.888000", "112607.891000", "112607.894000", "112607.897000", "112607.899000", "112607.902000", "112607.905000", "112607.908000", "112607.911000", "112607.914000", "112607.916000", "112607.919000", "112607.922000", "112607.925000", "112607.928000", "112607.931000", "112607.933000", "112607.936000", "112607.939000", "112607.942000", "112607.945000", "112607.961000", "112607.963000", "112647.877000", "112647.880000", "112647.883000", "112647.885000", "112647.888000", "112647.891000", "112647.894000", "112647.897000", "112647.899000", "112647.902000", "112647.905000", "112647.908000", "112647.911000", "112647.914000", "112647.916000", "112647.919000", "112647.922000", "112647.925000", "112647.928000", "112647.930000", "112647.933000", "112647.936000", "112647.939000", "112647.941000", "112647.944000", "112647.947000", "112647.950000", "112727.876000", "112727.879000", "112727.882000", "112727.885000", "112727.887000", "112727.890000", "112727.893000", "112727.906000", "112727.908000", "112727.911000", "112727.914000", "112727.917000", "112727.921000", "112727.924000", "112727.927000", "112727.929000", "112727.932000", "112727.935000", "112727.938000", "112727.941000", "112727.944000", "112727.946000", "112727.952000", "112727.955000", "112727.958000", "112727.961000", "112727.964000", "112807.876000", "112807.879000", "112807.882000", "112807.884000", "112807.887000", "112807.890000", "112807.900000", "112807.902000", "112807.905000", "112807.908000", "112807.911000", "112807.914000", "112807.917000", "112807.919000", "112807.922000", "112807.925000", "112807.928000", "112807.931000", "112807.934000", "112807.936000", "112807.939000", "112807.942000", "112807.945000", "112807.948000", "112807.950000", "112807.953000", "112807.956000", "112847.877000", "112847.880000", "112847.883000", "112847.885000", "112847.888000", "112847.891000", "112847.894000", "112847.897000", "112847.899000", "112847.902000", "112847.905000", "112847.908000", "112847.921000", "112847.924000", "112847.927000", "112847.930000", "112847.933000", "112847.935000", "112847.938000", "112847.941000", "112847.944000", "112847.947000", "112847.949000", "112847.952000", "112847.955000", "112847.958000", "112847.961000", "112927.876000", "112927.879000", "112927.882000", "112927.885000", "112927.887000", "112927.890000", "112927.893000", "112927.896000", "112927.899000", "112927.901000", "112927.905000", "112927.908000", "112927.911000", "112927.914000", "112927.917000", "112927.919000", "112927.922000", "112927.925000", "112927.928000", "112927.931000", "112927.933000", "112927.936000", "112927.939000", "112927.942000", "112927.945000", "112927.948000", "113007.876000", "113007.879000", "113007.882000", "113007.884000", "113007.887000", "113007.890000", "113007.893000", "113007.896000", "113007.898000", "113007.901000", "113007.904000", "113007.907000", "113007.910000", "113007.913000", "113007.916000", "113007.918000", "113007.921000", "113007.924000", "113007.927000", "113007.935000", "113007.938000", "113007.941000", "113007.944000", "113007.946000", "113007.949000", "113007.952000", "113007.955000", "113047.877000", "113047.880000", "113047.883000", "113047.885000", "113047.888000", "113047.891000", "113047.894000", "113047.897000", "113047.900000", "113047.902000", "113047.905000", "113047.908000", "113047.911000", "113047.914000", "113047.917000", "113047.920000", "113047.923000", "113047.925000", "113047.928000", "113047.931000", "113047.934000", "113047.937000", "113047.951000", "113047.954000", "113047.956000", "113047.971000", "113047.974000", "113112.370000", "113112.373000", "113112.376000", "113112.379000", "113112.382000", "113112.384000", "113112.387000", "113112.390000", "113112.393000", "113112.396000", "113112.399000", "113112.401000", "113112.404000", "113112.407000", "113112.419000", "113112.423000", "113112.426000"],
