{
  "AcquisitionMatrixPE": 104,
  "AcquisitionNumber": 1,
  "AcquisitionTime": "18:38:15.735000",
  "BandwidthPerPixelPhaseEncode": 17.17,
  "BaseResolution": 104,
  "BodyPartExamined": "BRAIN",
  "CoilString": "HC1-7;NC1_2",
  "ConsistencyInfo": "N4_VE11C_LATEST_20160120",
  "ConversionSoftware": "dcm2niix",
  "ConversionSoftwareVersion": "v1.0.20190902",
  "DerivedVendorReportedEchoSpacing": 0.000560011,
  "DeviceSerialNumber": "167006",
  "DwellTime": 2.1e-06,
  "EchoTime": 0.037,
  "EchoTrainLength": 104,
  "EffectiveEchoSpacing": 0.000560011,
  "FlipAngle": 52,
  "HeudiconvVersion": "0.10.0",
  "ImageComments": "Unaliased_MB4_PE3_LB",
  "ImageOrientationPatientDICOM": [0.998802, -0.0485271, -0.0063397, 0.0429101, 0.930659, -0.363362],
  "ImageType": [
    "ORIGINAL",
    "PRIMARY",
    "M",
    "MB",
    "ND",
    "MOSAIC"
],
  "ImagingFrequency": 123.259,
  "InPlanePhaseEncodingDirectionDICOM": "COL",
  "InstitutionAddress": "Chemin_Queen-Mary_4565_Montreal_District_CA_H3W_1W5",
  "InstitutionName": "IUGM",
  "InstitutionalDepartmentName": "Department",
  "MRAcquisitionType": "2D",
  "MagneticFieldStrength": 3,
  "Manufacturer": "Siemens",
  "ManufacturersModelName": "Prisma_fit",
  "Modality": "MR",
  "MultibandAccelerationFactor": 4,
  "PartialFourier": 1,
  "PatientPosition": "HFS",
  "PercentPhaseFOV": 100,
  "PhaseEncodingDirection": "j",
  "PhaseEncodingSteps": 104,
  "PhaseResolution": 1,
  "PixelBandwidth": 2290,
  "ProcedureStepDescription": "video_friends",
  "ProtocolName": "func_task-friends-s05e04b",
  "PulseSequenceDetails": "%CustomerSeq%_cmrr_mbep2d_bold",
  "ReceiveCoilActiveElements": "HC1-7;NC1,2",
  "ReceiveCoilName": "HeadNeck_64",
  "ReconMatrixPE": 104,
  "RepetitionTime": 1.49,
  "SAR": 0.0362962,
  "ScanOptions": "FS",
  "ScanningSequence": "EP",
  "SequenceName": "epfid2d1_104",
  "SequenceVariant": "SK_SS",
  "SeriesDescription": "func_task-friends-s05e04b",
  "SeriesNumber": 23,
  "ShimSetting": [618, -7287, -8799, 491, 8, -393, 37, 42],
  "SliceThickness": 2,
  "SliceTiming": [0, 0.7825, 0.0975, 0.88, 0.195, 0.9775, 0.2925, 1.0775, 0.39, 1.175, 0.49, 1.2725, 0.5875, 1.37, 0.685, 0, 0.7825, 0.0975, 0.88, 0.195, 0.9775, 0.2925, 1.0775, 0.39, 1.175, 0.49, 1.2725, 0.5875, 1.37, 0.685, 0, 0.7825, 0.0975, 0.88, 0.195, 0.9775, 0.2925, 1.0775, 0.39, 1.175, 0.49, 1.2725, 0.5875, 1.37, 0.685, 0, 0.7825, 0.0975, 0.88, 0.195, 0.9775, 0.2925, 1.0775, 0.39, 1.175, 0.49, 1.2725, 0.5875, 1.37, 0.685],
  "SoftwareVersions": "syngo_MR_E11",
  "SpacingBetweenSlices": 2,
  "StationName": "MRC35049",
  "TaskName": "s05e04b",
  "TotalReadoutTime": 0.0576811,
  "TxRefAmp": 238.692,
  "WipMemBlock": "d51698b3-2f64-418e-baf8-6176e244d9ec||Sequence: R016 ve11c/master r/e634e98; Dec 19 2017 11:00:25 by eja",
  "dcmmeta_affine": [
    [-1.9976035356521606, 0.08582010120153427, -0.047066010534763336, 96.78439331054688],
    [0.09705427289009094, 1.861318826675415, -0.7253085970878601, -76.20880889892578],
    [-0.012679396197199821, 0.7267234921455383, 1.863253116607666, -54.631744384765625],
    [0.0, 0.0, 0.0, 1.0]
],
  "dcmmeta_reorient_transform": [
    [0.0, -1.0, 0.0, 103.0],
    [1.0, 0.0, 0.0, 0.0],
    [0.0, 0.0, 1.0, 0.0],
    [0.0, 0.0, 0.0, 1.0]
],
  "dcmmeta_shape": [104, 104, 60, 524],
  "dcmmeta_slice_dim": 2,
  "dcmmeta_version": 0.6,
  "global": {
    "const": {
      "AcquisitionMatrix": [104, 0, 0, 104],
      "AngioFlag": "N",
      "BitsAllocated": 16,
      "BitsStored": 16,
      "BodyPartExamined": "BRAIN",
      "Columns": 832,
      "EchoNumbers": 1,
      "EchoTime": 37.0,
      "EchoTrainLength": 104,
      "FlipAngle": 52.0,
      "HighBit": 15,
      "ImageOrientationPatient": [0.99880174477239, -0.0485271353911, -0.0063396979714, 0.04291004937916, 0.93065942539998, -0.3633617502936],
      "ImagePositionPatient": [-863.99005038439, -757.6993374279, 289.36342883953],
      "ImageType": [
        "ORIGINAL",
        "PRIMARY",
        "M",
        "MB",
        "ND",
        "MOSAIC"
],
      "ImagedNucleus": "1H",
      "ImagingFrequency": 123.258911,
      "InPlanePhaseEncodingDirection": "COL",
      "MRAcquisitionType": "2D",
      "MagneticFieldStrength": 3.0,
      "Manufacturer": "SIEMENS",
      "ManufacturerModelName": "Prisma_fit",
      "Modality": "MR",
      "NumberOfAverages": 1.0,
      "NumberOfPhaseEncodingSteps": 104,
      "PercentPhaseFieldOfView": 100.0,
      "PercentSampling": 100.0,
      "PerformedProcedureStepStartTime": "163558.791000",
      "PhotometricInterpretation": "MONOCHROME2",
      "PixelBandwidth": 2290.0,
      "PixelRepresentation": 0,
      "PixelSpacing": [2.0, 2.0],
      "ProtocolName": "func_task-friends-s05e04b",
      "RepetitionTime": 1490.0,
      "Rows": 832,
      "SAR": 0.03629616008192,
      "SamplesPerPixel": 1,
      "ScanOptions": "FS",
      "ScanningSequence": "EP",
      "SequenceName": "epfid2d1_104",
      "SequenceVariant": [
        "SK",
        "SS"
],
      "SeriesDescription": "func_task-friends-s05e04b",
      "SeriesNumber": 23,
      "SeriesTime": "183929.566000",
      "SliceLocation": -25.536559061191,
      "SliceThickness": 2.0,
      "SmallestImagePixelValue": 0,
      "SoftwareVersions": "syngo MR E11",
      "SpacingBetweenSlices": 1.9999999934882,
      "SpecificCharacterSet": "ISO_IR 100",
      "StudyID": "1",
      "StudyTime": "163558.733000",
      "TransmitCoilName": "Body",
      "VariableFlipAngleFlag": "N",
      "WindowCenterWidthExplanation": "Algo1",
      "dBdt": 0.0},
    "slices": {}
  },
  "time": {
    "samples": {
      "AcquisitionNumber": [1, 2, 3, 4, 5, 6, 7, 8, 9, 10, 11, 12, 13, 14, 15, 16, 17, 18, 19, 20, 21, 22, 23, 24, 25, 26, 27, 28, 29, 30, 31, 32, 33, 34, 35, 36, 37, 38, 39, 40, 41, 42, 43, 44, 45, 46, 47, 48, 49, 50, 51, 52, 53, 54, 55, 56, 57, 58, 59, 60, 61, 62, 63, 64, 65, 66, 67, 68, 69, 70, 71, 72, 73, 74, 75, 76, 77, 78, 79, 80, 81, 82, 83, 84, 85, 86, 87, 88, 89, 90, 91, 92, 93, 94, 95, 96, 97, 98, 99, 100, 101, 102, 103, 104, 105, 106, 107, 108, 109, 110, 111, 112, 113, 114, 115, 116, 117, 118, 119, 120, 121, 122, 123, 124, 125, 126, 127, 128, 129, 130, 131, 132, 133, 134, 135, 136, 137, 138, 139, 140, 141, 142, 143, 144, 145, 146, 147, 148, 149, 150, 151, 152, 153, 154, 155, 156, 157, 158, 159, 160, 161, 162, 163, 164, 165, 166, 167, 168, 169, 170, 171, 172, 173, 174, 175, 176, 177, 178, 179, 180, 181, 182, 183, 184, 185, 186, 187, 188, 189, 190, 191, 192, 193, 194, 195, 196, 197, 198, 199, 200, 201, 202, 203, 204, 205, 206, 207, 208, 209, 210, 211, 212, 213, 214, 215, 216, 217, 218, 219, 220, 221, 222, 223, 224, 225, 226, 227, 228, 229, 230, 231, 232, 233, 234, 235, 236, 237, 238, 239, 240, 241, 242, 243, 244, 245, 246, 247, 248, 249, 250, 251, 252, 253, 254, 255, 256, 257, 258, 259, 260, 261, 262, 263, 264, 265, 266, 267, 268, 269, 270, 271, 272, 273, 274, 275, 276, 277, 278, 279, 280, 281, 282, 283, 284, 285, 286, 287, 288, 289, 290, 291, 292, 293, 294, 295, 296, 297, 298, 299, 300, 301, 302, 303, 304, 305, 306, 307, 308, 309, 310, 311, 312, 313, 314, 315, 316, 317, 318, 319, 320, 321, 322, 323, 324, 325, 326, 327, 328, 329, 330, 331, 332, 333, 334, 335, 336, 337, 338, 339, 340, 341, 342, 343, 344, 345, 346, 347, 348, 349, 350, 351, 352, 353, 354, 355, 356, 357, 358, 359, 360, 361, 362, 363, 364, 365, 366, 367, 368, 369, 370, 371, 372, 373, 374, 375, 376, 377, 378, 379, 380, 381, 382, 383, 384, 385, 386, 387, 388, 389, 390, 391, 392, 393, 394, 395, 396, 397, 398, 399, 400, 401, 402, 403, 404, 405, 406, 407, 408, 409, 410, 411, 412, 413, 414, 415, 416, 417, 418, 419, 420, 421, 422, 423, 424, 425, 426, 427, 428, 429, 430, 431, 432, 433, 434, 435, 436, 437, 438, 439, 440, 441, 442, 443, 444, 445, 446, 447, 448, 449, 450, 451, 452, 453, 454, 455, 456, 457, 458, 459, 460, 461, 462, 463, 464, 465, 466, 467, 468, 469, 470, 471, 472, 473, 474, 475, 476, 477, 478, 479, 480, 481, 482, 483, 484, 485, 486, 487, 488, 489, 490, 491, 492, 493, 494, 495, 496, 497, 498, 499, 500, 501, 502, 503, 504, 505, 506, 507, 508, 509, 510, 511, 512, 513, 514, 515, 516, 517, 518, 519, 520, 521, 522, 523, 524],
      "AcquisitionTime": ["183815.735000", "183817.225000", "183818.715000", "183820.205000", "183821.695000", "183823.185000", "183824.675000", "183826.165000", "183827.655000", "183829.145000", "183830.635000", "183832.125000", "183833.615000", "183835.105000", "183836.595000", "183838.085000", "183839.575000", "183841.065000", "183842.555000", "183844.045000", "183845.535000", "183847.025000", "183848.515000", "183850.005000", "183851.495000", "183852.985000", "183854.475000", "183855.965000", "183857.455000", "183858.945000", "183900.435000", "183901.925000", "183903.415000", "183904.905000", "183906.395000", "183907.885000", "183909.375000", "183910.865000", "183912.355000", "183913.845000", "183915.335000", "183916.825000", "183918.315000", "183919.805000", "183921.295000", "183922.785000", "183924.275000", "183925.765000", "183927.255000", "183928.745000", "183930.235000", "183931.725000", "183933.215000", "183934.705000", "183936.195000", "183937.685000", "183939.175000", "183940.665000", "183942.155000", "183943.645000", "183945.135000", "183946.625000", "183948.115000", "183949.605000", "183951.095000", "183952.585000", "183954.075000", "183955.565000", "183957.055000", "183958.545000", "184000.035000", "184001.525000", "184003.015000", "184004.505000", "184005.995000", "184007.485000", "184008.975000", "184010.465000", "184011.955000", "184013.445000", "184014.935000", "184016.425000", "184017.915000", "184019.405000", "184020.895000", "184022.385000", "184023.875000", "184025.365000", "184026.855000", "184028.345000", "184029.835000", "184031.325000", "184032.815000", "184034.305000", "184035.795000", "184037.285000", "184038.775000", "184040.265000", "184041.755000", "184043.245000", "184044.735000", "184046.225000", "184047.715000", "184049.205000", "184050.695000", "184052.185000", "184053.675000", "184055.165000", "184056.655000", "184058.145000", "184059.635000", "184101.125000", "184102.615000", "184104.105000", "184105.595000", "184107.085000", "184108.575000", "184110.065000", "184111.555000", "184113.045000", "184114.535000", "184116.025000", "184117.515000", "184119.005000", "184120.495000", "184121.985000", "184123.475000", "184124.965000", "184126.455000", "184127.945000", "184129.435000", "184130.925000", "184132.415000", "184133.905000", "184135.395000", "184136.885000", "184138.375000", "184139.865000", "184141.355000", "184142.845000", "184144.335000", "184145.825000", "184147.315000", "184148.805000", "184150.295000", "184151.785000", "184153.275000", "184154.765000", "184156.255000", "184157.745000", "184159.235000", "184200.725000", "184202.215000", "184203.705000", "184205.195000", "184206.685000", "184208.175000", "184209.665000", "184211.155000", "184212.645000", "184214.135000", "184215.625000", "184217.115000", "184218.605000", "184220.095000", "184221.585000", "184223.075000", "184224.565000", "184226.055000", "184227.545000", "184229.035000", "184230.525000", "184232.015000", "184233.505000", "184234.995000", "184236.485000", "184237.975000", "184239.465000", "184240.955000", "184242.445000", "184243.935000", "184245.425000", "184246.915000", "184248.405000", "184249.895000", "184251.385000", "184252.875000", "184254.365000", "184255.855000", "184257.345000", "184258.835000", "184300.325000", "184301.815000", "184303.305000", "184304.795000", "184306.285000", "184307.775000", "184309.265000", "184310.755000", "184312.245000", "184313.735000", "184315.225000", "184316.715000", "184318.205000", "184319.695000", "184321.185000", "184322.675000", "184324.165000", "184325.655000", "184327.145000", "184328.635000", "184330.125000", "184331.615000", "184333.105000", "184334.595000", "184336.085000", "184337.575000", "184339.065000", "184340.555000", "184342.045000", "184343.535000", "184345.025000", "184346.515000", "184348.005000", "184349.495000", "184350.985000", "184352.475000", "184353.965000", "184355.455000", "184356.945000", "184358.435000", "184359.925000", "184401.415000", "184402.905000", "184404.395000", "184405.885000", "184407.375000", "184408.865000", "184410.355000", "184411.845000", "184413.335000", "184414.825000", "184416.315000", "184417.805000", "184419.295000", "184420.785000", "184422.275000", "184423.765000", "184425.255000", "184426.745000", "184428.235000", "184429.725000", "184431.215000", "184432.705000", "184434.195000", "184435.685000", "184437.175000", "184438.665000", "184440.155000", "184441.645000", "184443.135000", "184444.625000", "184446.115000", "184447.605000", "184449.095000", "184450.585000", "184452.075000", "184453.565000", "184455.055000", "184456.545000", "184458.035000", "184459.525000", "184501.015000", "184502.505000", "184503.995000", "184505.485000", "184506.975000", "184508.465000", "184509.955000", "184511.445000", "184512.935000", "184514.425000", "184515.915000", "184517.405000", "184518.895000", "184520.385000", "184521.875000", "184523.365000", "184524.855000", "184526.345000", "184527.835000", "184529.325000", "184530.815000", "184532.305000", "184533.795000", "184535.285000", "184536.775000", "184538.265000", "184539.755000", "184541.245000", "184542.735000", "184544.225000", "184545.715000", "184547.205000", "184548.695000", "184550.185000", "184551.675000", "184553.165000", "184554.655000", "184556.145000", "184557.635000", "184559.125000", "184600.615000", "184602.105000", "184603.595000", "184605.085000", "184606.575000", "184608.065000", "184609.555000", "184611.045000", "184612.535000", "184614.025000", "184615.515000", "184617.005000", "184618.495000", "184619.985000", "184621.475000", "184622.965000", "184624.455000", "184625.945000", "184627.435000", "184628.925000", "184630.415000", "184631.905000", "184633.395000", "184634.885000", "184636.375000", "184637.865000", "184639.355000", "184640.845000", "184642.335000", "184643.825000", "184645.315000", "184646.805000", "184648.295000", "184649.785000", "184651.275000", "184652.765000", "184654.255000", "184655.745000", "184657.235000", "184658.725000", "184700.215000", "184701.705000", "184703.195000", "184704.685000", "184706.175000", "184707.665000", "184709.155000", "184710.645000", "184712.135000", "184713.625000", "184715.115000", "184716.605000", "184718.095000", "184719.585000", "184721.075000", "184722.565000", "184724.055000", "184725.545000", "184727.035000", "184728.525000", "184730.015000", "184731.505000", "184732.995000", "184734.485000", "184735.975000", "184737.465000", "184738.955000", "184740.445000", "184741.935000", "184743.425000", "184744.915000", "184746.405000", "184747.895000", "184749.385000", "184750.875000", "184752.365000", "184753.855000", "184755.345000", "184756.835000", "184758.325000", "184759.815000", "184801.305000", "184802.795000", "184804.285000", "184805.775000", "184807.265000", "184808.755000", "184810.245000", "184811.735000", "184813.225000", "184814.715000", "184816.205000", "184817.695000", "184819.185000", "184820.675000", "184822.165000", "184823.655000", "184825.145000", "184826.635000", "184828.125000", "184829.615000", "184831.105000", "184832.595000", "184834.085000", "184835.575000", "184837.065000", "184838.555000", "184840.045000", "184841.535000", "184843.025000", "184844.515000", "184846.005000", "184847.495000", "184848.985000", "184850.475000", "184851.965000", "184853.455000", "184854.945000", "184856.435000", "184857.925000", "184859.415000", "184900.905000", "184902.395000", "184903.885000", "184905.375000", "184906.865000", "184908.355000", "184909.845000", "184911.335000", "184912.825000", "184914.315000", "184915.805000", "184917.295000", "184918.785000", "184920.275000", "184921.765000", "184923.255000", "184924.745000", "184926.235000", "184927.725000", "184929.215000", "184930.705000", "184932.195000", "184933.685000", "184935.175000", "184936.665000", "184938.155000", "184939.645000", "184941.135000", "184942.625000", "184944.115000", "184945.605000", "184947.095000", "184948.585000", "184950.075000", "184951.565000", "184953.055000", "184954.545000", "184956.035000", "184957.525000", "184959.015000", "185000.505000", "185001.995000", "185003.485000", "185004.975000", "185006.465000", "185007.955000", "185009.445000", "185010.935000", "185012.425000", "185013.915000", "185015.405000", "185016.895000", "185018.385000", "185019.875000", "185021.365000", "185022.855000", "185024.345000", "185025.835000", "185027.325000", "185028.815000", "185030.305000", "185031.795000", "185033.285000", "185034.775000", "185036.265000", "185037.755000", "185039.245000", "185040.735000", "185042.225000", "185043.715000", "185045.205000", "185046.695000", "185048.185000", "185049.675000", "185051.165000", "185052.655000", "185054.145000", "185055.635000", "185057.125000", "185058.615000", "185100.105000", "185101.595000", "185103.085000", "185104.575000", "185106.065000", "185107.555000", "185109.045000", "185110.535000", "185112.025000", "185113.515000", "185115.005000"],
      "ContentTime": ["183929.569000", "183929.579000", "183929.582000", "183929.584000", "183929.587000", "183929.590000", "183929.593000", "183929.596000", "183929.599000", "183929.602000", "183929.605000", "183929.608000", "183929.611000", "183929.613000", "183929.616000", "183929.619000", "183929.622000", "183929.627000", "183929.630000", "183929.633000", "183949.532000", "183949.535000", "183949.538000", "183949.541000", "183949.544000", "183949.547000", "183949.550000", "183949.552000", "183949.555000", "183949.558000", "183949.561000", "183949.564000", "183949.567000", "183949.570000", "183949.572000", "183949.575000", "183949.578000", "183949.581000", "183949.584000", "183949.587000", "184009.532000", "184009.547000", "184009.551000", "184009.554000", "184009.557000", "184009.560000", "184009.563000", "184009.566000", "184009.569000", "184009.572000", "184009.575000", "184009.578000", "184009.581000", "184009.584000", "184009.587000", "184009.589000", "184009.592000", "184009.595000", "184009.598000", "184009.601000", "184029.532000", "184029.535000", "184029.538000", "184029.541000", "184029.544000", "184029.547000", "184029.550000", "184029.553000", "184029.556000", "184029.558000", "184029.561000", "184029.564000", "184029.567000", "184029.570000", "184029.573000", "184029.576000", "184029.579000", "184029.582000", "184029.585000", "184029.588000", "184049.532000", "184049.535000", "184049.538000", "184049.541000", "184049.544000", "184049.547000", "184049.550000", "184049.553000", "184049.556000", "184049.559000", "184049.562000", "184049.565000", "184049.568000", "184049.571000", "184049.574000", "184049.577000", "184049.580000", "184049.582000", "184049.585000", "184049.588000", "184129.532000", "184129.535000", "184129.538000", "184129.541000", "184129.544000", "184129.547000", "184129.565000", "184129.568000", "184129.571000", "184129.574000", "184129.577000", "184129.580000", "184129.583000", "184129.586000", "184129.588000", "184129.591000", "184129.594000", "184129.597000", "184129.600000", "184129.603000", "184129.606000", "184129.609000", "184129.612000", "184129.615000", "184129.617000", "184129.620000", "184129.623000", "184129.626000", "184129.629000", "184209.532000", "184209.535000", "184209.538000", "184209.541000", "184209.544000", "184209.547000", "184209.550000", "184209.553000", "184209.556000", "184209.558000", "184209.561000", "184209.564000", "184209.567000", "184209.570000", "184209.573000", "184209.576000", "184209.579000", "184209.582000", "184209.585000", "184209.588000", "184209.591000", "184209.594000", "184209.597000", "184209.599000", "184209.602000", "184209.605000", "184209.608000", "184249.532000", "184249.535000", "184249.538000", "184249.541000", "184249.544000", "184249.547000", "184249.550000", "184249.553000", "184249.556000", "184249.559000", "184249.562000", "184249.565000", "184249.568000", "184249.571000", "184249.574000", "184249.577000", "184249.580000", "184249.582000", "184249.585000", "184249.588000", "184249.591000", "184249.594000", "184249.597000", "184249.600000", "184249.603000", "184249.606000", "184249.609000", "184329.532000", "184329.535000", "184329.538000", "184329.541000", "184329.544000", "184329.547000", "184329.550000", "184329.552000", "184329.555000", "184329.558000", "184329.561000", "184329.564000", "184329.567000", "184329.570000", "184329.573000", "184329.576000", "184329.579000", "184329.582000", "184329.585000", "184329.588000", "184329.590000", "184329.593000", "184329.596000", "184329.599000", "184329.602000", "184329.605000", "184329.608000", "184409.532000", "184409.535000", "184409.538000", "184409.541000", "184409.544000", "184409.547000", "184409.550000", "184409.553000", "184409.556000", "184409.559000", "184409.561000", "184409.564000", "184409.567000", "184409.570000", "184409.573000", "184409.576000", "184409.579000", "184409.582000", "184409.585000", "184409.588000", "184409.591000", "184409.594000", "184409.597000", "184409.599000", "184409.602000", "184409.605000", "184409.608000", "184449.531000", "184449.534000", "184449.537000", "184449.540000", "184449.543000", "184449.546000", "184449.549000", "184449.552000", "184449.555000", "184449.558000", "184449.560000", "184449.563000", "184449.566000", "184449.576000", "184449.579000", "184449.582000", "184449.585000", "184449.588000", "184449.591000", "184449.594000", "184449.597000", "184449.600000", "184449.603000", "184449.606000", "184449.609000", "184449.613000", "184529.532000", "184529.535000", "184529.538000", "184529.541000", "184529.544000", "184529.547000", "184529.550000", "184529.553000", "184529.556000", "184529.559000", "184529.561000", "184529.564000", "184529.567000", "184529.570000", "184529.573000", "184529.576000", "184529.579000", "184529.582000", "184529.585000", "184529.588000", "184529.591000", "184529.594000", "184529.597000", "184529.600000", "184529.602000", "184529.605000", "184529.608000", "184609.532000", "184609.535000", "184609.538000", "184609.541000", "184609.544000", "184609.547000", "184609.550000", "184609.553000", "184609.556000", "184609.559000", "184609.562000", "184609.564000", "184609.567000", "184609.570000", "184609.573000", "184609.576000", "184609.579000", "184609.582000", "184609.593000", "184609.596000", "184609.599000", "184609.602000", "184609.605000", "184609.608000", "184609.611000", "184609.614000", "184609.617000", "184649.532000", "184649.535000", "184649.538000", "184649.541000", "184649.544000", "184649.547000", "184649.550000", "184649.553000", "184649.556000", "184649.558000", "184649.561000", "184649.564000", "184649.567000", "184649.570000", "184649.573000", "184649.576000", "184649.579000", "184649.582000", "184649.585000", "184649.588000", "184649.591000", "184649.594000", "184649.597000", "184649.599000", "184649.602000", "184649.605000", "184649.608000", "184729.532000", "184729.535000", "184729.538000", "184729.541000", "184729.544000", "184729.547000", "184729.550000", "184729.553000", "184729.556000", "184729.558000", "184729.561000", "184729.564000", "184729.567000", "184729.570000", "184729.573000", "184729.576000", "184729.579000", "184729.582000", "184729.585000", "184729.588000", "184729.591000", "184729.594000", "184729.597000", "184729.599000", "184729.602000", "184729.605000", "184729.608000", "184809.532000", "184809.535000", "184809.538000", "184809.541000", "184809.544000", "184809.547000", "184809.550000", "184809.553000", "184809.556000", "184809.558000", "184809.561000", "184809.564000", "184809.567000", "184809.570000", "184809.573000", "184809.576000", "184809.579000", "184809.582000", "184809.585000", "184809.588000", "184809.591000", "184809.594000", "184809.597000", "184809.600000", "184809.603000", "184809.606000", "184809.608000", "184849.532000", "184849.535000", "184849.538000", "184849.541000", "184849.544000", "184849.547000", "184849.550000", "184849.553000", "184849.556000", "184849.559000", "184849.562000", "184849.565000", "184849.568000", "184849.571000", "184849.573000", "184849.576000", "184849.579000", "184849.582000", "184849.585000", "184849.588000", "184849.591000", "184849.594000", "184849.597000", "184849.600000", "184849.603000", "184849.606000", "184929.531000", "184929.534000", "184929.537000", "184929.540000", "184929.543000", "184929.546000", "184929.549000", "184929.552000", "184929.555000", "184929.558000", "184929.561000", "184929.563000", "184929.566000", "184929.569000", "184929.572000", "184929.575000", "184929.578000", "184929.581000", "184929.584000", "184929.587000", "184929.590000", "184929.593000", "184929.596000", "184929.599000", "184929.602000", "184929.605000", "184929.608000", "185009.532000", "185009.535000", "185009.538000", "185009.541000", "185009.544000", "185009.547000", "185009.550000", "185009.553000", "185009.556000", "185009.559000", "185009.562000", "185009.565000", "185009.568000", "185009.570000", "185009.573000", "185009.576000", "185009.579000", "185009.582000", "185009.585000", "185009.588000", "185009.591000", "185009.594000", "185009.597000", "185009.600000", "185009.603000", "185009.606000", "185009.609000", "185049.532000", "185049.535000", "185049.538000", "185049.541000", "185049.544000", "185049.556000", "185049.559000", "185049.561000", "185049.564000", "185049.567000", "185049.570000", "185049.573000", "185049.576000", "185049.579000", "185049.582000", "185049.585000", "185049.588000", "185049.591000", "185049.594000", "185049.597000", "185049.600000", "185049.603000", "185049.606000", "185049.608000", "185049.611000", "185049.614000", "185049.617000", "185117.192000", "185117.195000", "185117.198000", "185117.201000", "185117.204000", "185117.207000", "185117.210000", "185117.213000", "185117.216000", "185117.219000", "185117.222000", "185117.225000", "185117.228000", "185117.231000", "185117.234000", "185117.238000", "185117.241000", "185117.244000", "185117.247000"],
