{
  "AcquisitionMatrixPE": 104,
  "AcquisitionNumber": 1,
  "AcquisitionTime": "17:47:51.985000",
  "BandwidthPerPixelPhaseEncode": 17.17,
  "BaseResolution": 104,
  "BodyPartExamined": "BRAIN",
  "CoilString": "HC1-7;NC1_2",
  "ConsistencyInfo": "N4_VE11C_LATEST_20160120",
  "ConversionSoftware": "dcm2niix",
  "ConversionSoftwareVersion": "v1.0.20190902",
  "DerivedVendorReportedEchoSpacing": 0.000560011,
  "DeviceSerialNumber": "167006",
  "DwellTime": 2.1e-06,
  "EchoTime": 0.037,
  "EchoTrainLength": 104,
  "EffectiveEchoSpacing": 0.000560011,
  "FlipAngle": 52,
  "HeudiconvVersion": "0.10.0",
  "ImageComments": "Unaliased_MB4_PE3_LB",
  "ImageOrientationPatientDICOM": [0.998802, -0.0485271, -0.0063397, 0.0429101, 0.930659, -0.363362],
  "ImageType": [
    "ORIGINAL",
    "PRIMARY",
    "M",
    "MB",
    "ND",
    "MOSAIC"
],
  "ImagingFrequency": 123.259,
  "InPlanePhaseEncodingDirectionDICOM": "COL",
  "InstitutionAddress": "Chemin_Queen-Mary_4565_Montreal_District_CA_H3W_1W5",
  "InstitutionName": "IUGM",
  "InstitutionalDepartmentName": "Department",
  "MRAcquisitionType": "2D",
  "MagneticFieldStrength": 3,
  "Manufacturer": "Siemens",
  "ManufacturersModelName": "Prisma_fit",
  "Modality": "MR",
  "MultibandAccelerationFactor": 4,
  "PartialFourier": 1,
  "PatientPosition": "HFS",
  "PercentPhaseFOV": 100,
  "PhaseEncodingDirection": "j",
  "PhaseEncodingSteps": 104,
  "PhaseResolution": 1,
  "PixelBandwidth": 2290,
  "ProcedureStepDescription": "video_friends",
  "ProtocolName": "func_task-friends-s05e02b",
  "PulseSequenceDetails": "%CustomerSeq%_cmrr_mbep2d_bold",
  "ReceiveCoilActiveElements": "HC1-7;NC1,2",
  "ReceiveCoilName": "HeadNeck_64",
  "ReconMatrixPE": 104,
  "RepetitionTime": 1.49,
  "SAR": 0.036298,
  "ScanOptions": "FS",
  "ScanningSequence": "EP",
  "SequenceName": "epfid2d1_104",
  "SequenceVariant": "SK_SS",
  "SeriesDescription": "func_task-friends-s05e02b",
  "SeriesNumber": 15,
  "ShimSetting": [618, -7287, -8799, 491, 8, -393, 37, 42],
  "SliceThickness": 2,
  "SliceTiming": [0, 0.7825, 0.0975, 0.8825, 0.195, 0.98, 0.2925, 1.0775, 0.3925, 1.175, 0.49, 1.2725, 0.5875, 1.3725, 0.685, 0, 0.7825, 0.0975, 0.8825, 0.195, 0.98, 0.2925, 1.0775, 0.3925, 1.175, 0.49, 1.2725, 0.5875, 1.3725, 0.685, 0, 0.7825, 0.0975, 0.8825, 0.195, 0.98, 0.2925, 1.0775, 0.3925, 1.175, 0.49, 1.2725, 0.5875, 1.3725, 0.685, 0, 0.7825, 0.0975, 0.8825, 0.195, 0.98, 0.2925, 1.0775, 0.3925, 1.175, 0.49, 1.2725, 0.5875, 1.3725, 0.685],
  "SoftwareVersions": "syngo_MR_E11",
  "SpacingBetweenSlices": 2,
  "StationName": "MRC35049",
  "TaskName": "s05e02b",
  "TotalReadoutTime": 0.0576811,
  "TxRefAmp": 238.692,
  "WipMemBlock": "5320ef48-d60a-4936-b450-fc7552fbb114||Sequence: R016 ve11c/master r/e634e98; Dec 19 2017 11:00:25 by eja",
  "dcmmeta_affine": [
    [-1.9976035356521606, 0.08582010120153427, -0.047066010534763336, 96.78439331054688],
    [0.09705427289009094, 1.861318826675415, -0.7253085970878601, -76.20880889892578],
    [-0.012679396197199821, 0.7267234921455383, 1.863253116607666, -54.631744384765625],
    [0.0, 0.0, 0.0, 1.0]
],
  "dcmmeta_reorient_transform": [
    [0.0, -1.0, 0.0, 103.0],
    [1.0, 0.0, 0.0, 0.0],
    [0.0, 0.0, 1.0, 0.0],
    [0.0, 0.0, 0.0, 1.0]
],
  "dcmmeta_shape": [104, 104, 60, 531],
  "dcmmeta_slice_dim": 2,
  "dcmmeta_version": 0.6,
  "global": {
    "const": {
      "AcquisitionMatrix": [104, 0, 0, 104],
      "AngioFlag": "N",
      "BitsAllocated": 16,
      "BitsStored": 16,
      "BodyPartExamined": "BRAIN",
      "Columns": 832,
      "EchoNumbers": 1,
      "EchoTime": 37.0,
      "EchoTrainLength": 104,
      "FlipAngle": 52.0,
      "HighBit": 15,
      "ImageOrientationPatient": [0.99880174477239, -0.0485271353911, -0.0063396979714, 0.04291004937916, 0.93065942539998, -0.3633617502936],
      "ImagePositionPatient": [-863.99005038439, -757.6993374279, 289.36342883953],
      "ImageType": [
        "ORIGINAL",
        "PRIMARY",
        "M",
        "MB",
        "ND",
        "MOSAIC"
],
      "ImagedNucleus": "1H",
      "ImagingFrequency": 123.2589,
      "InPlanePhaseEncodingDirection": "COL",
      "MRAcquisitionType": "2D",
      "MagneticFieldStrength": 3.0,
      "Manufacturer": "SIEMENS",
      "ManufacturerModelName": "Prisma_fit",
      "Modality": "MR",
      "NumberOfAverages": 1.0,
      "NumberOfPhaseEncodingSteps": 104,
      "PercentPhaseFieldOfView": 100.0,
      "PercentSampling": 100.0,
      "PerformedProcedureStepStartTime": "163558.791000",
      "PhotometricInterpretation": "MONOCHROME2",
      "PixelBandwidth": 2290.0,
      "PixelRepresentation": 0,
      "PixelSpacing": [2.0, 2.0],
      "ProtocolName": "func_task-friends-s05e02b",
      "RepetitionTime": 1490.0,
      "Rows": 832,
      "SAR": 0.03629797303948,
      "SamplesPerPixel": 1,
      "ScanOptions": "FS",
      "ScanningSequence": "EP",
      "SequenceName": "epfid2d1_104",
      "SequenceVariant": [
        "SK",
        "SS"
],
      "SeriesDescription": "func_task-friends-s05e02b",
      "SeriesNumber": 15,
      "SeriesTime": "174913.203000",
      "SliceLocation": -25.536559061191,
      "SliceThickness": 2.0,
      "SmallestImagePixelValue": 0,
      "SoftwareVersions": "syngo MR E11",
      "SpacingBetweenSlices": 1.9999999934882,
      "SpecificCharacterSet": "ISO_IR 100",
      "StudyID": "1",
      "StudyTime": "163558.733000",
      "TransmitCoilName": "Body",
      "VariableFlipAngleFlag": "N",
      "WindowCenterWidthExplanation": "Algo1",
      "dBdt": 0.0},
    "slices": {}
  },
  "time": {
    "samples": {
      "AcquisitionNumber": [1, 2, 3, 4, 5, 6, 7, 8, 9, 10, 11, 12, 13, 14, 15, 16, 17, 18, 19, 20, 21, 22, 23, 24, 25, 26, 27, 28, 29, 30, 31, 32, 33, 34, 35, 36, 37, 38, 39, 40, 41, 42, 43, 44, 45, 46, 47, 48, 49, 50, 51, 52, 53, 54, 55, 56, 57, 58, 59, 60, 61, 62, 63, 64, 65, 66, 67, 68, 69, 70, 71, 72, 73, 74, 75, 76, 77, 78, 79, 80, 81, 82, 83, 84, 85, 86, 87, 88, 89, 90, 91, 92, 93, 94, 95, 96, 97, 98, 99, 100, 101, 102, 103, 104, 105, 106, 107, 108, 109, 110, 111, 112, 113, 114, 115, 116, 117, 118, 119, 120, 121, 122, 123, 124, 125, 126, 127, 128, 129, 130, 131, 132, 133, 134, 135, 136, 137, 138, 139, 140, 141, 142, 143, 144, 145, 146, 147, 148, 149, 150, 151, 152, 153, 154, 155, 156, 157, 158, 159, 160, 161, 162, 163, 164, 165, 166, 167, 168, 169, 170, 171, 172, 173, 174, 175, 176, 177, 178, 179, 180, 181, 182, 183, 184, 185, 186, 187, 188, 189, 190, 191, 192, 193, 194, 195, 196, 197, 198, 199, 200, 201, 202, 203, 204, 205, 206, 207, 208, 209, 210, 211, 212, 213, 214, 215, 216, 217, 218, 219, 220, 221, 222, 223, 224, 225, 226, 227, 228, 229, 230, 231, 232, 233, 234, 235, 236, 237, 238, 239, 240, 241, 242, 243, 244, 245, 246, 247, 248, 249, 250, 251, 252, 253, 254, 255, 256, 257, 258, 259, 260, 261, 262, 263, 264, 265, 266, 267, 268, 269, 270, 271, 272, 273, 274, 275, 276, 277, 278, 279, 280, 281, 282, 283, 284, 285, 286, 287, 288, 289, 290, 291, 292, 293, 294, 295, 296, 297, 298, 299, 300, 301, 302, 303, 304, 305, 306, 307, 308, 309, 310, 311, 312, 313, 314, 315, 316, 317, 318, 319, 320, 321, 322, 323, 324, 325, 326, 327, 328, 329, 330, 331, 332, 333, 334, 335, 336, 337, 338, 339, 340, 341, 342, 343, 344, 345, 346, 347, 348, 349, 350, 351, 352, 353, 354, 355, 356, 357, 358, 359, 360, 361, 362, 363, 364, 365, 366, 367, 368, 369, 370, 371, 372, 373, 374, 375, 376, 377, 378, 379, 380, 381, 382, 383, 384, 385, 386, 387, 388, 389, 390, 391, 392, 393, 394, 395, 396, 397, 398, 399, 400, 401, 402, 403, 404, 405, 406, 407, 408, 409, 410, 411, 412, 413, 414, 415, 416, 417, 418, 419, 420, 421, 422, 423, 424, 425, 426, 427, 428, 429, 430, 431, 432, 433, 434, 435, 436, 437, 438, 439, 440, 441, 442, 443, 444, 445, 446, 447, 448, 449, 450, 451, 452, 453, 454, 455, 456, 457, 458, 459, 460, 461, 462, 463, 464, 465, 466, 467, 468, 469, 470, 471, 472, 473, 474, 475, 476, 477, 478, 479, 480, 481, 482, 483, 484, 485, 486, 487, 488, 489, 490, 491, 492, 493, 494, 495, 496, 497, 498, 499, 500, 501, 502, 503, 504, 505, 506, 507, 508, 509, 510, 511, 512, 513, 514, 515, 516, 517, 518, 519, 520, 521, 522, 523, 524, 525, 526, 527, 528, 529, 530, 531],
      "AcquisitionTime": ["174751.985000", "174753.475000", "174754.965000", "174756.455000", "174757.945000", "174759.435000", "174800.925000", "174802.415000", "174803.905000", "174805.395000", "174806.885000", "174808.375000", "174809.865000", "174811.355000", "174812.845000", "174814.335000", "174815.825000", "174817.315000", "174818.805000", "174820.295000", "174821.785000", "174823.275000", "174824.765000", "174826.255000", "174827.745000", "174829.235000", "174830.725000", "174832.215000", "174833.705000", "174835.195000", "174836.685000", "174838.175000", "174839.665000", "174841.155000", "174842.645000", "174844.135000", "174845.625000", "174847.115000", "174848.605000", "174850.095000", "174851.585000", "174853.075000", "174854.565000", "174856.055000", "174857.545000", "174859.035000", "174900.525000", "174902.015000", "174903.505000", "174904.995000", "174906.485000", "174907.975000", "174909.465000", "174910.955000", "174912.445000", "174913.935000", "174915.425000", "174916.915000", "174918.405000", "174919.895000", "174921.385000", "174922.875000", "174924.365000", "174925.855000", "174927.345000", "174928.835000", "174930.325000", "174931.815000", "174933.305000", "174934.795000", "174936.285000", "174937.775000", "174939.265000", "174940.755000", "174942.245000", "174943.735000", "174945.225000", "174946.715000", "174948.205000", "174949.695000", "174951.185000", "174952.675000", "174954.165000", "174955.655000", "174957.145000", "174958.635000", "175000.125000", "175001.615000", "175003.105000", "175004.595000", "175006.085000", "175007.575000", "175009.065000", "175010.555000", "175012.045000", "175013.535000", "175015.025000", "175016.515000", "175018.005000", "175019.495000", "175020.985000", "175022.475000", "175023.965000", "175025.455000", "175026.945000", "175028.435000", "175029.925000", "175031.415000", "175032.905000", "175034.395000", "175035.885000", "175037.375000", "175038.865000", "175040.355000", "175041.845000", "175043.335000", "175044.825000", "175046.315000", "175047.805000", "175049.295000", "175050.785000", "175052.275000", "175053.765000", "175055.255000", "175056.745000", "175058.235000", "175059.725000", "175101.215000", "175102.705000", "175104.195000", "175105.685000", "175107.175000", "175108.665000", "175110.155000", "175111.645000", "175113.135000", "175114.625000", "175116.115000", "175117.605000", "175119.095000", "175120.585000", "175122.075000", "175123.565000", "175125.055000", "175126.545000", "175128.035000", "175129.525000", "175131.015000", "175132.505000", "175133.995000", "175135.485000", "175136.975000", "175138.465000", "175139.955000", "175141.445000", "175142.935000", "175144.425000", "175145.915000", "175147.405000", "175148.895000", "175150.385000", "175151.875000", "175153.365000", "175154.855000", "175156.345000", "175157.835000", "175159.325000", "175200.815000", "175202.305000", "175203.795000", "175205.285000", "175206.775000", "175208.265000", "175209.755000", "175211.245000", "175212.735000", "175214.225000", "175215.715000", "175217.205000", "175218.695000", "175220.185000", "175221.675000", "175223.165000", "175224.655000", "175226.145000", "175227.635000", "175229.125000", "175230.615000", "175232.105000", "175233.595000", "175235.085000", "175236.575000", "175238.065000", "175239.555000", "175241.045000", "175242.535000", "175244.025000", "175245.515000", "175247.005000", "175248.495000", "175249.985000", "175251.475000", "175252.965000", "175254.455000", "175255.945000", "175257.435000", "175258.925000", "175300.415000", "175301.905000", "175303.395000", "175304.885000", "175306.375000", "175307.865000", "175309.355000", "175310.845000", "175312.335000", "175313.825000", "175315.315000", "175316.805000", "175318.295000", "175319.785000", "175321.275000", "175322.765000", "175324.255000", "175325.745000", "175327.235000", "175328.725000", "175330.215000", "175331.705000", "175333.195000", "175334.685000", "175336.175000", "175337.665000", "175339.155000", "175340.645000", "175342.135000", "175343.625000", "175345.115000", "175346.605000", "175348.095000", "175349.585000", "175351.075000", "175352.565000", "175354.055000", "175355.545000", "175357.035000", "175358.525000", "175400.015000", "175401.505000", "175402.995000", "175404.485000", "175405.975000", "175407.465000", "175408.955000", "175410.445000", "175411.935000", "175413.425000", "175414.915000", "175416.405000", "175417.895000", "175419.385000", "175420.875000", "175422.365000", "175423.855000", "175425.345000", "175426.835000", "175428.325000", "175429.815000", "175431.305000", "175432.795000", "175434.285000", "175435.775000", "175437.265000", "175438.755000", "175440.245000", "175441.735000", "175443.225000", "175444.715000", "175446.205000", "175447.695000", "175449.185000", "175450.675000", "175452.165000", "175453.655000", "175455.145000", "175456.635000", "175458.125000", "175459.615000", "175501.105000", "175502.595000", "175504.085000", "175505.575000", "175507.065000", "175508.555000", "175510.045000", "175511.535000", "175513.025000", "175514.515000", "175516.005000", "175517.495000", "175518.985000", "175520.475000", "175521.965000", "175523.455000", "175524.945000", "175526.435000", "175527.925000", "175529.415000", "175530.905000", "175532.395000", "175533.885000", "175535.375000", "175536.865000", "175538.355000", "175539.845000", "175541.335000", "175542.825000", "175544.315000", "175545.805000", "175547.295000", "175548.785000", "175550.275000", "175551.765000", "175553.255000", "175554.745000", "175556.235000", "175557.725000", "175559.215000", "175600.705000", "175602.195000", "175603.685000", "175605.175000", "175606.665000", "175608.155000", "175609.645000", "175611.135000", "175612.625000", "175614.115000", "175615.605000", "175617.095000", "175618.585000", "175620.075000", "175621.565000", "175623.055000", "175624.545000", "175626.035000", "175627.525000", "175629.015000", "175630.505000", "175631.995000", "175633.485000", "175634.975000", "175636.465000", "175637.955000", "175639.445000", "175640.935000", "175642.425000", "175643.915000", "175645.405000", "175646.895000", "175648.385000", "175649.875000", "175651.365000", "175652.855000", "175654.345000", "175655.835000", "175657.325000", "175658.815000", "175700.305000", "175701.795000", "175703.285000", "175704.775000", "175706.265000", "175707.755000", "175709.245000", "175710.735000", "175712.225000", "175713.715000", "175715.205000", "175716.695000", "175718.185000", "175719.675000", "175721.165000", "175722.655000", "175724.145000", "175725.635000", "175727.125000", "175728.615000", "175730.105000", "175731.595000", "175733.085000", "175734.575000", "175736.065000", "175737.555000", "175739.045000", "175740.535000", "175742.025000", "175743.515000", "175745.005000", "175746.495000", "175747.985000", "175749.475000", "175750.965000", "175752.455000", "175753.945000", "175755.435000", "175756.925000", "175758.415000", "175759.905000", "175801.395000", "175802.885000", "175804.375000", "175805.865000", "175807.355000", "175808.845000", "175810.335000", "175811.825000", "175813.315000", "175814.805000", "175816.295000", "175817.785000", "175819.275000", "175820.765000", "175822.255000", "175823.745000", "175825.235000", "175826.725000", "175828.215000", "175829.705000", "175831.195000", "175832.685000", "175834.175000", "175835.665000", "175837.155000", "175838.645000", "175840.135000", "175841.625000", "175843.115000", "175844.605000", "175846.095000", "175847.585000", "175849.075000", "175850.565000", "175852.055000", "175853.545000", "175855.035000", "175856.525000", "175858.015000", "175859.505000", "175900.995000", "175902.485000", "175903.975000", "175905.465000", "175906.955000", "175908.445000", "175909.935000", "175911.425000", "175912.915000", "175914.405000", "175915.895000", "175917.385000", "175918.875000", "175920.365000", "175921.855000", "175923.345000", "175924.835000", "175926.325000", "175927.815000", "175929.305000", "175930.795000", "175932.285000", "175933.775000", "175935.265000", "175936.755000", "175938.245000", "175939.735000", "175941.225000", "175942.715000", "175944.205000", "175945.695000", "175947.185000", "175948.675000", "175950.165000", "175951.655000", "175953.145000", "175954.635000", "175956.125000", "175957.615000", "175959.105000", "180000.595000", "180002.085000", "180003.575000", "180005.065000", "180006.555000", "180008.045000", "180009.535000", "180011.025000", "180012.515000", "180014.005000", "180015.495000", "180016.985000", "180018.475000", "180019.965000", "180021.455000", "180022.945000", "180024.435000", "180025.925000", "180027.415000", "180028.905000", "180030.395000", "180031.885000", "180033.375000", "180034.865000", "180036.355000", "180037.845000", "180039.335000", "180040.825000", "180042.315000", "180043.805000", "180045.295000", "180046.785000", "180048.275000", "180049.765000", "180051.255000", "180052.745000", "180054.235000", "180055.725000", "180057.215000", "180058.705000", "180100.195000", "180101.685000"],
      "ContentTime": ["174913.206000", "174913.209000", "174913.212000", "174913.215000", "174913.218000", "174913.221000", "174913.224000", "174913.227000", "174913.230000", "174913.233000", "174913.236000", "174913.239000", "174913.242000", "174913.250000", "174913.253000", "174913.256000", "174913.258000", "174913.261000", "174913.264000", "174913.267000", "174913.270000", "174913.273000", "174913.276000", "174913.279000", "174913.282000", "174913.291000", "174913.294000", "174913.297000", "174933.178000", "174933.181000", "174933.184000", "174933.187000", "174933.190000", "174933.201000", "174933.203000", "174933.206000", "174933.209000", "174933.212000", "174933.215000", "174933.218000", "174933.221000", "174933.224000", "174933.227000", "174933.229000", "174933.232000", "174933.235000", "174933.238000", "174933.241000", "174953.177000", "174953.180000", "174953.183000", "174953.186000", "174953.189000", "174953.192000", "174953.194000", "174953.197000", "174953.200000", "174953.203000", "174953.206000", "174953.209000", "174953.212000", "174953.217000", "174953.220000", "174953.222000", "174953.225000", "174953.228000", "174953.231000", "174953.234000", "175013.177000", "175013.180000", "175013.183000", "175013.186000", "175013.189000", "175013.192000", "175013.195000", "175013.197000", "175013.208000", "175013.210000", "175013.213000", "175013.216000", "175013.219000", "175013.222000", "175013.225000", "175013.228000", "175013.231000", "175013.234000", "175013.237000", "175013.240000", "175013.242000", "175053.177000", "175053.180000", "175053.183000", "175053.186000", "175053.189000", "175053.192000", "175053.196000", "175053.199000", "175053.202000", "175053.205000", "175053.208000", "175053.211000", "175053.214000", "175053.228000", "175053.231000", "175053.234000", "175053.237000", "175053.240000", "175053.243000", "175053.246000", "175053.249000", "175053.252000", "175053.255000", "175053.257000", "175053.260000", "175053.263000", "175053.266000", "175053.269000", "175053.272000", "175053.275000", "175053.278000", "175133.178000", "175133.181000", "175133.184000", "175133.187000", "175133.190000", "175133.193000", "175133.196000", "175133.198000", "175133.201000", "175133.204000", "175133.207000", "175133.210000", "175133.213000", "175133.216000", "175133.219000", "175133.222000", "175133.225000", "175133.227000", "175133.230000", "175133.233000", "175133.236000", "175133.239000", "175133.242000", "175133.245000", "175133.248000", "175133.251000", "175133.254000", "175213.177000", "175213.180000", "175213.183000", "175213.186000", "175213.189000", "175213.192000", "175213.195000", "175213.198000", "175213.200000", "175213.203000", "175213.206000", "175213.209000", "175213.212000", "175213.215000", "175213.218000", "175213.221000", "175213.224000", "175213.227000", "175213.230000", "175213.233000", "175213.235000", "175213.238000", "175213.241000", "175213.244000", "175213.247000", "175213.250000", "175213.253000", "175253.178000", "175253.181000", "175253.184000", "175253.187000", "175253.190000", "175253.193000", "175253.196000", "175253.199000", "175253.202000", "175253.205000", "175253.208000", "175253.211000", "175253.213000", "175253.216000", "175253.219000", "175253.222000", "175253.225000", "175253.228000", "175253.231000", "175253.234000", "175253.237000", "175253.240000", "175253.243000", "175253.245000", "175253.248000", "175253.251000", "175253.254000", "175333.177000", "175333.180000", "175333.183000", "175333.186000", "175333.189000", "175333.192000", "175333.195000", "175333.197000", "175333.200000", "175333.203000", "175333.206000", "175333.209000", "175333.212000", "175333.215000", "175333.218000", "175333.221000", "175333.223000", "175333.226000", "175333.229000", "175333.232000", "175333.235000", "175333.238000", "175333.241000", "175333.244000", "175333.247000", "175333.250000", "175333.253000", "175413.178000", "175413.181000", "175413.184000", "175413.187000", "175413.190000", "175413.193000", "175413.196000", "175413.199000", "175413.201000", "175413.204000", "175413.207000", "175413.210000", "175413.213000", "175413.216000", "175413.219000", "175413.222000", "175413.225000", "175413.228000", "175413.230000", "175413.233000", "175413.236000", "175413.239000", "175413.242000", "175413.245000", "175413.248000", "175413.256000", "175413.259000", "175453.177000", "175453.180000", "175453.183000", "175453.186000", "175453.189000", "175453.192000", "175453.195000", "175453.198000", "175453.201000", "175453.203000", "175453.206000", "175453.209000", "175453.231000", "175453.234000", "175453.236000", "175453.239000", "175453.242000", "175453.245000", "175453.248000", "175453.251000", "175453.254000", "175453.257000", "175453.260000", "175453.263000", "175453.265000", "175453.268000", "175453.271000", "175533.178000", "175533.181000", "175533.184000", "175533.187000", "175533.190000", "175533.193000", "175533.196000", "175533.199000", "175533.202000", "175533.205000", "175533.207000", "175533.210000", "175533.213000", "175533.216000", "175533.219000", "175533.222000", "175533.225000", "175533.228000", "175533.231000", "175533.234000", "175533.237000", "175533.240000", "175533.242000", "175533.245000", "175533.248000", "175533.251000", "175613.178000", "175613.181000", "175613.184000", "175613.187000", "175613.190000", "175613.193000", "175613.195000", "175613.198000", "175613.201000", "175613.204000", "175613.207000", "175613.210000", "175613.213000", "175613.216000", "175613.219000", "175613.222000", "175613.225000", "175613.228000", "175613.231000", "175613.233000", "175613.236000", "175613.239000", "175613.242000", "175613.245000", "175613.248000", "175613.251000", "175613.254000", "175653.177000", "175653.180000", "175653.183000", "175653.186000", "175653.189000", "175653.192000", "175653.195000", "175653.198000", "175653.201000", "175653.204000", "175653.207000", "175653.210000", "175653.213000", "175653.216000", "175653.219000", "175653.222000", "175653.225000", "175653.228000", "175653.231000", "175653.234000", "175653.237000", "175653.239000", "175653.242000", "175653.245000", "175653.248000", "175653.251000", "175653.254000", "175733.177000", "175733.180000", "175733.183000", "175733.186000", "175733.189000", "175733.192000", "175733.195000", "175733.198000", "175733.201000", "175733.203000", "175733.206000", "175733.209000", "175733.212000", "175733.215000", "175733.218000", "175733.221000", "175733.224000", "175733.227000", "175733.230000", "175733.233000", "175733.236000", "175733.238000", "175733.241000", "175733.244000", "175733.247000", "175733.250000", "175733.253000", "175813.177000", "175813.180000", "175813.183000", "175813.186000", "175813.189000", "175813.192000", "175813.217000", "175813.220000", "175813.223000", "175813.226000", "175813.229000", "175813.232000", "175813.234000", "175813.237000", "175813.240000", "175813.243000", "175813.246000", "175813.249000", "175813.253000", "175813.256000", "175813.259000", "175813.262000", "175813.264000", "175813.267000", "175813.270000", "175813.273000", "175813.276000", "175853.177000", "175853.180000", "175853.183000", "175853.186000", "175853.189000", "175853.192000", "175853.195000", "175853.198000", "175853.200000", "175853.203000", "175853.206000", "175853.209000", "175853.212000", "175853.215000", "175853.218000", "175853.221000", "175853.224000", "175853.227000", "175853.230000", "175853.233000", "175853.236000", "175853.238000", "175853.241000", "175853.244000", "175853.247000", "175853.250000", "175853.253000", "175933.177000", "175933.180000", "175933.183000", "175933.186000", "175933.189000", "175933.193000", "175933.196000", "175933.199000", "175933.203000", "175933.206000", "175933.208000", "175933.211000", "175933.229000", "175933.233000", "175933.235000", "175933.238000", "175933.241000", "175933.244000", "175933.247000", "175933.250000", "175933.253000", "175933.256000", "175933.259000", "175933.261000", "175933.264000", "175933.267000", "180013.177000", "180013.312000", "180013.315000", "180013.318000", "180013.320000", "180013.323000", "180013.326000", "180013.329000", "180013.332000", "180013.335000", "180013.338000", "180013.341000", "180013.344000", "180013.347000", "180013.350000", "180013.353000", "180013.356000", "180013.359000", "180013.362000", "180013.364000", "180013.367000", "180013.370000", "180013.373000", "180013.376000", "180013.379000", "180013.382000", "180013.385000", "180053.178000", "180053.181000", "180053.184000", "180053.187000", "180053.190000", "180053.193000", "180053.196000", "180053.199000", "180053.202000", "180053.204000", "180053.207000", "180053.210000", "180053.213000", "180053.216000", "180053.219000", "180053.222000", "180053.225000", "180053.228000", "180053.231000", "180053.234000", "180053.237000", "180053.240000", "180053.242000", "180053.245000", "180053.248000", "180053.251000", "180053.254000", "180104.142000", "180104.145000", "180104.148000", "180104.151000", "180104.154000", "180104.157000", "180104.160000", "180104.163000"],
