{
  "AcquisitionMatrixPE": 104,
  "AcquisitionNumber": 1,
  "AcquisitionTime": "19:04:8.027500",
  "BandwidthPerPixelPhaseEncode": 17.17,
  "BaseResolution": 104,
  "BodyPartExamined": "BRAIN",
  "CoilString": "HC1-7;NC1_2",
  "ConsistencyInfo": "N4_VE11C_LATEST_20160120",
  "ConversionSoftware": "dcm2niix",
  "ConversionSoftwareVersion": "v1.0.20190902",
  "DerivedVendorReportedEchoSpacing": 0.000560011,
  "DeviceSerialNumber": "167006",
  "DwellTime": 2.1e-06,
  "EchoTime": 0.037,
  "EchoTrainLength": 104,
  "EffectiveEchoSpacing": 0.000560011,
  "FlipAngle": 52,
  "HeudiconvVersion": "0.10.0",
  "ImageComments": "Unaliased_MB4_PE3_LB",
  "ImageOrientationPatientDICOM": [0.998802, -0.0485271, -0.0063397, 0.0429101, 0.930659, -0.363362],
  "ImageType": [
    "ORIGINAL",
    "PRIMARY",
    "M",
    "MB",
    "ND",
    "MOSAIC"
],
  "ImagingFrequency": 123.259,
  "InPlanePhaseEncodingDirectionDICOM": "COL",
  "InstitutionAddress": "Chemin_Queen-Mary_4565_Montreal_District_CA_H3W_1W5",
  "InstitutionName": "IUGM",
  "InstitutionalDepartmentName": "Department",
  "MRAcquisitionType": "2D",
  "MagneticFieldStrength": 3,
  "Manufacturer": "Siemens",
  "ManufacturersModelName": "Prisma_fit",
  "Modality": "MR",
  "MultibandAccelerationFactor": 4,
  "PartialFourier": 1,
  "PatientPosition": "HFS",
  "PercentPhaseFOV": 100,
  "PhaseEncodingDirection": "j",
  "PhaseEncodingSteps": 104,
  "PhaseResolution": 1,
  "PixelBandwidth": 2290,
  "ProcedureStepDescription": "video_friends",
  "ProtocolName": "func_task-friends-s05e05b",
  "PulseSequenceDetails": "%CustomerSeq%_cmrr_mbep2d_bold",
  "ReceiveCoilActiveElements": "HC1-7;NC1,2",
  "ReceiveCoilName": "HeadNeck_64",
  "ReconMatrixPE": 104,
  "RepetitionTime": 1.49,
  "SAR": 0.0362954,
  "ScanOptions": "FS",
  "ScanningSequence": "EP",
  "SequenceName": "epfid2d1_104",
  "SequenceVariant": "SK_SS",
  "SeriesDescription": "func_task-friends-s05e05b",
  "SeriesNumber": 27,
  "ShimSetting": [618, -7287, -8799, 491, 8, -393, 37, 42],
  "SliceThickness": 2,
  "SliceTiming": [0, 0.785, 0.0975, 0.8825, 0.195, 0.98, 0.295, 1.0775, 0.3925, 1.175, 0.49, 1.275, 0.5875, 1.3725, 0.685, 0, 0.785, 0.0975, 0.8825, 0.195, 0.98, 0.295, 1.0775, 0.3925, 1.175, 0.49, 1.275, 0.5875, 1.3725, 0.685, 0, 0.785, 0.0975, 0.8825, 0.195, 0.98, 0.295, 1.0775, 0.3925, 1.175, 0.49, 1.275, 0.5875, 1.3725, 0.685, 0, 0.785, 0.0975, 0.8825, 0.195, 0.98, 0.295, 1.0775, 0.3925, 1.175, 0.49, 1.275, 0.5875, 1.3725, 0.685],
  "SoftwareVersions": "syngo_MR_E11",
  "SpacingBetweenSlices": 2,
  "StationName": "MRC35049",
  "TaskName": "s05e05b",
  "TotalReadoutTime": 0.0576811,
  "TxRefAmp": 238.692,
  "WipMemBlock": "1a9943c7-6377-4d42-89c4-c11099826dd6||Sequence: R016 ve11c/master r/e634e98; Dec 19 2017 11:00:25 by eja",
  "dcmmeta_affine": [
    [-1.9976035356521606, 0.08582010120153427, -0.047066010534763336, 96.78439331054688],
    [0.09705427289009094, 1.861318826675415, -0.7253085970878601, -76.20880889892578],
    [-0.012679396197199821, 0.7267234921455383, 1.863253116607666, -54.631744384765625],
    [0.0, 0.0, 0.0, 1.0]
],
  "dcmmeta_reorient_transform": [
    [0.0, -1.0, 0.0, 103.0],
    [1.0, 0.0, 0.0, 0.0],
    [0.0, 0.0, 1.0, 0.0],
    [0.0, 0.0, 0.0, 1.0]
],
  "dcmmeta_shape": [104, 104, 60, 521],
  "dcmmeta_slice_dim": 2,
  "dcmmeta_version": 0.6,
  "global": {
    "const": {
      "AcquisitionMatrix": [104, 0, 0, 104],
      "AngioFlag": "N",
      "BitsAllocated": 16,
      "BitsStored": 16,
      "BodyPartExamined": "BRAIN",
      "Columns": 832,
      "EchoNumbers": 1,
      "EchoTime": 37.0,
      "EchoTrainLength": 104,
      "FlipAngle": 52.0,
      "HighBit": 15,
      "ImageOrientationPatient": [0.99880174477239, -0.0485271353911, -0.0063396979714, 0.04291004937916, 0.93065942539998, -0.3633617502936],
      "ImagePositionPatient": [-863.99005038439, -757.6993374279, 289.36342883953],
      "ImageType": [
        "ORIGINAL",
        "PRIMARY",
        "M",
        "MB",
        "ND",
        "MOSAIC"
],
      "ImagedNucleus": "1H",
      "ImagingFrequency": 123.258914,
      "InPlanePhaseEncodingDirection": "COL",
      "MRAcquisitionType": "2D",
      "MagneticFieldStrength": 3.0,
      "Manufacturer": "SIEMENS",
      "ManufacturerModelName": "Prisma_fit",
      "Modality": "MR",
      "NumberOfAverages": 1.0,
      "NumberOfPhaseEncodingSteps": 104,
      "PercentPhaseFieldOfView": 100.0,
      "PercentSampling": 100.0,
      "PerformedProcedureStepStartTime": "163558.791000",
      "PhotometricInterpretation": "MONOCHROME2",
      "PixelBandwidth": 2290.0,
      "PixelRepresentation": 0,
      "PixelSpacing": [2.0, 2.0],
      "ProtocolName": "func_task-friends-s05e05b",
      "RepetitionTime": 1490.0,
      "Rows": 832,
      "SAR": 0.0362953706755,
      "SamplesPerPixel": 1,
      "ScanOptions": "FS",
      "ScanningSequence": "EP",
      "SequenceName": "epfid2d1_104",
      "SequenceVariant": [
        "SK",
        "SS"
],
      "SeriesDescription": "func_task-friends-s05e05b",
      "SeriesNumber": 27,
      "SeriesTime": "190533.222000",
      "SliceLocation": -25.536559061191,
      "SliceThickness": 2.0,
      "SmallestImagePixelValue": 0,
      "SoftwareVersions": "syngo MR E11",
      "SpacingBetweenSlices": 1.9999999934882,
      "SpecificCharacterSet": "ISO_IR 100",
      "StudyID": "1",
      "StudyTime": "163558.733000",
      "TransmitCoilName": "Body",
      "VariableFlipAngleFlag": "N",
      "WindowCenterWidthExplanation": "Algo1",
      "dBdt": 0.0},
    "slices": {}
  },
  "time": {
    "samples": {
      "AcquisitionNumber": [1, 2, 3, 4, 5, 6, 7, 8, 9, 10, 11, 12, 13, 14, 15, 16, 17, 18, 19, 20, 21, 22, 23, 24, 25, 26, 27, 28, 29, 30, 31, 32, 33, 34, 35, 36, 37, 38, 39, 40, 41, 42, 43, 44, 45, 46, 47, 48, 49, 50, 51, 52, 53, 54, 55, 56, 57, 58, 59, 60, 61, 62, 63, 64, 65, 66, 67, 68, 69, 70, 71, 72, 73, 74, 75, 76, 77, 78, 79, 80, 81, 82, 83, 84, 85, 86, 87, 88, 89, 90, 91, 92, 93, 94, 95, 96, 97, 98, 99, 100, 101, 102, 103, 104, 105, 106, 107, 108, 109, 110, 111, 112, 113, 114, 115, 116, 117, 118, 119, 120, 121, 122, 123, 124, 125, 126, 127, 128, 129, 130, 131, 132, 133, 134, 135, 136, 137, 138, 139, 140, 141, 142, 143, 144, 145, 146, 147, 148, 149, 150, 151, 152, 153, 154, 155, 156, 157, 158, 159, 160, 161, 162, 163, 164, 165, 166, 167, 168, 169, 170, 171, 172, 173, 174, 175, 176, 177, 178, 179, 180, 181, 182, 183, 184, 185, 186, 187, 188, 189, 190, 191, 192, 193, 194, 195, 196, 197, 198, 199, 200, 201, 202, 203, 204, 205, 206, 207, 208, 209, 210, 211, 212, 213, 214, 215, 216, 217, 218, 219, 220, 221, 222, 223, 224, 225, 226, 227, 228, 229, 230, 231, 232, 233, 234, 235, 236, 237, 238, 239, 240, 241, 242, 243, 244, 245, 246, 247, 248, 249, 250, 251, 252, 253, 254, 255, 256, 257, 258, 259, 260, 261, 262, 263, 264, 265, 266, 267, 268, 269, 270, 271, 272, 273, 274, 275, 276, 277, 278, 279, 280, 281, 282, 283, 284, 285, 286, 287, 288, 289, 290, 291, 292, 293, 294, 295, 296, 297, 298, 299, 300, 301, 302, 303, 304, 305, 306, 307, 308, 309, 310, 311, 312, 313, 314, 315, 316, 317, 318, 319, 320, 321, 322, 323, 324, 325, 326, 327, 328, 329, 330, 331, 332, 333, 334, 335, 336, 337, 338, 339, 340, 341, 342, 343, 344, 345, 346, 347, 348, 349, 350, 351, 352, 353, 354, 355, 356, 357, 358, 359, 360, 361, 362, 363, 364, 365, 366, 367, 368, 369, 370, 371, 372, 373, 374, 375, 376, 377, 378, 379, 380, 381, 382, 383, 384, 385, 386, 387, 388, 389, 390, 391, 392, 393, 394, 395, 396, 397, 398, 399, 400, 401, 402, 403, 404, 405, 406, 407, 408, 409, 410, 411, 412, 413, 414, 415, 416, 417, 418, 419, 420, 421, 422, 423, 424, 425, 426, 427, 428, 429, 430, 431, 432, 433, 434, 435, 436, 437, 438, 439, 440, 441, 442, 443, 444, 445, 446, 447, 448, 449, 450, 451, 452, 453, 454, 455, 456, 457, 458, 459, 460, 461, 462, 463, 464, 465, 466, 467, 468, 469, 470, 471, 472, 473, 474, 475, 476, 477, 478, 479, 480, 481, 482, 483, 484, 485, 486, 487, 488, 489, 490, 491, 492, 493, 494, 495, 496, 497, 498, 499, 500, 501, 502, 503, 504, 505, 506, 507, 508, 509, 510, 511, 512, 513, 514, 515, 516, 517, 518, 519, 520, 521],
      "AcquisitionTime": ["190408.027500", "190409.517500", "190411.007500", "190412.497500", "190413.987500", "190415.477500", "190416.967500", "190418.457500", "190419.947500", "190421.437500", "190422.927500", "190424.417500", "190425.907500", "190427.397500", "190428.887500", "190430.377500", "190431.867500", "190433.357500", "190434.847500", "190436.337500", "190437.827500", "190439.317500", "190440.807500", "190442.297500", "190443.787500", "190445.277500", "190446.767500", "190448.257500", "190449.747500", "190451.237500", "190452.727500", "190454.217500", "190455.707500", "190457.197500", "190458.687500", "190500.177500", "190501.667500", "190503.157500", "190504.647500", "190506.137500", "190507.627500", "190509.117500", "190510.607500", "190512.097500", "190513.587500", "190515.077500", "190516.567500", "190518.057500", "190519.547500", "190521.037500", "190522.527500", "190524.017500", "190525.507500", "190526.997500", "190528.487500", "190529.977500", "190531.467500", "190532.957500", "190534.447500", "190535.937500", "190537.427500", "190538.917500", "190540.407500", "190541.897500", "190543.387500", "190544.877500", "190546.367500", "190547.857500", "190549.347500", "190550.837500", "190552.327500", "190553.817500", "190555.307500", "190556.797500", "190558.287500", "190559.777500", "190601.267500", "190602.757500", "190604.247500", "190605.737500", "190607.227500", "190608.717500", "190610.207500", "190611.697500", "190613.187500", "190614.677500", "190616.167500", "190617.657500", "190619.147500", "190620.637500", "190622.127500", "190623.617500", "190625.107500", "190626.597500", "190628.087500", "190629.577500", "190631.067500", "190632.557500", "190634.047500", "190635.537500", "190637.027500", "190638.517500", "190640.007500", "190641.497500", "190642.987500", "190644.477500", "190645.967500", "190647.457500", "190648.947500", "190650.437500", "190651.927500", "190653.417500", "190654.907500", "190656.397500", "190657.887500", "190659.377500", "190700.867500", "190702.357500", "190703.847500", "190705.337500", "190706.827500", "190708.317500", "190709.807500", "190711.297500", "190712.787500", "190714.277500", "190715.767500", "190717.257500", "190718.747500", "190720.237500", "190721.727500", "190723.217500", "190724.707500", "190726.197500", "190727.687500", "190729.177500", "190730.667500", "190732.157500", "190733.647500", "190735.137500", "190736.627500", "190738.117500", "190739.607500", "190741.097500", "190742.587500", "190744.077500", "190745.567500", "190747.057500", "190748.547500", "190750.037500", "190751.527500", "190753.017500", "190754.507500", "190755.997500", "190757.487500", "190758.977500", "190800.467500", "190801.957500", "190803.447500", "190804.937500", "190806.427500", "190807.917500", "190809.407500", "190810.897500", "190812.387500", "190813.877500", "190815.367500", "190816.857500", "190818.347500", "190819.837500", "190821.327500", "190822.817500", "190824.307500", "190825.797500", "190827.287500", "190828.777500", "190830.267500", "190831.757500", "190833.247500", "190834.737500", "190836.227500", "190837.717500", "190839.207500", "190840.697500", "190842.187500", "190843.677500", "190845.167500", "190846.657500", "190848.147500", "190849.637500", "190851.127500", "190852.617500", "190854.107500", "190855.597500", "190857.087500", "190858.577500", "190900.067500", "190901.557500", "190903.047500", "190904.537500", "190906.027500", "190907.517500", "190909.007500", "190910.497500", "190911.987500", "190913.477500", "190914.967500", "190916.457500", "190917.947500", "190919.437500", "190920.927500", "190922.417500", "190923.907500", "190925.397500", "190926.887500", "190928.377500", "190929.867500", "190931.357500", "190932.847500", "190934.337500", "190935.827500", "190937.317500", "190938.807500", "190940.297500", "190941.787500", "190943.277500", "190944.767500", "190946.257500", "190947.747500", "190949.237500", "190950.727500", "190952.217500", "190953.707500", "190955.197500", "190956.687500", "190958.177500", "190959.667500", "191001.157500", "191002.647500", "191004.137500", "191005.627500", "191007.117500", "191008.607500", "191010.097500", "191011.587500", "191013.077500", "191014.567500", "191016.057500", "191017.547500", "191019.037500", "191020.527500", "191022.017500", "191023.507500", "191024.997500", "191026.487500", "191027.977500", "191029.467500", "191030.957500", "191032.447500", "191033.937500", "191035.427500", "191036.917500", "191038.407500", "191039.897500", "191041.387500", "191042.877500", "191044.367500", "191045.857500", "191047.347500", "191048.837500", "191050.327500", "191051.817500", "191053.307500", "191054.797500", "191056.287500", "191057.777500", "191059.267500", "191100.757500", "191102.247500", "191103.737500", "191105.227500", "191106.717500", "191108.207500", "191109.697500", "191111.187500", "191112.677500", "191114.167500", "191115.657500", "191117.147500", "191118.637500", "191120.127500", "191121.617500", "191123.107500", "191124.597500", "191126.087500", "191127.577500", "191129.067500", "191130.557500", "191132.047500", "191133.537500", "191135.027500", "191136.517500", "191138.007500", "191139.497500", "191140.987500", "191142.477500", "191143.967500", "191145.457500", "191146.947500", "191148.437500", "191149.927500", "191151.417500", "191152.907500", "191154.397500", "191155.887500", "191157.377500", "191158.867500", "191200.357500", "191201.847500", "191203.337500", "191204.827500", "191206.317500", "191207.807500", "191209.297500", "191210.787500", "191212.277500", "191213.767500", "191215.257500", "191216.747500", "191218.237500", "191219.727500", "191221.217500", "191222.707500", "191224.197500", "191225.687500", "191227.177500", "191228.667500", "191230.157500", "191231.647500", "191233.137500", "191234.627500", "191236.117500", "191237.607500", "191239.097500", "191240.587500", "191242.077500", "191243.567500", "191245.057500", "191246.547500", "191248.037500", "191249.527500", "191251.017500", "191252.507500", "191253.997500", "191255.487500", "191256.977500", "191258.467500", "191259.957500", "191301.447500", "191302.937500", "191304.427500", "191305.917500", "191307.407500", "191308.897500", "191310.387500", "191311.877500", "191313.367500", "191314.857500", "191316.347500", "191317.837500", "191319.327500", "191320.817500", "191322.307500", "191323.797500", "191325.287500", "191326.777500", "191328.267500", "191329.757500", "191331.247500", "191332.737500", "191334.227500", "191335.717500", "191337.207500", "191338.697500", "191340.187500", "191341.677500", "191343.167500", "191344.657500", "191346.147500", "191347.637500", "191349.127500", "191350.617500", "191352.107500", "191353.597500", "191355.087500", "191356.577500", "191358.067500", "191359.557500", "191401.047500", "191402.537500", "191404.027500", "191405.517500", "191407.007500", "191408.497500", "191409.987500", "191411.477500", "191412.967500", "191414.457500", "191415.947500", "191417.437500", "191418.927500", "191420.417500", "191421.907500", "191423.397500", "191424.887500", "191426.377500", "191427.867500", "191429.357500", "191430.847500", "191432.337500", "191433.827500", "191435.317500", "191436.807500", "191438.297500", "191439.787500", "191441.277500", "191442.767500", "191444.257500", "191445.747500", "191447.237500", "191448.727500", "191450.217500", "191451.707500", "191453.197500", "191454.687500", "191456.177500", "191457.667500", "191459.157500", "191500.647500", "191502.137500", "191503.627500", "191505.117500", "191506.607500", "191508.097500", "191509.587500", "191511.077500", "191512.567500", "191514.057500", "191515.547500", "191517.037500", "191518.527500", "191520.017500", "191521.507500", "191522.997500", "191524.487500", "191525.977500", "191527.467500", "191528.957500", "191530.447500", "191531.937500", "191533.427500", "191534.917500", "191536.407500", "191537.897500", "191539.387500", "191540.877500", "191542.367500", "191543.857500", "191545.347500", "191546.837500", "191548.327500", "191549.817500", "191551.307500", "191552.797500", "191554.287500", "191555.777500", "191557.267500", "191558.757500", "191600.247500", "191601.737500", "191603.227500", "191604.717500", "191606.207500", "191607.697500", "191609.187500", "191610.677500", "191612.167500", "191613.657500", "191615.147500", "191616.637500", "191618.127500", "191619.617500", "191621.107500", "191622.597500", "191624.087500", "191625.577500", "191627.067500", "191628.557500", "191630.047500", "191631.537500", "191633.027500", "191634.517500", "191636.007500", "191637.497500", "191638.987500", "191640.477500", "191641.967500", "191643.457500", "191644.947500", "191646.437500", "191647.927500", "191649.417500", "191650.907500", "191652.397500", "191653.887500", "191655.377500", "191656.867500", "191658.357500", "191659.847500", "191701.337500", "191702.827500"],
      "ContentTime": ["190533.224000", "190533.228000", "190533.231000", "190533.234000", "190533.237000", "190533.240000", "190533.243000", "190533.246000", "190533.248000", "190533.251000", "190533.254000", "190533.257000", "190533.263000", "190533.266000", "190533.269000", "190533.272000", "190533.275000", "190533.278000", "190533.281000", "190533.283000", "190533.286000", "190533.289000", "190533.292000", "190533.295000", "190533.298000", "190533.301000", "190533.304000", "190533.307000", "190533.310000", "190533.313000", "190533.315000", "190533.318000", "190553.178000", "190553.181000", "190553.184000", "190553.187000", "190553.190000", "190553.193000", "190553.195000", "190553.198000", "190553.202000", "190553.205000", "190553.208000", "190553.211000", "190553.214000", "190553.217000", "190553.220000", "190553.223000", "190553.226000", "190553.228000", "190553.231000", "190553.234000", "190613.177000", "190613.189000", "190613.192000", "190613.195000", "190613.198000", "190613.201000", "190613.218000", "190613.221000", "190613.224000", "190613.227000", "190613.230000", "190613.233000", "190613.236000", "190613.239000", "190613.242000", "190613.245000", "190613.247000", "190613.250000", "190613.253000", "190613.256000", "190633.177000", "190633.180000", "190633.183000", "190633.186000", "190633.189000", "190633.192000", "190633.194000", "190633.197000", "190633.200000", "190633.209000", "190633.212000", "190633.215000", "190633.217000", "190633.220000", "190633.223000", "190633.226000", "190633.229000", "190633.232000", "190633.235000", "190633.238000", "190713.177000", "190713.180000", "190713.183000", "190713.186000", "190713.197000", "190713.200000", "190713.203000", "190713.205000", "190713.208000", "190713.211000", "190713.214000", "190713.217000", "190713.220000", "190713.223000", "190713.239000", "190713.242000", "190713.244000", "190713.247000", "190713.250000", "190713.253000", "190713.256000", "190713.259000", "190713.262000", "190713.265000", "190713.268000", "190713.270000", "190713.273000", "190713.276000", "190713.279000", "190713.282000", "190713.285000", "190753.178000", "190753.189000", "190753.192000", "190753.195000", "190753.198000", "190753.201000", "190753.204000", "190753.207000", "190753.210000", "190753.213000", "190753.216000", "190753.218000", "190753.221000", "190753.224000", "190753.227000", "190753.230000", "190753.233000", "190753.236000", "190753.239000", "190753.242000", "190753.244000", "190753.247000", "190753.250000", "190753.253000", "190753.256000", "190753.259000", "190753.262000", "190833.177000", "190833.274000", "190833.277000", "190833.280000", "190833.283000", "190833.286000", "190833.289000", "190833.292000", "190833.295000", "190833.297000", "190833.300000", "190833.303000", "190833.306000", "190833.309000", "190833.312000", "190833.315000", "190833.318000", "190833.321000", "190833.324000", "190833.327000", "190833.330000", "190833.333000", "190833.335000", "190833.338000", "190833.341000", "190833.344000", "190833.347000", "190913.177000", "190913.180000", "190913.183000", "190913.186000", "190913.189000", "190913.192000", "190913.195000", "190913.198000", "190913.200000", "190913.203000", "190913.206000", "190913.209000", "190913.212000", "190913.215000", "190913.218000", "190913.221000", "190913.224000", "190913.227000", "190913.230000", "190913.233000", "190913.236000", "190913.239000", "190913.241000", "190913.244000", "190913.247000", "190913.250000", "190913.253000", "190953.177000", "190953.180000", "190953.183000", "190953.187000", "190953.190000", "190953.193000", "190953.196000", "190953.199000", "190953.202000", "190953.205000", "190953.208000", "190953.211000", "190953.213000", "190953.216000", "190953.219000", "190953.222000", "190953.225000", "190953.228000", "190953.231000", "190953.234000", "190953.237000", "190953.240000", "190953.243000", "190953.246000", "190953.249000", "190953.251000", "191013.196000", "191013.200000", "191013.203000", "191013.205000", "191013.208000", "191013.211000", "191013.214000", "191013.217000", "191013.220000", "191013.223000", "191013.226000", "191013.229000", "191013.232000", "191013.234000", "191053.177000", "191053.184000", "191053.187000", "191053.190000", "191053.193000", "191053.195000", "191053.198000", "191053.201000", "191053.204000", "191053.207000", "191053.210000", "191053.213000", "191053.216000", "191053.219000", "191053.222000", "191053.224000", "191053.227000", "191053.230000", "191053.233000", "191053.236000", "191053.239000", "191053.242000", "191053.245000", "191053.248000", "191053.251000", "191053.254000", "191053.257000", "191133.177000", "191133.180000", "191133.183000", "191133.186000", "191133.189000", "191133.192000", "191133.195000", "191133.198000", "191133.200000", "191133.203000", "191133.206000", "191133.209000", "191133.212000", "191133.215000", "191133.218000", "191133.221000", "191133.224000", "191133.227000", "191133.230000", "191133.233000", "191133.236000", "191133.238000", "191133.241000", "191133.258000", "191133.261000", "191133.264000", "191133.267000", "191213.177000", "191213.180000", "191213.183000", "191213.186000", "191213.189000", "191213.192000", "191213.195000", "191213.198000", "191213.201000", "191213.203000", "191213.206000", "191213.209000", "191213.212000", "191213.215000", "191213.218000", "191213.221000", "191213.224000", "191213.227000", "191213.230000", "191213.233000", "191213.236000", "191213.238000", "191213.241000", "191213.246000", "191213.249000", "191213.251000", "191253.178000", "191253.181000", "191253.184000", "191253.187000", "191253.190000", "191253.193000", "191253.196000", "191253.199000", "191253.201000", "191253.204000", "191253.207000", "191253.210000", "191253.213000", "191253.216000", "191253.219000", "191253.222000", "191253.225000", "191253.228000", "191253.231000", "191253.234000", "191253.236000", "191253.239000", "191253.242000", "191253.245000", "191253.248000", "191253.251000", "191253.254000", "191333.177000", "191333.180000", "191333.183000", "191333.186000", "191333.189000", "191333.192000", "191333.195000", "191333.198000", "191333.201000", "191333.204000", "191333.207000", "191333.210000", "191333.213000", "191333.216000", "191333.218000", "191333.221000", "191333.224000", "191333.227000", "191333.230000", "191333.233000", "191333.236000", "191333.239000", "191333.242000", "191333.245000", "191333.248000", "191333.250000", "191333.253000", "191413.177000", "191413.180000", "191413.183000", "191413.186000", "191413.189000", "191413.192000", "191413.195000", "191413.198000", "191413.201000", "191413.203000", "191413.207000", "191413.209000", "191413.212000", "191413.215000", "191413.218000", "191413.221000", "191413.224000", "191413.227000", "191413.230000", "191413.233000", "191413.236000", "191413.239000", "191413.242000", "191413.244000", "191413.247000", "191413.250000", "191413.253000", "191453.178000", "191453.190000", "191453.193000", "191453.196000", "191453.199000", "191453.202000", "191453.205000", "191453.208000", "191453.211000", "191453.214000", "191453.217000", "191453.220000", "191453.222000", "191453.225000", "191453.228000", "191453.231000", "191453.234000", "191453.237000", "191453.240000", "191453.243000", "191453.246000", "191453.249000", "191453.251000", "191453.254000", "191453.257000", "191453.260000", "191453.263000", "191533.177000", "191533.180000", "191533.183000", "191533.186000", "191533.189000", "191533.192000", "191533.195000", "191533.198000", "191533.201000", "191533.204000", "191533.207000", "191533.210000", "191533.213000", "191533.215000", "191533.219000", "191533.221000", "191533.233000", "191533.235000", "191533.238000", "191533.241000", "191533.244000", "191533.247000", "191533.250000", "191533.253000", "191533.256000", "191533.259000", "191533.262000", "191613.177000", "191613.188000", "191613.191000", "191613.194000", "191613.197000", "191613.200000", "191613.203000", "191613.206000", "191613.209000", "191613.212000", "191613.230000", "191613.232000", "191613.235000", "191613.238000", "191613.241000", "191613.244000", "191613.247000", "191613.250000", "191613.253000", "191613.256000", "191613.259000", "191613.262000", "191613.265000", "191613.268000", "191613.271000", "191613.274000", "191653.177000", "191653.180000", "191653.183000", "191653.186000", "191653.189000", "191653.192000", "191653.195000", "191653.198000", "191653.201000", "191653.204000", "191653.207000", "191653.209000", "191653.212000", "191653.215000", "191653.218000", "191653.221000", "191653.224000", "191653.227000", "191653.230000", "191653.233000", "191653.236000", "191653.239000", "191653.241000", "191653.244000", "191653.247000", "191653.250000", "191653.253000", "191705.463000", "191705.467000", "191705.470000", "191705.473000", "191705.476000", "191705.479000", "191705.482000", "191705.485000", "191705.488000"],
