{
  "AcquisitionMatrixPE": 104,
  "AcquisitionNumber": 1,
  "AcquisitionTime": "17:11:39.667500",
  "BandwidthPerPixelPhaseEncode": 17.17,
  "BaseResolution": 104,
  "BodyPartExamined": "BRAIN",
  "CoilString": "HC1-7;NC1_2",
  "ConsistencyInfo": "N4_VE11C_LATEST_20160120",
  "ConversionSoftware": "dcm2niix",
  "ConversionSoftwareVersion": "v1.0.20190902",
  "DerivedVendorReportedEchoSpacing": 0.000560011,
  "DeviceSerialNumber": "167006",
  "DwellTime": 2.1e-06,
  "EchoTime": 0.037,
  "EchoTrainLength": 104,
  "EffectiveEchoSpacing": 0.000560011,
  "FlipAngle": 52,
  "HeudiconvVersion": "0.10.0",
  "ImageComments": "Unaliased_MB4_PE3_LB",
  "ImageOrientationPatientDICOM": [0.998802, -0.0485271, -0.0063397, 0.0429101, 0.930659, -0.363362],
  "ImageType": [
    "ORIGINAL",
    "PRIMARY",
    "M",
    "MB",
    "ND",
    "MOSAIC"
],
  "ImagingFrequency": 123.259,
  "InPlanePhaseEncodingDirectionDICOM": "COL",
  "InstitutionAddress": "Chemin_Queen-Mary_4565_Montreal_District_CA_H3W_1W5",
  "InstitutionName": "IUGM",
  "InstitutionalDepartmentName": "Department",
  "MRAcquisitionType": "2D",
  "MagneticFieldStrength": 3,
  "Manufacturer": "Siemens",
  "ManufacturersModelName": "Prisma_fit",
  "Modality": "MR",
  "MultibandAccelerationFactor": 4,
  "PartialFourier": 1,
  "PatientPosition": "HFS",
  "PercentPhaseFOV": 100,
  "PhaseEncodingDirection": "j",
  "PhaseEncodingSteps": 104,
  "PhaseResolution": 1,
  "PixelBandwidth": 2290,
  "ProcedureStepDescription": "video_friends",
  "ProtocolName": "func_task-friends-s05e01a",
  "PulseSequenceDetails": "%CustomerSeq%_cmrr_mbep2d_bold",
  "ReceiveCoilActiveElements": "HC1-7;NC1,2",
  "ReceiveCoilName": "HeadNeck_64",
  "ReconMatrixPE": 104,
  "RepetitionTime": 1.49,
  "SAR": 0.0362697,
  "ScanOptions": "FS",
  "ScanningSequence": "EP",
  "SequenceName": "epfid2d1_104",
  "SequenceVariant": "SK_SS",
  "SeriesDescription": "func_task-friends-s05e01a",
  "SeriesNumber": 9,
  "ShimSetting": [618, -7287, -8799, 491, 8, -393, 37, 42],
  "SliceThickness": 2,
  "SliceTiming": [0, 0.785, 0.0975, 0.8825, 0.1975, 0.98, 0.295, 1.0775, 0.3925, 1.1775, 0.49, 1.275, 0.5875, 1.3725, 0.6875, 0, 0.785, 0.0975, 0.8825, 0.1975, 0.98, 0.295, 1.0775, 0.3925, 1.1775, 0.49, 1.275, 0.5875, 1.3725, 0.6875, 0, 0.785, 0.0975, 0.8825, 0.1975, 0.98, 0.295, 1.0775, 0.3925, 1.1775, 0.49, 1.275, 0.5875, 1.3725, 0.6875, 0, 0.785, 0.0975, 0.8825, 0.1975, 0.98, 0.295, 1.0775, 0.3925, 1.1775, 0.49, 1.275, 0.5875, 1.3725, 0.6875],
  "SoftwareVersions": "syngo_MR_E11",
  "SpacingBetweenSlices": 2,
  "StationName": "MRC35049",
  "TaskName": "s05e01a",
  "TotalReadoutTime": 0.0576811,
  "TxRefAmp": 238.692,
  "WipMemBlock": "4847b6c3-0003-4569-ba37-635e466612ef||Sequence: R016 ve11c/master r/e634e98; Dec 19 2017 11:00:25 by eja",
  "dcmmeta_affine": [
    [-1.9976035356521606, 0.08582010120153427, -0.047066010534763336, 96.78439331054688],
    [0.09705427289009094, 1.861318826675415, -0.7253085970878601, -76.20880889892578],
    [-0.012679396197199821, 0.7267234921455383, 1.863253116607666, -54.631744384765625],
    [0.0, 0.0, 0.0, 1.0]
],
  "dcmmeta_reorient_transform": [
    [0.0, -1.0, 0.0, 103.0],
    [1.0, 0.0, 0.0, 0.0],
    [0.0, 0.0, 1.0, 0.0],
    [0.0, 0.0, 0.0, 1.0]
],
  "dcmmeta_shape": [104, 104, 60, 439],
  "dcmmeta_slice_dim": 2,
  "dcmmeta_version": 0.6,
  "global": {
    "const": {
      "AcquisitionMatrix": [104, 0, 0, 104],
      "AngioFlag": "N",
      "BitsAllocated": 16,
      "BitsStored": 16,
      "BodyPartExamined": "BRAIN",
      "Columns": 832,
      "EchoNumbers": 1,
      "EchoTime": 37.0,
      "EchoTrainLength": 104,
      "FlipAngle": 52.0,
      "HighBit": 15,
      "ImageOrientationPatient": [0.99880174477239, -0.0485271353911, -0.0063396979714, 0.04291004937916, 0.93065942539998, -0.3633617502936],
      "ImagePositionPatient": [-863.99005038439, -757.6993374279, 289.36342883953],
      "ImageType": [
        "ORIGINAL",
        "PRIMARY",
        "M",
        "MB",
        "ND",
        "MOSAIC"
],
      "ImagedNucleus": "1H",
      "ImagingFrequency": 123.258878,
      "InPlanePhaseEncodingDirection": "COL",
      "MRAcquisitionType": "2D",
      "MagneticFieldStrength": 3.0,
      "Manufacturer": "SIEMENS",
      "ManufacturerModelName": "Prisma_fit",
      "Modality": "MR",
      "NumberOfAverages": 1.0,
      "NumberOfPhaseEncodingSteps": 104,
      "PercentPhaseFieldOfView": 100.0,
      "PercentSampling": 100.0,
      "PerformedProcedureStepStartTime": "163558.791000",
      "PhotometricInterpretation": "MONOCHROME2",
      "PixelBandwidth": 2290.0,
      "PixelRepresentation": 0,
      "PixelSpacing": [2.0, 2.0],
      "ProtocolName": "func_task-friends-s05e01a",
      "RepetitionTime": 1490.0,
      "Rows": 832,
      "SAR": 0.03626966668785,
      "SamplesPerPixel": 1,
      "ScanOptions": "FS",
      "ScanningSequence": "EP",
      "SequenceName": "epfid2d1_104",
      "SequenceVariant": [
        "SK",
        "SS"
],
      "SeriesDescription": "func_task-friends-s05e01a",
      "SeriesNumber": 9,
      "SeriesTime": "171333.217000",
      "SliceLocation": -25.536559061191,
      "SliceThickness": 2.0,
      "SmallestImagePixelValue": 0,
      "SoftwareVersions": "syngo MR E11",
      "SpacingBetweenSlices": 1.9999999934882,
      "SpecificCharacterSet": "ISO_IR 100",
      "StudyID": "1",
      "StudyTime": "163558.733000",
      "TransmitCoilName": "Body",
      "VariableFlipAngleFlag": "N",
      "WindowCenterWidthExplanation": "Algo1",
      "dBdt": 0.0},
    "slices": {}
  },
  "time": {
    "samples": {
      "AcquisitionNumber": [1, 2, 3, 4, 5, 6, 7, 8, 9, 10, 11, 12, 13, 14, 15, 16, 17, 18, 19, 20, 21, 22, 23, 24, 25, 26, 27, 28, 29, 30, 31, 32, 33, 34, 35, 36, 37, 38, 39, 40, 41, 42, 43, 44, 45, 46, 47, 48, 49, 50, 51, 52, 53, 54, 55, 56, 57, 58, 59, 60, 61, 62, 63, 64, 65, 66, 67, 68, 69, 70, 71, 72, 73, 74, 75, 76, 77, 78, 79, 80, 81, 82, 83, 84, 85, 86, 87, 88, 89, 90, 91, 92, 93, 94, 95, 96, 97, 98, 99, 100, 101, 102, 103, 104, 105, 106, 107, 108, 109, 110, 111, 112, 113, 114, 115, 116, 117, 118, 119, 120, 121, 122, 123, 124, 125, 126, 127, 128, 129, 130, 131, 132, 133, 134, 135, 136, 137, 138, 139, 140, 141, 142, 143, 144, 145, 146, 147, 148, 149, 150, 151, 152, 153, 154, 155, 156, 157, 158, 159, 160, 161, 162, 163, 164, 165, 166, 167, 168, 169, 170, 171, 172, 173, 174, 175, 176, 177, 178, 179, 180, 181, 182, 183, 184, 185, 186, 187, 188, 189, 190, 191, 192, 193, 194, 195, 196, 197, 198, 199, 200, 201, 202, 203, 204, 205, 206, 207, 208, 209, 210, 211, 212, 213, 214, 215, 216, 217, 218, 219, 220, 221, 222, 223, 224, 225, 226, 227, 228, 229, 230, 231, 232, 233, 234, 235, 236, 237, 238, 239, 240, 241, 242, 243, 244, 245, 246, 247, 248, 249, 250, 251, 252, 253, 254, 255, 256, 257, 258, 259, 260, 261, 262, 263, 264, 265, 266, 267, 268, 269, 270, 271, 272, 273, 274, 275, 276, 277, 278, 279, 280, 281, 282, 283, 284, 285, 286, 287, 288, 289, 290, 291, 292, 293, 294, 295, 296, 297, 298, 299, 300, 301, 302, 303, 304, 305, 306, 307, 308, 309, 310, 311, 312, 313, 314, 315, 316, 317, 318, 319, 320, 321, 322, 323, 324, 325, 326, 327, 328, 329, 330, 331, 332, 333, 334, 335, 336, 337, 338, 339, 340, 341, 342, 343, 344, 345, 346, 347, 348, 349, 350, 351, 352, 353, 354, 355, 356, 357, 358, 359, 360, 361, 362, 363, 364, 365, 366, 367, 368, 369, 370, 371, 372, 373, 374, 375, 376, 377, 378, 379, 380, 381, 382, 383, 384, 385, 386, 387, 388, 389, 390, 391, 392, 393, 394, 395, 396, 397, 398, 399, 400, 401, 402, 403, 404, 405, 406, 407, 408, 409, 410, 411, 412, 413, 414, 415, 416, 417, 418, 419, 420, 421, 422, 423, 424, 425, 426, 427, 428, 429, 430, 431, 432, 433, 434, 435, 436, 437, 438, 439],
      "AcquisitionTime": ["171139.667500", "171141.157500", "171142.647500", "171144.137500", "171145.627500", "171147.117500", "171148.607500", "171150.097500", "171151.587500", "171153.077500", "171154.567500", "171156.057500", "171157.547500", "171159.037500", "171200.527500", "171202.017500", "171203.507500", "171204.997500", "171206.487500", "171207.977500", "171209.467500", "171210.957500", "171212.447500", "171213.937500", "171215.427500", "171216.917500", "171218.407500", "171219.897500", "171221.387500", "171222.877500", "171224.367500", "171225.857500", "171227.347500", "171228.837500", "171230.327500", "171231.817500", "171233.307500", "171234.797500", "171236.287500", "171237.777500", "171239.267500", "171240.757500", "171242.247500", "171243.737500", "171245.227500", "171246.717500", "171248.207500", "171249.697500", "171251.187500", "171252.677500", "171254.167500", "171255.657500", "171257.147500", "171258.637500", "171300.127500", "171301.617500", "171303.107500", "171304.597500", "171306.087500", "171307.577500", "171309.067500", "171310.557500", "171312.047500", "171313.537500", "171315.027500", "171316.517500", "171318.007500", "171319.497500", "171320.987500", "171322.477500", "171323.967500", "171325.457500", "171326.947500", "171328.437500", "171329.927500", "171331.417500", "171332.907500", "171334.397500", "171335.887500", "171337.377500", "171338.867500", "171340.357500", "171341.847500", "171343.337500", "171344.827500", "171346.317500", "171347.807500", "171349.297500", "171350.787500", "171352.277500", "171353.767500", "171355.257500", "171356.747500", "171358.237500", "171359.727500", "171401.217500", "171402.707500", "171404.197500", "171405.687500", "171407.177500", "171408.667500", "171410.157500", "171411.647500", "171413.137500", "171414.627500", "171416.117500", "171417.607500", "171419.097500", "171420.587500", "171422.077500", "171423.567500", "171425.057500", "171426.547500", "171428.037500", "171429.527500", "171431.017500", "171432.507500", "171433.997500", "171435.487500", "171436.977500", "171438.467500", "171439.957500", "171441.447500", "171442.937500", "171444.427500", "171445.917500", "171447.407500", "171448.897500", "171450.387500", "171451.877500", "171453.367500", "171454.857500", "171456.347500", "171457.837500", "171459.327500", "171500.817500", "171502.307500", "171503.797500", "171505.287500", "171506.777500", "171508.267500", "171509.757500", "171511.247500", "171512.737500", "171514.227500", "171515.717500", "171517.207500", "171518.697500", "171520.187500", "171521.677500", "171523.167500", "171524.657500", "171526.147500", "171527.637500", "171529.127500", "171530.617500", "171532.107500", "171533.597500", "171535.087500", "171536.577500", "171538.067500", "171539.557500", "171541.047500", "171542.537500", "171544.027500", "171545.517500", "171547.007500", "171548.497500", "171549.987500", "171551.477500", "171552.967500", "171554.457500", "171555.947500", "171557.437500", "171558.927500", "171600.417500", "171601.907500", "171603.397500", "171604.887500", "171606.377500", "171607.867500", "171609.357500", "171610.847500", "171612.337500", "171613.827500", "171615.317500", "171616.807500", "171618.297500", "171619.787500", "171621.277500", "171622.767500", "171624.257500", "171625.747500", "171627.237500", "171628.727500", "171630.217500", "171631.707500", "171633.197500", "171634.687500", "171636.177500", "171637.667500", "171639.157500", "171640.647500", "171642.137500", "171643.627500", "171645.117500", "171646.607500", "171648.097500", "171649.587500", "171651.077500", "171652.567500", "171654.057500", "171655.547500", "171657.037500", "171658.527500", "171700.017500", "171701.507500", "171702.997500", "171704.487500", "171705.977500", "171707.467500", "171708.957500", "171710.447500", "171711.937500", "171713.427500", "171714.917500", "171716.407500", "171717.897500", "171719.387500", "171720.877500", "171722.367500", "171723.857500", "171725.347500", "171726.837500", "171728.327500", "171729.817500", "171731.307500", "171732.797500", "171734.287500", "171735.777500", "171737.267500", "171738.757500", "171740.247500", "171741.737500", "171743.227500", "171744.717500", "171746.207500", "171747.697500", "171749.187500", "171750.677500", "171752.167500", "171753.657500", "171755.147500", "171756.637500", "171758.127500", "171759.617500", "171801.107500", "171802.597500", "171804.087500", "171805.577500", "171807.067500", "171808.557500", "171810.047500", "171811.537500", "171813.027500", "171814.517500", "171816.007500", "171817.497500", "171818.987500", "171820.477500", "171821.967500", "171823.457500", "171824.947500", "171826.437500", "171827.927500", "171829.417500", "171830.907500", "171832.397500", "171833.887500", "171835.377500", "171836.867500", "171838.357500", "171839.847500", "171841.337500", "171842.827500", "171844.317500", "171845.807500", "171847.297500", "171848.787500", "171850.277500", "171851.767500", "171853.257500", "171854.747500", "171856.237500", "171857.727500", "171859.217500", "171900.707500", "171902.197500", "171903.687500", "171905.177500", "171906.667500", "171908.157500", "171909.647500", "171911.137500", "171912.627500", "171914.117500", "171915.607500", "171917.097500", "171918.587500", "171920.077500", "171921.567500", "171923.057500", "171924.547500", "171926.037500", "171927.527500", "171929.017500", "171930.507500", "171931.997500", "171933.487500", "171934.977500", "171936.467500", "171937.957500", "171939.447500", "171940.937500", "171942.427500", "171943.917500", "171945.407500", "171946.897500", "171948.387500", "171949.877500", "171951.367500", "171952.857500", "171954.347500", "171955.837500", "171957.327500", "171958.817500", "172000.307500", "172001.797500", "172003.287500", "172004.777500", "172006.267500", "172007.757500", "172009.247500", "172010.737500", "172012.227500", "172013.717500", "172015.207500", "172016.697500", "172018.187500", "172019.677500", "172021.167500", "172022.657500", "172024.147500", "172025.637500", "172027.127500", "172028.617500", "172030.107500", "172031.597500", "172033.087500", "172034.577500", "172036.067500", "172037.557500", "172039.047500", "172040.537500", "172042.027500", "172043.517500", "172045.007500", "172046.497500", "172047.987500", "172049.477500", "172050.967500", "172052.457500", "172053.947500", "172055.437500", "172056.927500", "172058.417500", "172059.907500", "172101.397500", "172102.887500", "172104.377500", "172105.867500", "172107.357500", "172108.847500", "172110.337500", "172111.827500", "172113.317500", "172114.807500", "172116.297500", "172117.787500", "172119.277500", "172120.767500", "172122.257500", "172123.747500", "172125.237500", "172126.727500", "172128.217500", "172129.707500", "172131.197500", "172132.687500", "172134.177500", "172135.667500", "172137.157500", "172138.647500", "172140.137500", "172141.627500", "172143.117500", "172144.607500", "172146.097500", "172147.587500", "172149.077500", "172150.567500", "172152.057500", "172153.547500", "172155.037500", "172156.527500", "172158.017500", "172159.507500", "172200.997500", "172202.487500", "172203.977500", "172205.467500", "172206.957500", "172208.447500", "172209.937500", "172211.427500", "172212.917500", "172214.407500", "172215.897500", "172217.387500", "172218.877500", "172220.367500", "172221.857500", "172223.347500", "172224.837500", "172226.327500", "172227.817500", "172229.307500", "172230.797500", "172232.287500"],
      "ContentTime": ["171333.219000", "171333.223000", "171333.226000", "171333.229000", "171333.232000", "171333.235000", "171333.238000", "171333.241000", "171333.243000", "171333.246000", "171333.249000", "171333.252000", "171333.255000", "171333.258000", "171333.261000", "171333.264000", "171333.267000", "171333.270000", "171333.272000", "171333.275000", "171333.278000", "171333.281000", "171333.284000", "171333.287000", "171333.290000", "171333.293000", "171333.296000", "171333.298000", "171333.303000", "171413.177000", "171413.192000", "171413.195000", "171413.198000", "171413.201000", "171413.213000", "171413.216000", "171413.219000", "171413.222000", "171413.228000", "171413.231000", "171413.234000", "171413.237000", "171413.241000", "171413.244000", "171413.247000", "171413.249000", "171413.260000", "171413.263000", "171413.266000", "171413.269000", "171413.283000", "171413.286000", "171413.289000", "171413.292000", "171413.295000", "171413.297000", "171413.300000", "171413.303000", "171413.306000", "171413.309000", "171413.312000", "171413.315000", "171413.318000", "171413.321000", "171413.324000", "171413.327000", "171413.330000", "171413.333000", "171433.178000", "171433.187000", "171433.190000", "171433.193000", "171433.196000", "171433.198000", "171433.201000", "171433.204000", "171433.207000", "171433.210000", "171433.213000", "171433.216000", "171433.219000", "171433.222000", "171433.231000", "171433.234000", "171433.237000", "171433.240000", "171433.243000", "171433.246000", "171453.177000", "171453.180000", "171453.183000", "171453.186000", "171453.189000", "171453.192000", "171453.195000", "171453.198000", "171453.201000", "171453.204000", "171453.207000", "171453.210000", "171453.212000", "171453.215000", "171453.218000", "171453.221000", "171453.224000", "171453.227000", "171453.230000", "171453.233000", "171513.177000", "171513.180000", "171513.183000", "171513.186000", "171513.196000", "171513.199000", "171513.202000", "171513.205000", "171513.212000", "171513.215000", "171513.218000", "171513.221000", "171513.224000", "171513.227000", "171513.230000", "171513.233000", "171513.236000", "171513.239000", "171513.242000", "171513.245000", "171533.177000", "171533.271000", "171533.274000", "171533.277000", "171533.280000", "171533.283000", "171533.286000", "171533.289000", "171533.291000", "171533.294000", "171533.297000", "171533.300000", "171533.303000", "171533.306000", "171533.309000", "171533.312000", "171533.315000", "171533.318000", "171533.321000", "171533.323000", "171533.326000", "171553.177000", "171553.180000", "171553.183000", "171553.186000", "171553.189000", "171553.192000", "171553.195000", "171553.197000", "171553.200000", "171553.203000", "171553.206000", "171553.209000", "171553.212000", "171553.215000", "171553.218000", "171553.221000", "171553.224000", "171553.227000", "171553.230000", "171553.232000", "171633.178000", "171633.181000", "171633.184000", "171633.187000", "171633.202000", "171633.205000", "171633.208000", "171633.211000", "171633.214000", "171633.217000", "171633.219000", "171633.222000", "171633.225000", "171633.228000", "171633.231000", "171633.234000", "171633.237000", "171633.240000", "171633.243000", "171633.246000", "171633.249000", "171633.252000", "171633.255000", "171633.257000", "171633.260000", "171633.263000", "171633.266000", "171713.177000", "171713.315000", "171713.318000", "171713.321000", "171713.324000", "171713.326000", "171713.329000", "171713.332000", "171713.335000", "171713.338000", "171713.341000", "171713.344000", "171713.347000", "171713.350000", "171713.353000", "171713.360000", "171713.363000", "171713.366000", "171713.369000", "171713.372000", "171713.375000", "171713.378000", "171713.381000", "171713.384000", "171713.386000", "171713.389000", "171713.392000", "171753.177000", "171753.184000", "171753.187000", "171753.190000", "171753.193000", "171753.196000", "171753.198000", "171753.201000", "171753.204000", "171753.207000", "171753.210000", "171753.213000", "171753.216000", "171753.219000", "171753.222000", "171753.225000", "171753.227000", "171753.230000", "171753.233000", "171753.236000", "171753.247000", "171753.250000", "171753.253000", "171753.255000", "171753.258000", "171753.261000", "171753.264000", "171833.177000", "171833.180000", "171833.183000", "171833.186000", "171833.189000", "171833.192000", "171833.195000", "171833.198000", "171833.201000", "171833.204000", "171833.207000", "171833.210000", "171833.213000", "171833.216000", "171833.219000", "171833.222000", "171833.224000", "171833.228000", "171833.230000", "171833.233000", "171833.236000", "171833.239000", "171833.242000", "171833.245000", "171833.248000", "171833.251000", "171913.178000", "171913.181000", "171913.184000", "171913.187000", "171913.190000", "171913.193000", "171913.196000", "171913.199000", "171913.202000", "171913.205000", "171913.208000", "171913.210000", "171913.213000", "171913.216000", "171913.219000", "171913.222000", "171913.225000", "171913.228000", "171913.231000", "171913.234000", "171913.237000", "171913.240000", "171913.243000", "171913.246000", "171913.248000", "171913.251000", "171913.254000", "171953.177000", "171953.209000", "171953.212000", "171953.215000", "171953.218000", "171953.221000", "171953.224000", "171953.227000", "171953.230000", "171953.233000", "171953.238000", "171953.241000", "171953.244000", "171953.247000", "171953.250000", "171953.252000", "171953.255000", "171953.258000", "171953.261000", "171953.264000", "171953.267000", "171953.270000", "171953.273000", "171953.276000", "171953.279000", "171953.282000", "171953.285000", "172013.177000", "172013.182000", "172013.185000", "172013.188000", "172013.191000", "172013.193000", "172013.196000", "172013.214000", "172013.217000", "172013.220000", "172013.223000", "172013.226000", "172013.229000", "172013.231000", "172053.177000", "172053.180000", "172053.183000", "172053.186000", "172053.189000", "172053.192000", "172053.195000", "172053.198000", "172053.201000", "172053.204000", "172053.208000", "172053.211000", "172053.214000", "172053.217000", "172053.220000", "172053.223000", "172053.226000", "172053.244000", "172053.247000", "172053.250000", "172053.253000", "172053.256000", "172053.259000", "172053.262000", "172053.265000", "172053.268000", "172133.178000", "172133.304000", "172133.307000", "172133.310000", "172133.313000", "172133.316000", "172133.319000", "172133.322000", "172133.325000", "172133.328000", "172133.331000", "172133.333000", "172133.336000", "172133.339000", "172133.342000", "172133.345000", "172133.348000", "172133.351000", "172133.354000", "172133.357000", "172133.360000", "172133.363000", "172133.366000", "172133.369000", "172133.371000", "172133.374000", "172133.377000", "172213.177000", "172213.180000", "172213.183000", "172213.186000", "172213.189000", "172213.192000", "172213.195000", "172213.198000", "172213.201000", "172213.203000", "172213.206000", "172213.209000", "172213.212000", "172213.215000", "172213.218000", "172213.221000", "172213.224000", "172213.227000", "172213.230000", "172213.233000", "172213.236000", "172213.239000", "172213.242000", "172213.245000", "172213.248000", "172213.251000", "172213.254000", "172234.705000", "172234.708000", "172234.711000", "172234.714000", "172234.717000", "172234.720000", "172234.723000", "172234.726000", "172234.729000", "172234.732000", "172234.736000", "172234.739000", "172234.742000", "172234.745000", "172234.748000"],
