{
  "AcquisitionMatrixPE": 104,
  "AcquisitionNumber": 1,
  "AcquisitionTime": "18:25:40.440000",
  "BandwidthPerPixelPhaseEncode": 17.17,
  "BaseResolution": 104,
  "BodyPartExamined": "BRAIN",
  "CoilString": "HC1-7;NC1_2",
  "ConsistencyInfo": "N4_VE11C_LATEST_20160120",
  "ConversionSoftware": "dcm2niix",
  "ConversionSoftwareVersion": "v1.0.20190902",
  "DerivedVendorReportedEchoSpacing": 0.000560011,
  "DeviceSerialNumber": "167006",
  "DwellTime": 2.1e-06,
  "EchoTime": 0.037,
  "EchoTrainLength": 104,
  "EffectiveEchoSpacing": 0.000560011,
  "FlipAngle": 52,
  "HeudiconvVersion": "0.10.0",
  "ImageComments": "Unaliased_MB4_PE3_LB",
  "ImageOrientationPatientDICOM": [0.998802, -0.0485271, -0.0063397, 0.0429101, 0.930659, -0.363362],
  "ImageType": [
    "ORIGINAL",
    "PRIMARY",
    "M",
    "MB",
    "ND",
    "MOSAIC"
],
  "ImagingFrequency": 123.259,
  "InPlanePhaseEncodingDirectionDICOM": "COL",
  "InstitutionAddress": "Chemin_Queen-Mary_4565_Montreal_District_CA_H3W_1W5",
  "InstitutionName": "IUGM",
  "InstitutionalDepartmentName": "Department",
  "MRAcquisitionType": "2D",
  "MagneticFieldStrength": 3,
  "Manufacturer": "Siemens",
  "ManufacturersModelName": "Prisma_fit",
  "Modality": "MR",
  "MultibandAccelerationFactor": 4,
  "PartialFourier": 1,
  "PatientPosition": "HFS",
  "PercentPhaseFOV": 100,
  "PhaseEncodingDirection": "j",
  "PhaseEncodingSteps": 104,
  "PhaseResolution": 1,
  "PixelBandwidth": 2290,
  "ProcedureStepDescription": "video_friends",
  "ProtocolName": "func_task-friends-s05e04a",
  "PulseSequenceDetails": "%CustomerSeq%_cmrr_mbep2d_bold",
  "ReceiveCoilActiveElements": "HC1-7;NC1,2",
  "ReceiveCoilName": "HeadNeck_64",
  "ReconMatrixPE": 104,
  "RepetitionTime": 1.49,
  "SAR": 0.036286,
  "ScanOptions": "FS",
  "ScanningSequence": "EP",
  "SequenceName": "epfid2d1_104",
  "SequenceVariant": "SK_SS",
  "SeriesDescription": "func_task-friends-s05e04a",
  "SeriesNumber": 21,
  "ShimSetting": [618, -7287, -8799, 491, 8, -393, 37, 42],
  "SliceThickness": 2,
  "SliceTiming": [0, 0.7825, 0.0975, 0.88, 0.195, 0.9775, 0.2925, 1.0775, 0.39, 1.175, 0.4875, 1.2725, 0.5875, 1.37, 0.685, 0, 0.7825, 0.0975, 0.88, 0.195, 0.9775, 0.2925, 1.0775, 0.39, 1.175, 0.4875, 1.2725, 0.5875, 1.37, 0.685, 0, 0.7825, 0.0975, 0.88, 0.195, 0.9775, 0.2925, 1.0775, 0.39, 1.175, 0.4875, 1.2725, 0.5875, 1.37, 0.685, 0, 0.7825, 0.0975, 0.88, 0.195, 0.9775, 0.2925, 1.0775, 0.39, 1.175, 0.4875, 1.2725, 0.5875, 1.37, 0.685],
  "SoftwareVersions": "syngo_MR_E11",
  "SpacingBetweenSlices": 2,
  "StationName": "MRC35049",
  "TaskName": "s05e04a",
  "TotalReadoutTime": 0.0576811,
  "TxRefAmp": 238.692,
  "WipMemBlock": "75f426f3-729b-40e9-b8f9-7b935fd57384||Sequence: R016 ve11c/master r/e634e98; Dec 19 2017 11:00:25 by eja",
  "dcmmeta_affine": [
    [-1.9976035356521606, 0.08582010120153427, -0.047066010534763336, 96.78439331054688],
    [0.09705427289009094, 1.861318826675415, -0.7253085970878601, -76.20880889892578],
    [-0.012679396197199821, 0.7267234921455383, 1.863253116607666, -54.631744384765625],
    [0.0, 0.0, 0.0, 1.0]
],
  "dcmmeta_reorient_transform": [
    [0.0, -1.0, 0.0, 103.0],
    [1.0, 0.0, 0.0, 0.0],
    [0.0, 0.0, 1.0, 0.0],
    [0.0, 0.0, 0.0, 1.0]
],
  "dcmmeta_shape": [104, 104, 60, 488],
  "dcmmeta_slice_dim": 2,
  "dcmmeta_version": 0.6,
  "global": {
    "const": {
      "AcquisitionMatrix": [104, 0, 0, 104],
      "AngioFlag": "N",
      "BitsAllocated": 16,
      "BitsStored": 16,
      "BodyPartExamined": "BRAIN",
      "Columns": 832,
      "EchoNumbers": 1,
      "EchoTime": 37.0,
      "EchoTrainLength": 104,
      "FlipAngle": 52.0,
      "HighBit": 15,
      "ImageOrientationPatient": [0.99880174477239, -0.0485271353911, -0.0063396979714, 0.04291004937916, 0.93065942539998, -0.3633617502936],
      "ImagePositionPatient": [-863.99005038439, -757.6993374279, 289.36342883953],
      "ImageType": [
        "ORIGINAL",
        "PRIMARY",
        "M",
        "MB",
        "ND",
        "MOSAIC"
],
      "ImagedNucleus": "1H",
      "ImagingFrequency": 123.258909,
      "InPlanePhaseEncodingDirection": "COL",
      "MRAcquisitionType": "2D",
      "MagneticFieldStrength": 3.0,
      "Manufacturer": "SIEMENS",
      "ManufacturerModelName": "Prisma_fit",
      "Modality": "MR",
      "NumberOfAverages": 1.0,
      "NumberOfPhaseEncodingSteps": 104,
      "PercentPhaseFieldOfView": 100.0,
      "PercentSampling": 100.0,
      "PerformedProcedureStepStartTime": "163558.791000",
      "PhotometricInterpretation": "MONOCHROME2",
      "PixelBandwidth": 2290.0,
      "PixelRepresentation": 0,
      "PixelSpacing": [2.0, 2.0],
      "ProtocolName": "func_task-friends-s05e04a",
      "RepetitionTime": 1490.0,
      "Rows": 832,
      "SAR": 0.03628604943042,
      "SamplesPerPixel": 1,
      "ScanOptions": "FS",
      "ScanningSequence": "EP",
      "SequenceName": "epfid2d1_104",
      "SequenceVariant": [
        "SK",
        "SS"
],
      "SeriesDescription": "func_task-friends-s05e04a",
      "SeriesNumber": 21,
      "SeriesTime": "182713.216000",
      "SliceLocation": -25.536559061191,
      "SliceThickness": 2.0,
      "SmallestImagePixelValue": 0,
      "SoftwareVersions": "syngo MR E11",
      "SpacingBetweenSlices": 1.9999999934882,
      "SpecificCharacterSet": "ISO_IR 100",
      "StudyID": "1",
      "StudyTime": "163558.733000",
      "TransmitCoilName": "Body",
      "VariableFlipAngleFlag": "N",
      "WindowCenterWidthExplanation": "Algo1",
      "dBdt": 0.0},
    "slices": {}
  },
  "time": {
    "samples": {
      "AcquisitionNumber": [1, 2, 3, 4, 5, 6, 7, 8, 9, 10, 11, 12, 13, 14, 15, 16, 17, 18, 19, 20, 21, 22, 23, 24, 25, 26, 27, 28, 29, 30, 31, 32, 33, 34, 35, 36, 37, 38, 39, 40, 41, 42, 43, 44, 45, 46, 47, 48, 49, 50, 51, 52, 53, 54, 55, 56, 57, 58, 59, 60, 61, 62, 63, 64, 65, 66, 67, 68, 69, 70, 71, 72, 73, 74, 75, 76, 77, 78, 79, 80, 81, 82, 83, 84, 85, 86, 87, 88, 89, 90, 91, 92, 93, 94, 95, 96, 97, 98, 99, 100, 101, 102, 103, 104, 105, 106, 107, 108, 109, 110, 111, 112, 113, 114, 115, 116, 117, 118, 119, 120, 121, 122, 123, 124, 125, 126, 127, 128, 129, 130, 131, 132, 133, 134, 135, 136, 137, 138, 139, 140, 141, 142, 143, 144, 145, 146, 147, 148, 149, 150, 151, 152, 153, 154, 155, 156, 157, 158, 159, 160, 161, 162, 163, 164, 165, 166, 167, 168, 169, 170, 171, 172, 173, 174, 175, 176, 177, 178, 179, 180, 181, 182, 183, 184, 185, 186, 187, 188, 189, 190, 191, 192, 193, 194, 195, 196, 197, 198, 199, 200, 201, 202, 203, 204, 205, 206, 207, 208, 209, 210, 211, 212, 213, 214, 215, 216, 217, 218, 219, 220, 221, 222, 223, 224, 225, 226, 227, 228, 229, 230, 231, 232, 233, 234, 235, 236, 237, 238, 239, 240, 241, 242, 243, 244, 245, 246, 247, 248, 249, 250, 251, 252, 253, 254, 255, 256, 257, 258, 259, 260, 261, 262, 263, 264, 265, 266, 267, 268, 269, 270, 271, 272, 273, 274, 275, 276, 277, 278, 279, 280, 281, 282, 283, 284, 285, 286, 287, 288, 289, 290, 291, 292, 293, 294, 295, 296, 297, 298, 299, 300, 301, 302, 303, 304, 305, 306, 307, 308, 309, 310, 311, 312, 313, 314, 315, 316, 317, 318, 319, 320, 321, 322, 323, 324, 325, 326, 327, 328, 329, 330, 331, 332, 333, 334, 335, 336, 337, 338, 339, 340, 341, 342, 343, 344, 345, 346, 347, 348, 349, 350, 351, 352, 353, 354, 355, 356, 357, 358, 359, 360, 361, 362, 363, 364, 365, 366, 367, 368, 369, 370, 371, 372, 373, 374, 375, 376, 377, 378, 379, 380, 381, 382, 383, 384, 385, 386, 387, 388, 389, 390, 391, 392, 393, 394, 395, 396, 397, 398, 399, 400, 401, 402, 403, 404, 405, 406, 407, 408, 409, 410, 411, 412, 413, 414, 415, 416, 417, 418, 419, 420, 421, 422, 423, 424, 425, 426, 427, 428, 429, 430, 431, 432, 433, 434, 435, 436, 437, 438, 439, 440, 441, 442, 443, 444, 445, 446, 447, 448, 449, 450, 451, 452, 453, 454, 455, 456, 457, 458, 459, 460, 461, 462, 463, 464, 465, 466, 467, 468, 469, 470, 471, 472, 473, 474, 475, 476, 477, 478, 479, 480, 481, 482, 483, 484, 485, 486, 487, 488],
      "AcquisitionTime": ["182540.440000", "182541.930000", "182543.420000", "182544.910000", "182546.400000", "182547.890000", "182549.380000", "182550.870000", "182552.360000", "182553.850000", "182555.340000", "182556.830000", "182558.320000", "182559.810000", "182601.300000", "182602.790000", "182604.280000", "182605.770000", "182607.260000", "182608.750000", "182610.240000", "182611.730000", "182613.220000", "182614.710000", "182616.200000", "182617.690000", "182619.180000", "182620.670000", "182622.160000", "182623.650000", "182625.140000", "182626.630000", "182628.120000", "182629.610000", "182631.100000", "182632.590000", "182634.080000", "182635.570000", "182637.060000", "182638.550000", "182640.040000", "182641.530000", "182643.020000", "182644.510000", "182646.000000", "182647.490000", "182648.980000", "182650.470000", "182651.960000", "182653.450000", "182654.940000", "182656.430000", "182657.920000", "182659.410000", "182700.900000", "182702.390000", "182703.880000", "182705.370000", "182706.860000", "182708.350000", "182709.840000", "182711.330000", "182712.820000", "182714.310000", "182715.800000", "182717.290000", "182718.780000", "182720.270000", "182721.760000", "182723.250000", "182724.740000", "182726.230000", "182727.720000", "182729.210000", "182730.700000", "182732.190000", "182733.680000", "182735.170000", "182736.660000", "182738.150000", "182739.640000", "182741.130000", "182742.620000", "182744.110000", "182745.600000", "182747.090000", "182748.580000", "182750.070000", "182751.560000", "182753.050000", "182754.540000", "182756.030000", "182757.520000", "182759.010000", "182800.500000", "182801.990000", "182803.480000", "182804.970000", "182806.460000", "182807.950000", "182809.440000", "182810.930000", "182812.420000", "182813.910000", "182815.400000", "182816.890000", "182818.380000", "182819.870000", "182821.360000", "182822.850000", "182824.340000", "182825.830000", "182827.320000", "182828.810000", "182830.300000", "182831.790000", "182833.280000", "182834.770000", "182836.260000", "182837.750000", "182839.240000", "182840.730000", "182842.220000", "182843.710000", "182845.200000", "182846.690000", "182848.180000", "182849.670000", "182851.160000", "182852.650000", "182854.140000", "182855.630000", "182857.120000", "182858.610000", "182900.100000", "182901.590000", "182903.080000", "182904.570000", "182906.060000", "182907.550000", "182909.040000", "182910.530000", "182912.020000", "182913.510000", "182915.000000", "182916.490000", "182917.980000", "182919.470000", "182920.960000", "182922.450000", "182923.940000", "182925.430000", "182926.920000", "182928.410000", "182929.900000", "182931.390000", "182932.880000", "182934.370000", "182935.860000", "182937.350000", "182938.840000", "182940.330000", "182941.820000", "182943.310000", "182944.800000", "182946.290000", "182947.780000", "182949.270000", "182950.760000", "182952.250000", "182953.740000", "182955.230000", "182956.720000", "182958.210000", "182959.700000", "183001.190000", "183002.680000", "183004.170000", "183005.660000", "183007.150000", "183008.640000", "183010.130000", "183011.620000", "183013.110000", "183014.600000", "183016.090000", "183017.580000", "183019.070000", "183020.560000", "183022.050000", "183023.540000", "183025.030000", "183026.520000", "183028.010000", "183029.500000", "183030.990000", "183032.480000", "183033.970000", "183035.460000", "183036.950000", "183038.440000", "183039.930000", "183041.420000", "183042.910000", "183044.400000", "183045.890000", "183047.380000", "183048.870000", "183050.360000", "183051.850000", "183053.340000", "183054.830000", "183056.320000", "183057.810000", "183059.300000", "183100.790000", "183102.280000", "183103.770000", "183105.260000", "183106.750000", "183108.240000", "183109.730000", "183111.220000", "183112.710000", "183114.200000", "183115.690000", "183117.180000", "183118.670000", "183120.160000", "183121.650000", "183123.140000", "183124.630000", "183126.120000", "183127.610000", "183129.100000", "183130.590000", "183132.080000", "183133.570000", "183135.060000", "183136.550000", "183138.040000", "183139.530000", "183141.020000", "183142.510000", "183144.000000", "183145.490000", "183146.980000", "183148.470000", "183149.960000", "183151.450000", "183152.940000", "183154.430000", "183155.920000", "183157.410000", "183158.900000", "183200.390000", "183201.880000", "183203.370000", "183204.860000", "183206.350000", "183207.840000", "183209.330000", "183210.820000", "183212.310000", "183213.800000", "183215.290000", "183216.780000", "183218.270000", "183219.760000", "183221.250000", "183222.740000", "183224.230000", "183225.720000", "183227.210000", "183228.700000", "183230.190000", "183231.680000", "183233.170000", "183234.660000", "183236.150000", "183237.640000", "183239.130000", "183240.620000", "183242.110000", "183243.600000", "183245.090000", "183246.580000", "183248.070000", "183249.560000", "183251.050000", "183252.540000", "183254.030000", "183255.520000", "183257.010000", "183258.500000", "183259.990000", "183301.480000", "183302.970000", "183304.460000", "183305.950000", "183307.440000", "183308.930000", "183310.420000", "183311.910000", "183313.400000", "183314.890000", "183316.380000", "183317.870000", "183319.360000", "183320.850000", "183322.340000", "183323.830000", "183325.320000", "183326.810000", "183328.300000", "183329.790000", "183331.280000", "183332.770000", "183334.260000", "183335.750000", "183337.240000", "183338.730000", "183340.220000", "183341.710000", "183343.200000", "183344.690000", "183346.180000", "183347.670000", "183349.160000", "183350.650000", "183352.140000", "183353.630000", "183355.120000", "183356.610000", "183358.100000", "183359.590000", "183401.080000", "183402.570000", "183404.060000", "183405.550000", "183407.040000", "183408.530000", "183410.020000", "183411.510000", "183413.000000", "183414.490000", "183415.980000", "183417.470000", "183418.960000", "183420.450000", "183421.940000", "183423.430000", "183424.920000", "183426.410000", "183427.900000", "183429.390000", "183430.880000", "183432.370000", "183433.860000", "183435.350000", "183436.840000", "183438.330000", "183439.820000", "183441.310000", "183442.800000", "183444.290000", "183445.780000", "183447.270000", "183448.760000", "183450.250000", "183451.740000", "183453.230000", "183454.720000", "183456.210000", "183457.700000", "183459.190000", "183500.680000", "183502.170000", "183503.660000", "183505.150000", "183506.640000", "183508.130000", "183509.620000", "183511.110000", "183512.600000", "183514.090000", "183515.580000", "183517.070000", "183518.560000", "183520.050000", "183521.540000", "183523.030000", "183524.520000", "183526.010000", "183527.500000", "183528.990000", "183530.480000", "183531.970000", "183533.460000", "183534.950000", "183536.440000", "183537.930000", "183539.420000", "183540.910000", "183542.400000", "183543.890000", "183545.380000", "183546.870000", "183548.360000", "183549.850000", "183551.340000", "183552.830000", "183554.320000", "183555.810000", "183557.300000", "183558.790000", "183600.280000", "183601.770000", "183603.260000", "183604.750000", "183606.240000", "183607.730000", "183609.220000", "183610.710000", "183612.200000", "183613.690000", "183615.180000", "183616.670000", "183618.160000", "183619.650000", "183621.140000", "183622.630000", "183624.120000", "183625.610000", "183627.100000", "183628.590000", "183630.080000", "183631.570000", "183633.060000", "183634.550000", "183636.040000", "183637.530000", "183639.020000", "183640.510000", "183642.000000", "183643.490000", "183644.980000", "183646.470000", "183647.960000", "183649.450000", "183650.940000", "183652.430000", "183653.920000", "183655.410000", "183656.900000", "183658.390000", "183659.880000", "183701.370000", "183702.860000", "183704.350000", "183705.840000", "183707.330000", "183708.820000", "183710.310000", "183711.800000", "183713.290000", "183714.780000", "183716.270000", "183717.760000", "183719.250000", "183720.740000", "183722.230000", "183723.720000", "183725.210000", "183726.700000", "183728.190000", "183729.680000", "183731.170000", "183732.660000", "183734.150000", "183735.640000", "183737.130000", "183738.620000", "183740.110000", "183741.600000", "183743.090000", "183744.580000", "183746.070000"],
      "ContentTime": ["182713.219000", "182713.223000", "182713.226000", "182713.228000", "182713.231000", "182713.234000", "182713.237000", "182713.240000", "182713.243000", "182713.246000", "182713.249000", "182713.251000", "182713.254000", "182713.257000", "182713.260000", "182713.263000", "182713.266000", "182713.269000", "182713.272000", "182713.275000", "182713.278000", "182713.281000", "182713.283000", "182713.286000", "182713.289000", "182713.292000", "182713.295000", "182713.298000", "182713.301000", "182713.304000", "182713.307000", "182713.310000", "182713.313000", "182713.315000", "182713.318000", "182713.321000", "182713.324000", "182713.334000", "182733.177000", "182733.180000", "182733.183000", "182733.186000", "182733.189000", "182733.192000", "182733.194000", "182733.197000", "182733.200000", "182733.203000", "182733.206000", "182733.209000", "182733.212000", "182733.215000", "182733.223000", "182733.226000", "182733.229000", "182733.232000", "182733.235000", "182733.238000", "182753.177000", "182753.180000", "182753.183000", "182753.186000", "182753.189000", "182753.191000", "182753.194000", "182753.197000", "182753.200000", "182753.203000", "182753.206000", "182753.209000", "182753.212000", "182753.215000", "182753.218000", "182753.221000", "182753.224000", "182753.227000", "182753.229000", "182753.232000", "182813.177000", "182813.180000", "182813.183000", "182813.186000", "182813.189000", "182813.192000", "182813.194000", "182813.197000", "182813.200000", "182813.203000", "182813.206000", "182813.209000", "182813.212000", "182813.214000", "182813.217000", "182813.220000", "182813.223000", "182813.226000", "182813.229000", "182813.232000", "182853.178000", "182853.249000", "182853.252000", "182853.259000", "182853.262000", "182853.265000", "182853.268000", "182853.271000", "182853.286000", "182853.290000", "182853.294000", "182853.298000", "182853.302000", "182853.305000", "182853.308000", "182853.311000", "182853.314000", "182853.317000", "182853.320000", "182853.323000", "182853.325000", "182853.328000", "182853.331000", "182853.334000", "182853.337000", "182853.340000", "182853.343000", "182853.346000", "182853.349000", "182853.352000", "182933.177000", "182933.180000", "182933.183000", "182933.186000", "182933.189000", "182933.192000", "182933.195000", "182933.198000", "182933.201000", "182933.203000", "182933.206000", "182933.209000", "182933.212000", "182933.215000", "182933.218000", "182933.221000", "182933.224000", "182933.226000", "182933.229000", "182933.232000", "182933.235000", "182933.238000", "182933.241000", "182933.244000", "182933.247000", "182933.250000", "182933.253000", "183013.177000", "183013.180000", "183013.183000", "183013.186000", "183013.189000", "183013.193000", "183013.196000", "183013.199000", "183013.202000", "183013.205000", "183013.208000", "183013.211000", "183013.214000", "183013.217000", "183013.220000", "183013.223000", "183013.225000", "183013.228000", "183013.231000", "183013.234000", "183013.237000", "183013.240000", "183013.243000", "183013.246000", "183013.248000", "183013.251000", "183013.254000", "183053.178000", "183053.181000", "183053.184000", "183053.187000", "183053.190000", "183053.193000", "183053.196000", "183053.199000", "183053.202000", "183053.207000", "183053.210000", "183053.213000", "183053.216000", "183053.218000", "183053.221000", "183053.224000", "183053.227000", "183053.230000", "183053.233000", "183053.236000", "183053.239000", "183053.242000", "183053.245000", "183053.248000", "183053.251000", "183053.254000", "183053.257000", "183133.177000", "183133.180000", "183133.183000", "183133.186000", "183133.189000", "183133.192000", "183133.195000", "183133.198000", "183133.201000", "183133.204000", "183133.207000", "183133.210000", "183133.213000", "183133.216000", "183133.219000", "183133.222000", "183133.225000", "183133.228000", "183133.232000", "183133.266000", "183133.269000", "183133.272000", "183133.275000", "183133.278000", "183133.281000", "183133.284000", "183133.287000", "183213.177000", "183213.182000", "183213.185000", "183213.188000", "183213.191000", "183213.193000", "183213.196000", "183213.199000", "183213.202000", "183213.205000", "183213.208000", "183213.211000", "183213.214000", "183213.217000", "183213.220000", "183213.222000", "183213.225000", "183213.228000", "183213.231000", "183213.234000", "183213.237000", "183213.240000", "183213.243000", "183213.246000", "183213.249000", "183213.252000", "183213.254000", "183253.178000", "183253.181000", "183253.185000", "183253.188000", "183253.191000", "183253.194000", "183253.197000", "183253.199000", "183253.202000", "183253.205000", "183253.208000", "183253.211000", "183253.214000", "183253.217000", "183253.220000", "183253.223000", "183253.226000", "183253.229000", "183253.232000", "183253.234000", "183253.237000", "183253.240000", "183253.243000", "183253.246000", "183253.249000", "183253.252000", "183333.178000", "183333.181000", "183333.184000", "183333.187000", "183333.190000", "183333.193000", "183333.196000", "183333.199000", "183333.201000", "183333.204000", "183333.207000", "183333.210000", "183333.213000", "183333.216000", "183333.219000", "183333.222000", "183333.225000", "183333.228000", "183333.230000", "183333.233000", "183333.236000", "183333.239000", "183333.242000", "183333.245000", "183333.248000", "183333.251000", "183333.254000", "183413.177000", "183413.180000", "183413.183000", "183413.186000", "183413.189000", "183413.205000", "183413.208000", "183413.211000", "183413.214000", "183413.217000", "183413.220000", "183413.223000", "183413.255000", "183413.258000", "183413.261000", "183413.264000", "183413.266000", "183413.269000", "183413.272000", "183413.275000", "183413.278000", "183413.281000", "183413.284000", "183413.287000", "183413.290000", "183413.292000", "183413.295000", "183453.177000", "183453.180000", "183453.183000", "183453.186000", "183453.189000", "183453.192000", "183453.195000", "183453.198000", "183453.200000", "183453.204000", "183453.207000", "183453.210000", "183453.213000", "183453.216000", "183453.219000", "183453.222000", "183453.225000", "183453.228000", "183453.231000", "183453.234000", "183453.237000", "183453.240000", "183453.243000", "183453.245000", "183453.248000", "183453.251000", "183453.254000", "183533.193000", "183533.196000", "183533.199000", "183533.202000", "183533.205000", "183533.208000", "183533.211000", "183533.214000", "183533.217000", "183533.220000", "183533.223000", "183533.226000", "183533.229000", "183533.232000", "183533.235000", "183533.238000", "183533.241000", "183533.244000", "183533.247000", "183533.250000", "183533.252000", "183533.255000", "183533.258000", "183533.261000", "183533.264000", "183533.267000", "183533.270000", "183613.177000", "183613.180000", "183613.183000", "183613.186000", "183613.189000", "183613.192000", "183613.195000", "183613.198000", "183613.201000", "183613.204000", "183613.206000", "183613.209000", "183613.212000", "183613.215000", "183613.218000", "183613.221000", "183613.224000", "183613.227000", "183613.230000", "183613.233000", "183613.235000", "183613.238000", "183613.241000", "183613.244000", "183613.247000", "183613.250000", "183613.253000", "183653.177000", "183653.198000", "183653.201000", "183653.204000", "183653.207000", "183653.209000", "183653.212000", "183653.215000", "183653.218000", "183653.221000", "183653.224000", "183653.227000", "183653.230000", "183653.233000", "183653.236000", "183653.238000", "183653.241000", "183653.244000", "183653.247000", "183653.250000", "183653.253000", "183653.256000", "183653.259000", "183653.262000", "183653.265000", "183653.268000", "183653.270000", "183733.178000", "183733.182000", "183733.185000", "183733.188000", "183733.191000", "183733.194000", "183733.197000", "183733.200000", "183733.203000", "183733.224000", "183733.227000", "183733.230000", "183733.233000", "183733.236000", "183733.239000", "183733.242000", "183733.245000", "183733.248000", "183733.265000", "183733.268000", "183733.271000", "183733.274000", "183733.277000", "183733.280000", "183733.283000", "183733.285000", "183748.253000", "183748.257000", "183748.260000", "183748.263000", "183748.265000", "183748.268000", "183748.272000", "183748.274000", "183748.277000", "183748.280000", "183748.283000"],
