{
  "AcquisitionMatrixPE": 104,
  "AcquisitionNumber": 1,
  "AcquisitionTime": "19:30:2.542500",
  "BandwidthPerPixelPhaseEncode": 17.17,
  "BaseResolution": 104,
  "BodyPartExamined": "BRAIN",
  "CoilString": "HC1-7;NC1_2",
  "ConsistencyInfo": "N4_VE11C_LATEST_20160120",
  "ConversionSoftware": "dcm2niix",
  "ConversionSoftwareVersion": "v1.0.20190902",
  "DerivedVendorReportedEchoSpacing": 0.000560011,
  "DeviceSerialNumber": "167006",
  "DwellTime": 2.1e-06,
  "EchoTime": 0.037,
  "EchoTrainLength": 104,
  "EffectiveEchoSpacing": 0.000560011,
  "FlipAngle": 52,
  "HeudiconvVersion": "0.10.0",
  "ImageComments": "Unaliased_MB4_PE3_LB",
  "ImageOrientationPatientDICOM": [0.998802, -0.0485271, -0.0063397, 0.0429101, 0.930659, -0.363362],
  "ImageType": [
    "ORIGINAL",
    "PRIMARY",
    "M",
    "MB",
    "ND",
    "MOSAIC"
],
  "ImagingFrequency": 123.259,
  "InPlanePhaseEncodingDirectionDICOM": "COL",
  "InstitutionAddress": "Chemin_Queen-Mary_4565_Montreal_District_CA_H3W_1W5",
  "InstitutionName": "IUGM",
  "InstitutionalDepartmentName": "Department",
  "MRAcquisitionType": "2D",
  "MagneticFieldStrength": 3,
  "Manufacturer": "Siemens",
  "ManufacturersModelName": "Prisma_fit",
  "Modality": "MR",
  "MultibandAccelerationFactor": 4,
  "PartialFourier": 1,
  "PatientPosition": "HFS",
  "PercentPhaseFOV": 100,
  "PhaseEncodingDirection": "j",
  "PhaseEncodingSteps": 104,
  "PhaseResolution": 1,
  "PixelBandwidth": 2290,
  "ProcedureStepDescription": "video_friends",
  "ProtocolName": "func_task-friends-s05e06b",
  "PulseSequenceDetails": "%CustomerSeq%_cmrr_mbep2d_bold",
  "ReceiveCoilActiveElements": "HC1-7;NC1,2",
  "ReceiveCoilName": "HeadNeck_64",
  "ReconMatrixPE": 104,
  "RepetitionTime": 1.49,
  "SAR": 0.0362875,
  "ScanOptions": "FS",
  "ScanningSequence": "EP",
  "SequenceName": "epfid2d1_104",
  "SequenceVariant": "SK_SS",
  "SeriesDescription": "func_task-friends-s05e06b",
  "SeriesNumber": 31,
  "ShimSetting": [618, -7287, -8799, 491, 8, -393, 37, 42],
  "SliceThickness": 2,
  "SliceTiming": [0, 0.7825, 0.0975, 0.88, 0.195, 0.98, 0.2925, 1.0775, 0.39, 1.175, 0.49, 1.2725, 0.5875, 1.37, 0.685, 0, 0.7825, 0.0975, 0.88, 0.195, 0.98, 0.2925, 1.0775, 0.39, 1.175, 0.49, 1.2725, 0.5875, 1.37, 0.685, 0, 0.7825, 0.0975, 0.88, 0.195, 0.98, 0.2925, 1.0775, 0.39, 1.175, 0.49, 1.2725, 0.5875, 1.37, 0.685, 0, 0.7825, 0.0975, 0.88, 0.195, 0.98, 0.2925, 1.0775, 0.39, 1.175, 0.49, 1.2725, 0.5875, 1.37, 0.685],
  "SoftwareVersions": "syngo_MR_E11",
  "SpacingBetweenSlices": 2,
  "StationName": "MRC35049",
  "TaskName": "s05e06b",
  "TotalReadoutTime": 0.0576811,
  "TxRefAmp": 238.692,
  "WipMemBlock": "828cfac3-0378-4100-b1d7-9ca42898f1db||Sequence: R016 ve11c/master r/e634e98; Dec 19 2017 11:00:25 by eja",
  "dcmmeta_affine": [
    [-1.9976035356521606, 0.08582010120153427, -0.047066010534763336, 96.78439331054688],
    [0.09705427289009094, 1.861318826675415, -0.7253085970878601, -76.20880889892578],
    [-0.012679396197199821, 0.7267234921455383, 1.863253116607666, -54.631744384765625],
    [0.0, 0.0, 0.0, 1.0]
],
  "dcmmeta_reorient_transform": [
    [0.0, -1.0, 0.0, 103.0],
    [1.0, 0.0, 0.0, 0.0],
    [0.0, 0.0, 1.0, 0.0],
    [0.0, 0.0, 0.0, 1.0]
],
  "dcmmeta_shape": [104, 104, 60, 493],
  "dcmmeta_slice_dim": 2,
  "dcmmeta_version": 0.6,
  "global": {
    "const": {
      "AcquisitionMatrix": [104, 0, 0, 104],
      "AngioFlag": "N",
      "BitsAllocated": 16,
      "BitsStored": 16,
      "BodyPartExamined": "BRAIN",
      "Columns": 832,
      "EchoNumbers": 1,
      "EchoTime": 37.0,
      "EchoTrainLength": 104,
      "FlipAngle": 52.0,
      "HighBit": 15,
      "ImageOrientationPatient": [0.99880174477239, -0.0485271353911, -0.0063396979714, 0.04291004937916, 0.93065942539998, -0.3633617502936],
      "ImagePositionPatient": [-863.99005038439, -757.6993374279, 289.36342883953],
      "ImageType": [
        "ORIGINAL",
        "PRIMARY",
        "M",
        "MB",
        "ND",
        "MOSAIC"
],
      "ImagedNucleus": "1H",
      "ImagingFrequency": 123.258916,
      "InPlanePhaseEncodingDirection": "COL",
      "MRAcquisitionType": "2D",
      "MagneticFieldStrength": 3.0,
      "Manufacturer": "SIEMENS",
      "ManufacturerModelName": "Prisma_fit",
      "Modality": "MR",
      "NumberOfAverages": 1.0,
      "NumberOfPhaseEncodingSteps": 104,
      "PercentPhaseFieldOfView": 100.0,
      "PercentSampling": 100.0,
      "PerformedProcedureStepStartTime": "163558.791000",
      "PhotometricInterpretation": "MONOCHROME2",
      "PixelBandwidth": 2290.0,
      "PixelRepresentation": 0,
      "PixelSpacing": [2.0, 2.0],
      "ProtocolName": "func_task-friends-s05e06b",
      "RepetitionTime": 1490.0,
      "Rows": 832,
      "SAR": 0.03628753928439,
      "SamplesPerPixel": 1,
      "ScanOptions": "FS",
      "ScanningSequence": "EP",
      "SequenceName": "epfid2d1_104",
      "SequenceVariant": [
        "SK",
        "SS"
],
      "SeriesDescription": "func_task-friends-s05e06b",
      "SeriesNumber": 31,
      "SeriesTime": "193111.594000",
      "SliceLocation": -25.536559061191,
      "SliceThickness": 2.0,
      "SmallestImagePixelValue": 0,
      "SoftwareVersions": "syngo MR E11",
      "SpacingBetweenSlices": 1.9999999934882,
      "SpecificCharacterSet": "ISO_IR 100",
      "StudyID": "1",
      "StudyTime": "163558.733000",
      "TransmitCoilName": "Body",
      "VariableFlipAngleFlag": "N",
      "WindowCenterWidthExplanation": "Algo1",
      "dBdt": 0.0},
    "slices": {}
  },
  "time": {
    "samples": {
      "AcquisitionNumber": [1, 2, 3, 4, 5, 6, 7, 8, 9, 10, 11, 12, 13, 14, 15, 16, 17, 18, 19, 20, 21, 22, 23, 24, 25, 26, 27, 28, 29, 30, 31, 32, 33, 34, 35, 36, 37, 38, 39, 40, 41, 42, 43, 44, 45, 46, 47, 48, 49, 50, 51, 52, 53, 54, 55, 56, 57, 58, 59, 60, 61, 62, 63, 64, 65, 66, 67, 68, 69, 70, 71, 72, 73, 74, 75, 76, 77, 78, 79, 80, 81, 82, 83, 84, 85, 86, 87, 88, 89, 90, 91, 92, 93, 94, 95, 96, 97, 98, 99, 100, 101, 102, 103, 104, 105, 106, 107, 108, 109, 110, 111, 112, 113, 114, 115, 116, 117, 118, 119, 120, 121, 122, 123, 124, 125, 126, 127, 128, 129, 130, 131, 132, 133, 134, 135, 136, 137, 138, 139, 140, 141, 142, 143, 144, 145, 146, 147, 148, 149, 150, 151, 152, 153, 154, 155, 156, 157, 158, 159, 160, 161, 162, 163, 164, 165, 166, 167, 168, 169, 170, 171, 172, 173, 174, 175, 176, 177, 178, 179, 180, 181, 182, 183, 184, 185, 186, 187, 188, 189, 190, 191, 192, 193, 194, 195, 196, 197, 198, 199, 200, 201, 202, 203, 204, 205, 206, 207, 208, 209, 210, 211, 212, 213, 214, 215, 216, 217, 218, 219, 220, 221, 222, 223, 224, 225, 226, 227, 228, 229, 230, 231, 232, 233, 234, 235, 236, 237, 238, 239, 240, 241, 242, 243, 244, 245, 246, 247, 248, 249, 250, 251, 252, 253, 254, 255, 256, 257, 258, 259, 260, 261, 262, 263, 264, 265, 266, 267, 268, 269, 270, 271, 272, 273, 274, 275, 276, 277, 278, 279, 280, 281, 282, 283, 284, 285, 286, 287, 288, 289, 290, 291, 292, 293, 294, 295, 296, 297, 298, 299, 300, 301, 302, 303, 304, 305, 306, 307, 308, 309, 310, 311, 312, 313, 314, 315, 316, 317, 318, 319, 320, 321, 322, 323, 324, 325, 326, 327, 328, 329, 330, 331, 332, 333, 334, 335, 336, 337, 338, 339, 340, 341, 342, 343, 344, 345, 346, 347, 348, 349, 350, 351, 352, 353, 354, 355, 356, 357, 358, 359, 360, 361, 362, 363, 364, 365, 366, 367, 368, 369, 370, 371, 372, 373, 374, 375, 376, 377, 378, 379, 380, 381, 382, 383, 384, 385, 386, 387, 388, 389, 390, 391, 392, 393, 394, 395, 396, 397, 398, 399, 400, 401, 402, 403, 404, 405, 406, 407, 408, 409, 410, 411, 412, 413, 414, 415, 416, 417, 418, 419, 420, 421, 422, 423, 424, 425, 426, 427, 428, 429, 430, 431, 432, 433, 434, 435, 436, 437, 438, 439, 440, 441, 442, 443, 444, 445, 446, 447, 448, 449, 450, 451, 452, 453, 454, 455, 456, 457, 458, 459, 460, 461, 462, 463, 464, 465, 466, 467, 468, 469, 470, 471, 472, 473, 474, 475, 476, 477, 478, 479, 480, 481, 482, 483, 484, 485, 486, 487, 488, 489, 490, 491, 492, 493],
      "AcquisitionTime": ["193002.542500", "193004.032500", "193005.522500", "193007.012500", "193008.502500", "193009.992500", "193011.482500", "193012.972500", "193014.462500", "193015.952500", "193017.442500", "193018.932500", "193020.422500", "193021.912500", "193023.402500", "193024.892500", "193026.382500", "193027.872500", "193029.362500", "193030.852500", "193032.342500", "193033.832500", "193035.322500", "193036.812500", "193038.302500", "193039.792500", "193041.282500", "193042.772500", "193044.262500", "193045.752500", "193047.242500", "193048.732500", "193050.222500", "193051.712500", "193053.202500", "193054.692500", "193056.182500", "193057.672500", "193059.162500", "193100.652500", "193102.142500", "193103.632500", "193105.122500", "193106.612500", "193108.102500", "193109.592500", "193111.082500", "193112.572500", "193114.062500", "193115.552500", "193117.042500", "193118.532500", "193120.022500", "193121.512500", "193123.002500", "193124.492500", "193125.982500", "193127.472500", "193128.962500", "193130.452500", "193131.942500", "193133.432500", "193134.922500", "193136.412500", "193137.902500", "193139.392500", "193140.882500", "193142.372500", "193143.862500", "193145.352500", "193146.842500", "193148.332500", "193149.822500", "193151.312500", "193152.802500", "193154.292500", "193155.782500", "193157.272500", "193158.762500", "193200.252500", "193201.742500", "193203.232500", "193204.722500", "193206.212500", "193207.702500", "193209.192500", "193210.682500", "193212.172500", "193213.662500", "193215.152500", "193216.642500", "193218.132500", "193219.622500", "193221.112500", "193222.602500", "193224.092500", "193225.582500", "193227.072500", "193228.562500", "193230.052500", "193231.542500", "193233.032500", "193234.522500", "193236.012500", "193237.502500", "193238.992500", "193240.482500", "193241.972500", "193243.462500", "193244.952500", "193246.442500", "193247.932500", "193249.422500", "193250.912500", "193252.402500", "193253.892500", "193255.382500", "193256.872500", "193258.362500", "193259.852500", "193301.342500", "193302.832500", "193304.322500", "193305.812500", "193307.302500", "193308.792500", "193310.282500", "193311.772500", "193313.262500", "193314.752500", "193316.242500", "193317.732500", "193319.222500", "193320.712500", "193322.202500", "193323.692500", "193325.182500", "193326.672500", "193328.162500", "193329.652500", "193331.142500", "193332.632500", "193334.122500", "193335.612500", "193337.102500", "193338.592500", "193340.082500", "193341.572500", "193343.062500", "193344.552500", "193346.042500", "193347.532500", "193349.022500", "193350.512500", "193352.002500", "193353.492500", "193354.982500", "193356.472500", "193357.962500", "193359.452500", "193400.942500", "193402.432500", "193403.922500", "193405.412500", "193406.902500", "193408.392500", "193409.882500", "193411.372500", "193412.862500", "193414.352500", "193415.842500", "193417.332500", "193418.822500", "193420.312500", "193421.802500", "193423.292500", "193424.782500", "193426.272500", "193427.762500", "193429.252500", "193430.742500", "193432.232500", "193433.722500", "193435.212500", "193436.702500", "193438.192500", "193439.682500", "193441.172500", "193442.662500", "193444.152500", "193445.642500", "193447.132500", "193448.622500", "193450.112500", "193451.602500", "193453.092500", "193454.582500", "193456.072500", "193457.562500", "193459.052500", "193500.542500", "193502.032500", "193503.522500", "193505.012500", "193506.502500", "193507.992500", "193509.482500", "193510.972500", "193512.462500", "193513.952500", "193515.442500", "193516.932500", "193518.422500", "193519.912500", "193521.402500", "193522.892500", "193524.382500", "193525.872500", "193527.362500", "193528.852500", "193530.342500", "193531.832500", "193533.322500", "193534.812500", "193536.302500", "193537.792500", "193539.282500", "193540.772500", "193542.262500", "193543.752500", "193545.242500", "193546.732500", "193548.222500", "193549.712500", "193551.202500", "193552.692500", "193554.182500", "193555.672500", "193557.162500", "193558.652500", "193600.142500", "193601.632500", "193603.122500", "193604.612500", "193606.102500", "193607.592500", "193609.082500", "193610.572500", "193612.062500", "193613.552500", "193615.042500", "193616.532500", "193618.022500", "193619.512500", "193621.002500", "193622.492500", "193623.982500", "193625.472500", "193626.962500", "193628.452500", "193629.942500", "193631.432500", "193632.922500", "193634.412500", "193635.902500", "193637.392500", "193638.882500", "193640.372500", "193641.862500", "193643.352500", "193644.842500", "193646.332500", "193647.822500", "193649.312500", "193650.802500", "193652.292500", "193653.782500", "193655.272500", "193656.762500", "193658.252500", "193659.742500", "193701.232500", "193702.722500", "193704.212500", "193705.702500", "193707.192500", "193708.682500", "193710.172500", "193711.662500", "193713.152500", "193714.642500", "193716.132500", "193717.622500", "193719.112500", "193720.602500", "193722.092500", "193723.582500", "193725.072500", "193726.562500", "193728.052500", "193729.542500", "193731.032500", "193732.522500", "193734.012500", "193735.502500", "193736.992500", "193738.482500", "193739.972500", "193741.462500", "193742.952500", "193744.442500", "193745.932500", "193747.422500", "193748.912500", "193750.402500", "193751.892500", "193753.382500", "193754.872500", "193756.362500", "193757.852500", "193759.342500", "193800.832500", "193802.322500", "193803.812500", "193805.302500", "193806.792500", "193808.282500", "193809.772500", "193811.262500", "193812.752500", "193814.242500", "193815.732500", "193817.222500", "193818.712500", "193820.202500", "193821.692500", "193823.182500", "193824.672500", "193826.162500", "193827.652500", "193829.142500", "193830.632500", "193832.122500", "193833.612500", "193835.102500", "193836.592500", "193838.082500", "193839.572500", "193841.062500", "193842.552500", "193844.042500", "193845.532500", "193847.022500", "193848.512500", "193850.002500", "193851.492500", "193852.982500", "193854.472500", "193855.962500", "193857.452500", "193858.942500", "193900.432500", "193901.922500", "193903.412500", "193904.902500", "193906.392500", "193907.882500", "193909.372500", "193910.862500", "193912.352500", "193913.842500", "193915.332500", "193916.822500", "193918.312500", "193919.802500", "193921.292500", "193922.782500", "193924.272500", "193925.762500", "193927.252500", "193928.742500", "193930.232500", "193931.722500", "193933.212500", "193934.702500", "193936.192500", "193937.682500", "193939.172500", "193940.662500", "193942.152500", "193943.642500", "193945.132500", "193946.622500", "193948.112500", "193949.602500", "193951.092500", "193952.582500", "193954.072500", "193955.562500", "193957.052500", "193958.542500", "194000.032500", "194001.522500", "194003.012500", "194004.502500", "194005.992500", "194007.482500", "194008.972500", "194010.462500", "194011.952500", "194013.442500", "194014.932500", "194016.422500", "194017.912500", "194019.402500", "194020.892500", "194022.382500", "194023.872500", "194025.362500", "194026.852500", "194028.342500", "194029.832500", "194031.322500", "194032.812500", "194034.302500", "194035.792500", "194037.282500", "194038.772500", "194040.262500", "194041.752500", "194043.242500", "194044.732500", "194046.222500", "194047.712500", "194049.202500", "194050.692500", "194052.182500", "194053.672500", "194055.162500", "194056.652500", "194058.142500", "194059.632500", "194101.122500", "194102.612500", "194104.102500", "194105.592500", "194107.082500", "194108.572500", "194110.062500", "194111.552500", "194113.042500", "194114.532500", "194116.022500", "194117.512500", "194119.002500", "194120.492500", "194121.982500", "194123.472500", "194124.962500", "194126.452500", "194127.942500", "194129.432500", "194130.922500", "194132.412500", "194133.902500", "194135.392500", "194136.882500", "194138.372500", "194139.862500", "194141.352500", "194142.842500", "194144.332500", "194145.822500", "194147.312500", "194148.802500", "194150.292500", "194151.782500", "194153.272500", "194154.762500", "194156.252500", "194157.742500", "194159.232500", "194200.722500", "194202.212500", "194203.702500", "194205.192500", "194206.682500", "194208.172500", "194209.662500", "194211.152500", "194212.642500", "194214.132500", "194215.622500"],
      "ContentTime": ["193111.597000", "193111.601000", "193111.604000", "193111.607000", "193111.609000", "193111.612000", "193111.615000", "193111.625000", "193111.628000", "193111.631000", "193111.634000", "193111.636000", "193111.639000", "193111.642000", "193111.645000", "193111.650000", "193131.558000", "193131.561000", "193131.564000", "193131.567000", "193131.570000", "193131.572000", "193131.576000", "193131.578000", "193131.581000", "193131.584000", "193131.587000", "193131.590000", "193131.593000", "193131.601000", "193131.604000", "193131.607000", "193131.610000", "193131.613000", "193131.616000", "193131.618000", "193151.558000", "193151.561000", "193151.564000", "193151.567000", "193151.570000", "193151.573000", "193151.576000", "193151.579000", "193151.582000", "193151.585000", "193151.587000", "193151.590000", "193151.593000", "193151.596000", "193151.599000", "193151.608000", "193151.611000", "193151.614000", "193151.617000", "193151.620000", "193211.557000", "193211.560000", "193211.563000", "193211.566000", "193211.569000", "193211.572000", "193211.575000", "193211.578000", "193211.581000", "193211.584000", "193211.587000", "193211.590000", "193211.593000", "193211.595000", "193211.598000", "193211.601000", "193211.604000", "193211.607000", "193211.610000", "193211.613000", "193231.557000", "193231.560000", "193231.563000", "193231.566000", "193231.569000", "193231.571000", "193231.574000", "193231.577000", "193231.580000", "193231.583000", "193231.586000", "193231.589000", "193231.592000", "193231.595000", "193231.598000", "193231.600000", "193231.603000", "193231.606000", "193231.609000", "193231.612000", "193231.615000", "193311.557000", "193311.560000", "193311.563000", "193311.566000", "193311.569000", "193311.572000", "193311.575000", "193311.578000", "193311.581000", "193311.584000", "193311.587000", "193311.590000", "193311.593000", "193311.596000", "193311.598000", "193311.601000", "193311.604000", "193311.607000", "193311.610000", "193311.613000", "193311.616000", "193311.619000", "193311.622000", "193311.625000", "193311.627000", "193311.630000", "193311.633000", "193311.636000", "193311.639000", "193351.558000", "193351.561000", "193351.564000", "193351.567000", "193351.570000", "193351.573000", "193351.576000", "193351.579000", "193351.582000", "193351.585000", "193351.588000", "193351.590000", "193351.593000", "193351.596000", "193351.599000", "193351.602000", "193351.605000", "193351.608000", "193351.611000", "193351.614000", "193351.631000", "193351.634000", "193351.637000", "193351.640000", "193351.643000", "193351.646000", "193351.648000", "193431.557000", "193431.560000", "193431.563000", "193431.566000", "193431.569000", "193431.572000", "193431.575000", "193431.578000", "193431.581000", "193431.584000", "193431.587000", "193431.590000", "193431.593000", "193431.595000", "193431.598000", "193431.601000", "193431.604000", "193431.607000", "193431.610000", "193431.613000", "193431.616000", "193431.619000", "193431.622000", "193431.630000", "193431.633000", "193431.636000", "193431.639000", "193511.557000", "193511.560000", "193511.563000", "193511.566000", "193511.569000", "193511.572000", "193511.575000", "193511.578000", "193511.581000", "193511.584000", "193511.587000", "193511.590000", "193511.593000", "193511.596000", "193511.599000", "193511.602000", "193511.605000", "193511.607000", "193511.610000", "193511.613000", "193511.616000", "193511.619000", "193511.622000", "193511.625000", "193511.628000", "193511.631000", "193511.634000", "193551.558000", "193551.561000", "193551.564000", "193551.567000", "193551.570000", "193551.573000", "193551.576000", "193551.579000", "193551.582000", "193551.585000", "193551.588000", "193551.591000", "193551.594000", "193551.596000", "193551.599000", "193551.602000", "193551.605000", "193551.608000", "193551.611000", "193551.614000", "193551.617000", "193551.620000", "193551.623000", "193551.626000", "193551.629000", "193551.632000", "193551.634000", "193631.558000", "193631.561000", "193631.564000", "193631.567000", "193631.570000", "193631.573000", "193631.576000", "193631.579000", "193631.582000", "193631.585000", "193631.587000", "193631.590000", "193631.593000", "193631.596000", "193631.599000", "193631.602000", "193631.605000", "193631.608000", "193631.611000", "193631.614000", "193631.617000", "193631.621000", "193631.624000", "193631.627000", "193631.630000", "193631.633000", "193711.557000", "193711.560000", "193711.563000", "193711.566000", "193711.569000", "193711.572000", "193711.575000", "193711.578000", "193711.581000", "193711.584000", "193711.587000", "193711.590000", "193711.592000", "193711.595000", "193711.598000", "193711.601000", "193711.604000", "193711.607000", "193711.610000", "193711.613000", "193711.616000", "193711.619000", "193711.622000", "193711.625000", "193711.628000", "193711.631000", "193711.633000", "193751.557000", "193751.560000", "193751.563000", "193751.566000", "193751.569000", "193751.572000", "193751.575000", "193751.578000", "193751.581000", "193751.584000", "193751.586000", "193751.589000", "193751.592000", "193751.595000", "193751.598000", "193751.601000", "193751.604000", "193751.607000", "193751.610000", "193751.613000", "193751.616000", "193751.619000", "193751.622000", "193751.624000", "193751.627000", "193751.630000", "193751.633000", "193831.558000", "193831.561000", "193831.564000", "193831.567000", "193831.570000", "193831.573000", "193831.576000", "193831.579000", "193831.582000", "193831.585000", "193831.588000", "193831.590000", "193831.593000", "193831.596000", "193831.599000", "193831.602000", "193831.605000", "193831.608000", "193831.611000", "193831.614000", "193831.617000", "193831.620000", "193831.623000", "193831.626000", "193831.629000", "193831.631000", "193831.634000", "193911.557000", "193911.560000", "193911.563000", "193911.566000", "193911.569000", "193911.572000", "193911.575000", "193911.578000", "193911.581000", "193911.584000", "193911.587000", "193911.590000", "193911.592000", "193911.595000", "193911.598000", "193911.601000", "193911.604000", "193911.607000", "193911.610000", "193911.613000", "193911.616000", "193911.619000", "193911.622000", "193911.625000", "193911.628000", "193911.630000", "193911.633000", "193951.557000", "193951.560000", "193951.563000", "193951.566000", "193951.569000", "193951.572000", "193951.575000", "193951.578000", "193951.581000", "193951.584000", "193951.587000", "193951.589000", "193951.592000", "193951.595000", "193951.598000", "193951.601000", "193951.604000", "193951.607000", "193951.610000", "193951.613000", "193951.616000", "193951.619000", "193951.622000", "193951.624000", "193951.627000", "193951.630000", "193951.633000", "194011.557000", "194011.560000", "194011.563000", "194011.566000", "194011.569000", "194011.572000", "194011.575000", "194011.578000", "194011.581000", "194011.584000", "194011.587000", "194011.590000", "194011.592000", "194051.558000", "194051.561000", "194051.564000", "194051.567000", "194051.570000", "194051.573000", "194051.577000", "194051.580000", "194051.583000", "194051.586000", "194051.589000", "194051.592000", "194051.595000", "194051.597000", "194051.600000", "194051.603000", "194051.606000", "194051.609000", "194051.612000", "194051.615000", "194051.618000", "194051.621000", "194051.624000", "194051.627000", "194051.630000", "194051.633000", "194051.635000", "194131.557000", "194131.560000", "194131.563000", "194131.566000", "194131.569000", "194131.572000", "194131.575000", "194131.578000", "194131.581000", "194131.584000", "194131.587000", "194131.590000", "194131.593000", "194131.596000", "194131.598000", "194131.601000", "194131.604000", "194131.607000", "194131.610000", "194131.613000", "194131.616000", "194131.619000", "194131.622000", "194131.625000", "194131.628000", "194131.631000", "194131.634000", "194211.557000", "194211.560000", "194211.563000", "194211.566000", "194211.569000", "194211.572000", "194211.575000", "194211.578000", "194211.581000", "194211.584000", "194211.587000", "194211.590000", "194211.592000", "194211.595000", "194211.598000", "194211.601000", "194211.604000", "194211.607000", "194211.610000", "194211.613000", "194211.616000", "194211.619000", "194211.622000", "194211.625000", "194211.628000", "194211.631000", "194211.634000", "194217.469000", "194217.472000", "194217.475000", "194217.478000"],
