{
  "AcquisitionMatrixPE": 104,
  "AcquisitionNumber": 1,
  "AcquisitionTime": "18:51:40.800000",
  "BandwidthPerPixelPhaseEncode": 17.17,
  "BaseResolution": 104,
  "BodyPartExamined": "BRAIN",
  "CoilString": "HC1-7;NC1_2",
  "ConsistencyInfo": "N4_VE11C_LATEST_20160120",
  "ConversionSoftware": "dcm2niix",
  "ConversionSoftwareVersion": "v1.0.20190902",
  "DerivedVendorReportedEchoSpacing": 0.000560011,
  "DeviceSerialNumber": "167006",
  "DwellTime": 2.1e-06,
  "EchoTime": 0.037,
  "EchoTrainLength": 104,
  "EffectiveEchoSpacing": 0.000560011,
  "FlipAngle": 52,
  "HeudiconvVersion": "0.10.0",
  "ImageComments": "Unaliased_MB4_PE3_LB",
  "ImageOrientationPatientDICOM": [0.998802, -0.0485271, -0.0063397, 0.0429101, 0.930659, -0.363362],
  "ImageType": [
    "ORIGINAL",
    "PRIMARY",
    "M",
    "MB",
    "ND",
    "MOSAIC"
],
  "ImagingFrequency": 123.259,
  "InPlanePhaseEncodingDirectionDICOM": "COL",
  "InstitutionAddress": "Chemin_Queen-Mary_4565_Montreal_District_CA_H3W_1W5",
  "InstitutionName": "IUGM",
  "InstitutionalDepartmentName": "Department",
  "MRAcquisitionType": "2D",
  "MagneticFieldStrength": 3,
  "Manufacturer": "Siemens",
  "ManufacturersModelName": "Prisma_fit",
  "Modality": "MR",
  "MultibandAccelerationFactor": 4,
  "PartialFourier": 1,
  "PatientPosition": "HFS",
  "PercentPhaseFOV": 100,
  "PhaseEncodingDirection": "j",
  "PhaseEncodingSteps": 104,
  "PhaseResolution": 1,
  "PixelBandwidth": 2290,
  "ProcedureStepDescription": "video_friends",
  "ProtocolName": "func_task-friends-s05e05a",
  "PulseSequenceDetails": "%CustomerSeq%_cmrr_mbep2d_bold",
  "ReceiveCoilActiveElements": "HC1-7;NC1,2",
  "ReceiveCoilName": "HeadNeck_64",
  "ReconMatrixPE": 104,
  "RepetitionTime": 1.49,
  "SAR": 0.0362854,
  "ScanOptions": "FS",
  "ScanningSequence": "EP",
  "SequenceName": "epfid2d1_104",
  "SequenceVariant": "SK_SS",
  "SeriesDescription": "func_task-friends-s05e05a",
  "SeriesNumber": 25,
  "ShimSetting": [618, -7287, -8799, 491, 8, -393, 37, 42],
  "SliceThickness": 2,
  "SliceTiming": [0, 0.785, 0.0975, 0.8825, 0.1975, 0.98, 0.295, 1.0775, 0.3925, 1.1775, 0.49, 1.275, 0.5875, 1.3725, 0.6875, 0, 0.785, 0.0975, 0.8825, 0.1975, 0.98, 0.295, 1.0775, 0.3925, 1.1775, 0.49, 1.275, 0.5875, 1.3725, 0.6875, 0, 0.785, 0.0975, 0.8825, 0.1975, 0.98, 0.295, 1.0775, 0.3925, 1.1775, 0.49, 1.275, 0.5875, 1.3725, 0.6875, 0, 0.785, 0.0975, 0.8825, 0.1975, 0.98, 0.295, 1.0775, 0.3925, 1.1775, 0.49, 1.275, 0.5875, 1.3725, 0.6875],
  "SoftwareVersions": "syngo_MR_E11",
  "SpacingBetweenSlices": 2,
  "StationName": "MRC35049",
  "TaskName": "s05e05a",
  "TotalReadoutTime": 0.0576811,
  "TxRefAmp": 238.692,
  "WipMemBlock": "029d972a-feb5-47a0-87b2-76736f794746||Sequence: R016 ve11c/master r/e634e98; Dec 19 2017 11:00:25 by eja",
  "dcmmeta_affine": [
    [-1.9976035356521606, 0.08582010120153427, -0.047066010534763336, 96.78439331054688],
    [0.09705427289009094, 1.861318826675415, -0.7253085970878601, -76.20880889892578],
    [-0.012679396197199821, 0.7267234921455383, 1.863253116607666, -54.631744384765625],
    [0.0, 0.0, 0.0, 1.0]
],
  "dcmmeta_reorient_transform": [
    [0.0, -1.0, 0.0, 103.0],
    [1.0, 0.0, 0.0, 0.0],
    [0.0, 0.0, 1.0, 0.0],
    [0.0, 0.0, 0.0, 1.0]
],
  "dcmmeta_shape": [104, 104, 60, 486],
  "dcmmeta_slice_dim": 2,
  "dcmmeta_version": 0.6,
  "global": {
    "const": {
      "AcquisitionMatrix": [104, 0, 0, 104],
      "AngioFlag": "N",
      "BitsAllocated": 16,
      "BitsStored": 16,
      "BodyPartExamined": "BRAIN",
      "Columns": 832,
      "EchoNumbers": 1,
      "EchoTime": 37.0,
      "EchoTrainLength": 104,
      "FlipAngle": 52.0,
      "HighBit": 15,
      "ImageOrientationPatient": [0.99880174477239, -0.0485271353911, -0.0063396979714, 0.04291004937916, 0.93065942539998, -0.3633617502936],
      "ImagePositionPatient": [-863.99005038439, -757.6993374279, 289.36342883953],
      "ImageType": [
        "ORIGINAL",
        "PRIMARY",
        "M",
        "MB",
        "ND",
        "MOSAIC"
],
      "ImagedNucleus": "1H",
      "ImagingFrequency": 123.258913,
      "InPlanePhaseEncodingDirection": "COL",
      "MRAcquisitionType": "2D",
      "MagneticFieldStrength": 3.0,
      "Manufacturer": "SIEMENS",
      "ManufacturerModelName": "Prisma_fit",
      "Modality": "MR",
      "NumberOfAverages": 1.0,
      "NumberOfPhaseEncodingSteps": 104,
      "PercentPhaseFieldOfView": 100.0,
      "PercentSampling": 100.0,
      "PerformedProcedureStepStartTime": "163558.791000",
      "PhotometricInterpretation": "MONOCHROME2",
      "PixelBandwidth": 2290.0,
      "PixelRepresentation": 0,
      "PixelSpacing": [2.0, 2.0],
      "ProtocolName": "func_task-friends-s05e05a",
      "RepetitionTime": 1490.0,
      "Rows": 832,
      "SAR": 0.03628544447398,
      "SamplesPerPixel": 1,
      "ScanOptions": "FS",
      "ScanningSequence": "EP",
      "SequenceName": "epfid2d1_104",
      "SequenceVariant": [
        "SK",
        "SS"
],
      "SeriesDescription": "func_task-friends-s05e05a",
      "SeriesNumber": 25,
      "SeriesTime": "185311.595000",
      "SliceLocation": -25.536559061191,
      "SliceThickness": 2.0,
      "SmallestImagePixelValue": 0,
      "SoftwareVersions": "syngo MR E11",
      "SpacingBetweenSlices": 1.9999999934882,
      "SpecificCharacterSet": "ISO_IR 100",
      "StudyID": "1",
      "StudyTime": "163558.733000",
      "TransmitCoilName": "Body",
      "VariableFlipAngleFlag": "N",
      "WindowCenterWidthExplanation": "Algo1",
      "dBdt": 0.0},
    "slices": {}
  },
  "time": {
    "samples": {
      "AcquisitionNumber": [1, 2, 3, 4, 5, 6, 7, 8, 9, 10, 11, 12, 13, 14, 15, 16, 17, 18, 19, 20, 21, 22, 23, 24, 25, 26, 27, 28, 29, 30, 31, 32, 33, 34, 35, 36, 37, 38, 39, 40, 41, 42, 43, 44, 45, 46, 47, 48, 49, 50, 51, 52, 53, 54, 55, 56, 57, 58, 59, 60, 61, 62, 63, 64, 65, 66, 67, 68, 69, 70, 71, 72, 73, 74, 75, 76, 77, 78, 79, 80, 81, 82, 83, 84, 85, 86, 87, 88, 89, 90, 91, 92, 93, 94, 95, 96, 97, 98, 99, 100, 101, 102, 103, 104, 105, 106, 107, 108, 109, 110, 111, 112, 113, 114, 115, 116, 117, 118, 119, 120, 121, 122, 123, 124, 125, 126, 127, 128, 129, 130, 131, 132, 133, 134, 135, 136, 137, 138, 139, 140, 141, 142, 143, 144, 145, 146, 147, 148, 149, 150, 151, 152, 153, 154, 155, 156, 157, 158, 159, 160, 161, 162, 163, 164, 165, 166, 167, 168, 169, 170, 171, 172, 173, 174, 175, 176, 177, 178, 179, 180, 181, 182, 183, 184, 185, 186, 187, 188, 189, 190, 191, 192, 193, 194, 195, 196, 197, 198, 199, 200, 201, 202, 203, 204, 205, 206, 207, 208, 209, 210, 211, 212, 213, 214, 215, 216, 217, 218, 219, 220, 221, 222, 223, 224, 225, 226, 227, 228, 229, 230, 231, 232, 233, 234, 235, 236, 237, 238, 239, 240, 241, 242, 243, 244, 245, 246, 247, 248, 249, 250, 251, 252, 253, 254, 255, 256, 257, 258, 259, 260, 261, 262, 263, 264, 265, 266, 267, 268, 269, 270, 271, 272, 273, 274, 275, 276, 277, 278, 279, 280, 281, 282, 283, 284, 285, 286, 287, 288, 289, 290, 291, 292, 293, 294, 295, 296, 297, 298, 299, 300, 301, 302, 303, 304, 305, 306, 307, 308, 309, 310, 311, 312, 313, 314, 315, 316, 317, 318, 319, 320, 321, 322, 323, 324, 325, 326, 327, 328, 329, 330, 331, 332, 333, 334, 335, 336, 337, 338, 339, 340, 341, 342, 343, 344, 345, 346, 347, 348, 349, 350, 351, 352, 353, 354, 355, 356, 357, 358, 359, 360, 361, 362, 363, 364, 365, 366, 367, 368, 369, 370, 371, 372, 373, 374, 375, 376, 377, 378, 379, 380, 381, 382, 383, 384, 385, 386, 387, 388, 389, 390, 391, 392, 393, 394, 395, 396, 397, 398, 399, 400, 401, 402, 403, 404, 405, 406, 407, 408, 409, 410, 411, 412, 413, 414, 415, 416, 417, 418, 419, 420, 421, 422, 423, 424, 425, 426, 427, 428, 429, 430, 431, 432, 433, 434, 435, 436, 437, 438, 439, 440, 441, 442, 443, 444, 445, 446, 447, 448, 449, 450, 451, 452, 453, 454, 455, 456, 457, 458, 459, 460, 461, 462, 463, 464, 465, 466, 467, 468, 469, 470, 471, 472, 473, 474, 475, 476, 477, 478, 479, 480, 481, 482, 483, 484, 485, 486],
      "AcquisitionTime": ["185140.800000", "185142.290000", "185143.780000", "185145.270000", "185146.760000", "185148.250000", "185149.740000", "185151.230000", "185152.720000", "185154.210000", "185155.700000", "185157.190000", "185158.680000", "185200.170000", "185201.660000", "185203.150000", "185204.640000", "185206.130000", "185207.620000", "185209.110000", "185210.600000", "185212.090000", "185213.580000", "185215.070000", "185216.560000", "185218.050000", "185219.540000", "185221.030000", "185222.520000", "185224.010000", "185225.500000", "185226.990000", "185228.480000", "185229.970000", "185231.460000", "185232.950000", "185234.440000", "185235.930000", "185237.420000", "185238.910000", "185240.400000", "185241.890000", "185243.380000", "185244.870000", "185246.360000", "185247.850000", "185249.340000", "185250.830000", "185252.320000", "185253.810000", "185255.300000", "185256.790000", "185258.280000", "185259.770000", "185301.260000", "185302.750000", "185304.240000", "185305.730000", "185307.220000", "185308.710000", "185310.200000", "185311.690000", "185313.180000", "185314.670000", "185316.160000", "185317.650000", "185319.140000", "185320.630000", "185322.120000", "185323.610000", "185325.100000", "185326.590000", "185328.080000", "185329.570000", "185331.060000", "185332.550000", "185334.040000", "185335.530000", "185337.020000", "185338.510000", "185340.000000", "185341.490000", "185342.980000", "185344.470000", "185345.960000", "185347.450000", "185348.940000", "185350.430000", "185351.920000", "185353.410000", "185354.900000", "185356.390000", "185357.880000", "185359.370000", "185400.860000", "185402.350000", "185403.840000", "185405.330000", "185406.820000", "185408.310000", "185409.800000", "185411.290000", "185412.780000", "185414.270000", "185415.760000", "185417.250000", "185418.740000", "185420.230000", "185421.720000", "185423.210000", "185424.700000", "185426.190000", "185427.680000", "185429.170000", "185430.660000", "185432.150000", "185433.640000", "185435.130000", "185436.620000", "185438.110000", "185439.600000", "185441.090000", "185442.580000", "185444.070000", "185445.560000", "185447.050000", "185448.540000", "185450.030000", "185451.520000", "185453.010000", "185454.500000", "185455.990000", "185457.480000", "185458.970000", "185500.460000", "185501.950000", "185503.440000", "185504.930000", "185506.420000", "185507.910000", "185509.400000", "185510.890000", "185512.380000", "185513.870000", "185515.360000", "185516.850000", "185518.340000", "185519.830000", "185521.320000", "185522.810000", "185524.300000", "185525.790000", "185527.280000", "185528.770000", "185530.260000", "185531.750000", "185533.240000", "185534.730000", "185536.220000", "185537.710000", "185539.200000", "185540.690000", "185542.180000", "185543.670000", "185545.160000", "185546.650000", "185548.140000", "185549.630000", "185551.120000", "185552.610000", "185554.100000", "185555.590000", "185557.080000", "185558.570000", "185600.060000", "185601.550000", "185603.040000", "185604.530000", "185606.020000", "185607.510000", "185609.000000", "185610.490000", "185611.980000", "185613.470000", "185614.960000", "185616.450000", "185617.940000", "185619.430000", "185620.920000", "185622.410000", "185623.900000", "185625.390000", "185626.880000", "185628.370000", "185629.860000", "185631.350000", "185632.840000", "185634.330000", "185635.820000", "185637.310000", "185638.800000", "185640.290000", "185641.780000", "185643.270000", "185644.760000", "185646.250000", "185647.740000", "185649.230000", "185650.720000", "185652.210000", "185653.700000", "185655.190000", "185656.680000", "185658.170000", "185659.660000", "185701.150000", "185702.640000", "185704.130000", "185705.620000", "185707.110000", "185708.600000", "185710.090000", "185711.580000", "185713.070000", "185714.560000", "185716.050000", "185717.540000", "185719.030000", "185720.520000", "185722.010000", "185723.500000", "185724.990000", "185726.480000", "185727.970000", "185729.460000", "185730.950000", "185732.440000", "185733.930000", "185735.420000", "185736.910000", "185738.400000", "185739.890000", "185741.380000", "185742.870000", "185744.360000", "185745.850000", "185747.340000", "185748.830000", "185750.320000", "185751.810000", "185753.300000", "185754.790000", "185756.280000", "185757.770000", "185759.260000", "185800.750000", "185802.240000", "185803.730000", "185805.220000", "185806.710000", "185808.200000", "185809.690000", "185811.180000", "185812.670000", "185814.160000", "185815.650000", "185817.140000", "185818.630000", "185820.120000", "185821.610000", "185823.100000", "185824.590000", "185826.080000", "185827.570000", "185829.060000", "185830.550000", "185832.040000", "185833.530000", "185835.020000", "185836.510000", "185838.000000", "185839.490000", "185840.980000", "185842.470000", "185843.960000", "185845.450000", "185846.940000", "185848.430000", "185849.920000", "185851.410000", "185852.900000", "185854.390000", "185855.880000", "185857.370000", "185858.860000", "185900.350000", "185901.840000", "185903.330000", "185904.820000", "185906.310000", "185907.800000", "185909.290000", "185910.780000", "185912.270000", "185913.760000", "185915.250000", "185916.740000", "185918.230000", "185919.720000", "185921.210000", "185922.700000", "185924.190000", "185925.680000", "185927.170000", "185928.660000", "185930.150000", "185931.640000", "185933.130000", "185934.620000", "185936.110000", "185937.600000", "185939.090000", "185940.580000", "185942.070000", "185943.560000", "185945.050000", "185946.540000", "185948.030000", "185949.520000", "185951.010000", "185952.500000", "185953.990000", "185955.480000", "185956.970000", "185958.460000", "185959.950000", "190001.440000", "190002.930000", "190004.420000", "190005.910000", "190007.400000", "190008.890000", "190010.380000", "190011.870000", "190013.360000", "190014.850000", "190016.340000", "190017.830000", "190019.320000", "190020.810000", "190022.300000", "190023.790000", "190025.280000", "190026.770000", "190028.260000", "190029.750000", "190031.240000", "190032.730000", "190034.220000", "190035.710000", "190037.200000", "190038.690000", "190040.180000", "190041.670000", "190043.160000", "190044.650000", "190046.140000", "190047.630000", "190049.120000", "190050.610000", "190052.100000", "190053.590000", "190055.080000", "190056.570000", "190058.060000", "190059.550000", "190101.040000", "190102.530000", "190104.020000", "190105.510000", "190107.000000", "190108.490000", "190109.980000", "190111.470000", "190112.960000", "190114.450000", "190115.940000", "190117.430000", "190118.920000", "190120.410000", "190121.900000", "190123.390000", "190124.880000", "190126.370000", "190127.860000", "190129.350000", "190130.840000", "190132.330000", "190133.820000", "190135.310000", "190136.800000", "190138.290000", "190139.780000", "190141.270000", "190142.760000", "190144.250000", "190145.740000", "190147.230000", "190148.720000", "190150.210000", "190151.700000", "190153.190000", "190154.680000", "190156.170000", "190157.660000", "190159.150000", "190200.640000", "190202.130000", "190203.620000", "190205.110000", "190206.600000", "190208.090000", "190209.580000", "190211.070000", "190212.560000", "190214.050000", "190215.540000", "190217.030000", "190218.520000", "190220.010000", "190221.500000", "190222.990000", "190224.480000", "190225.970000", "190227.460000", "190228.950000", "190230.440000", "190231.930000", "190233.420000", "190234.910000", "190236.400000", "190237.890000", "190239.380000", "190240.870000", "190242.360000", "190243.850000", "190245.340000", "190246.830000", "190248.320000", "190249.810000", "190251.300000", "190252.790000", "190254.280000", "190255.770000", "190257.260000", "190258.750000", "190300.240000", "190301.730000", "190303.220000", "190304.710000", "190306.200000", "190307.690000", "190309.180000", "190310.670000", "190312.160000", "190313.650000", "190315.140000", "190316.630000", "190318.120000", "190319.610000", "190321.100000", "190322.590000", "190324.080000", "190325.570000", "190327.060000", "190328.550000", "190330.040000", "190331.530000", "190333.020000", "190334.510000", "190336.000000", "190337.490000", "190338.980000", "190340.470000", "190341.960000", "190343.450000"],
      "ContentTime": ["185311.597000", "185311.610000", "185311.613000", "185311.616000", "185311.618000", "185311.621000", "185311.624000", "185311.627000", "185311.630000", "185311.633000", "185311.636000", "185311.639000", "185311.642000", "185311.645000", "185311.647000", "185311.650000", "185311.653000", "185311.656000", "185311.659000", "185311.662000", "185311.665000", "185311.668000", "185311.671000", "185311.674000", "185311.677000", "185311.680000", "185311.693000", "185311.700000", "185311.703000", "185311.706000", "185311.709000", "185311.712000", "185311.714000", "185311.717000", "185311.720000", "185311.723000", "185311.726000", "185331.557000", "185331.560000", "185331.563000", "185331.566000", "185331.569000", "185331.571000", "185331.574000", "185331.577000", "185331.581000", "185331.584000", "185331.587000", "185331.590000", "185331.593000", "185331.596000", "185331.599000", "185331.602000", "185331.605000", "185331.607000", "185331.610000", "185331.613000", "185351.557000", "185351.560000", "185351.563000", "185351.566000", "185351.569000", "185351.571000", "185351.574000", "185351.577000", "185351.580000", "185351.594000", "185351.596000", "185351.599000", "185351.602000", "185351.605000", "185351.608000", "185351.611000", "185351.614000", "185351.616000", "185351.619000", "185351.622000", "185411.558000", "185411.561000", "185411.564000", "185411.567000", "185411.570000", "185411.573000", "185411.576000", "185411.578000", "185411.581000", "185411.584000", "185411.587000", "185411.590000", "185411.593000", "185411.596000", "185411.599000", "185411.602000", "185411.613000", "185411.616000", "185411.619000", "185411.622000", "185451.558000", "185451.561000", "185451.564000", "185451.567000", "185451.570000", "185451.573000", "185451.575000", "185451.578000", "185451.581000", "185451.584000", "185451.587000", "185451.590000", "185451.593000", "185451.596000", "185451.599000", "185451.602000", "185451.605000", "185451.608000", "185451.611000", "185451.614000", "185451.617000", "185451.620000", "185451.623000", "185451.626000", "185451.629000", "185451.632000", "185451.635000", "185451.638000", "185451.641000", "185451.644000", "185531.557000", "185531.560000", "185531.563000", "185531.566000", "185531.569000", "185531.572000", "185531.575000", "185531.578000", "185531.581000", "185531.583000", "185531.586000", "185531.589000", "185531.592000", "185531.595000", "185531.598000", "185531.601000", "185531.604000", "185531.607000", "185531.609000", "185531.612000", "185531.615000", "185531.618000", "185531.621000", "185531.624000", "185531.627000", "185531.630000", "185531.633000", "185611.557000", "185611.560000", "185611.563000", "185611.566000", "185611.569000", "185611.571000", "185611.575000", "185611.578000", "185611.580000", "185611.589000", "185611.591000", "185611.594000", "185611.597000", "185611.600000", "185611.603000", "185611.606000", "185611.609000", "185611.612000", "185611.615000", "185611.618000", "185611.621000", "185611.623000", "185611.626000", "185611.629000", "185611.632000", "185611.635000", "185611.638000", "185651.558000", "185651.561000", "185651.564000", "185651.567000", "185651.570000", "185651.573000", "185651.576000", "185651.579000", "185651.582000", "185651.585000", "185651.587000", "185651.590000", "185651.593000", "185651.596000", "185651.605000", "185651.607000", "185651.610000", "185651.613000", "185651.616000", "185651.619000", "185651.622000", "185651.625000", "185651.628000", "185651.631000", "185651.634000", "185651.637000", "185651.640000", "185731.557000", "185731.560000", "185731.563000", "185731.566000", "185731.569000", "185731.572000", "185731.575000", "185731.578000", "185731.581000", "185731.584000", "185731.588000", "185731.592000", "185731.595000", "185731.597000", "185731.600000", "185731.603000", "185731.606000", "185731.609000", "185731.612000", "185731.615000", "185731.618000", "185731.621000", "185731.624000", "185731.627000", "185731.629000", "185731.632000", "185811.557000", "185811.560000", "185811.563000", "185811.566000", "185811.569000", "185811.572000", "185811.575000", "185811.578000", "185811.581000", "185811.584000", "185811.587000", "185811.590000", "185811.592000", "185811.595000", "185811.598000", "185811.601000", "185811.604000", "185811.607000", "185811.610000", "185811.613000", "185811.634000", "185811.637000", "185811.640000", "185811.643000", "185811.646000", "185811.649000", "185811.652000", "185851.558000", "185851.561000", "185851.564000", "185851.567000", "185851.570000", "185851.573000", "185851.576000", "185851.579000", "185851.582000", "185851.585000", "185851.588000", "185851.590000", "185851.593000", "185851.596000", "185851.599000", "185851.602000", "185851.605000", "185851.608000", "185851.611000", "185851.614000", "185851.617000", "185851.620000", "185851.623000", "185851.625000", "185851.628000", "185851.631000", "185851.634000", "185931.558000", "185931.561000", "185931.564000", "185931.567000", "185931.570000", "185931.573000", "185931.576000", "185931.579000", "185931.582000", "185931.584000", "185931.587000", "185931.590000", "185931.593000", "185931.596000", "185931.599000", "185931.602000", "185931.605000", "185931.608000", "185931.611000", "185931.613000", "185931.616000", "185931.619000", "185931.622000", "185931.625000", "185931.628000", "185931.631000", "185931.634000", "190011.557000", "190011.560000", "190011.563000", "190011.566000", "190011.569000", "190011.572000", "190011.575000", "190011.578000", "190011.581000", "190011.583000", "190011.586000", "190011.589000", "190011.592000", "190011.595000", "190011.598000", "190011.601000", "190011.604000", "190011.607000", "190011.609000", "190011.612000", "190011.615000", "190011.618000", "190011.621000", "190011.624000", "190011.627000", "190011.630000", "190011.633000", "190051.557000", "190051.560000", "190051.563000", "190051.566000", "190051.569000", "190051.572000", "190051.575000", "190051.578000", "190051.581000", "190051.583000", "190051.586000", "190051.589000", "190051.592000", "190051.595000", "190051.598000", "190051.601000", "190051.604000", "190051.607000", "190051.610000", "190051.612000", "190051.615000", "190051.618000", "190051.621000", "190051.624000", "190051.627000", "190051.630000", "190051.633000", "190131.558000", "190131.561000", "190131.564000", "190131.567000", "190131.570000", "190131.572000", "190131.576000", "190131.579000", "190131.581000", "190131.584000", "190131.587000", "190131.590000", "190131.593000", "190131.596000", "190131.599000", "190131.602000", "190131.605000", "190131.608000", "190131.610000", "190131.613000", "190131.616000", "190131.619000", "190131.622000", "190131.625000", "190131.628000", "190131.631000", "190131.634000", "190211.557000", "190211.560000", "190211.563000", "190211.566000", "190211.569000", "190211.572000", "190211.575000", "190211.578000", "190211.581000", "190211.584000", "190211.587000", "190211.590000", "190211.593000", "190211.596000", "190211.599000", "190211.602000", "190211.605000", "190211.608000", "190211.611000", "190211.614000", "190211.617000", "190211.620000", "190211.623000", "190211.625000", "190211.628000", "190211.631000", "190251.557000", "190251.560000", "190251.563000", "190251.566000", "190251.569000", "190251.572000", "190251.575000", "190251.595000", "190251.598000", "190251.601000", "190251.604000", "190251.607000", "190251.610000", "190251.613000", "190251.615000", "190251.618000", "190251.621000", "190251.624000", "190251.627000", "190251.630000", "190251.633000", "190251.636000", "190251.639000", "190251.642000", "190251.645000", "190251.647000", "190251.650000", "190331.558000", "190331.561000", "190331.564000", "190331.567000", "190331.570000", "190331.573000", "190331.576000", "190331.579000", "190331.582000", "190331.584000", "190331.587000", "190331.590000", "190331.593000", "190331.596000", "190331.599000", "190331.602000", "190331.605000", "190331.608000", "190331.611000", "190331.614000", "190331.617000", "190331.620000", "190331.623000", "190331.626000", "190331.629000", "190331.632000", "190331.635000", "190345.636000", "190345.639000", "190345.642000", "190345.645000", "190345.648000", "190345.651000", "190345.654000", "190345.657000", "190345.660000", "190345.663000"],
