{
  "AcquisitionMatrixPE": 104,
  "AcquisitionNumber": 1,
  "AcquisitionTime": "19:05:11.030000",
  "BandwidthPerPixelPhaseEncode": 17.17,
  "BaseResolution": 104,
  "BodyPartExamined": "BRAIN",
  "CoilCombinationMethod": "Sum of Squares",
  "ConsistencyInfo": "N4_VE11C_LATEST_20160120",
  "ConversionSoftware": "dcm2niix",
  "ConversionSoftwareVersion": "v1.0.20230411",
  "DerivedVendorReportedEchoSpacing": 0.000560011,
  "DeviceSerialNumber": "167006",
  "DwellTime": 2.1e-06,
  "EchoTime": 0.037,
  "EchoTrainLength": 104,
  "EffectiveEchoSpacing": 0.000560011,
  "FlipAngle": 52,
  "HeudiconvVersion": "0.5.3.post861+ge7d3c7f",
  "ImageComments": "Unaliased MB4/PE3/LB",
  "ImageOrientationPatientDICOM": [0.999626, -0.0271916, -0.00295995, 0.0239067, 0.921151, -0.388471],
  "ImageOrientationText": "Tra>Cor(-22.8)>Sag(-0.8)",
  "ImageType": [
    "ORIGINAL",
    "PRIMARY",
    "M",
    "MB",
    "ND",
    "MOSAIC"
],
  "ImagingFrequency": 123.249572,
  "InPlanePhaseEncodingDirectionDICOM": "COL",
  "InstitutionAddress": "Chemin Queen-Mary 4565,Montreal,District,CA,H3W 1W5",
  "InstitutionName": "IUGM",
  "InstitutionalDepartmentName": "Department",
  "MRAcquisitionType": "2D",
  "MagneticFieldStrength": 3,
  "Manufacturer": "Siemens",
  "ManufacturersModelName": "Prisma_fit",
  "MatrixCoilMode": "SENSE",
  "Modality": "MR",
  "MultibandAccelerationFactor": 4,
  "NonlinearGradientCorrection": false,
  "PartialFourier": 1,
  "PatientPosition": "HFS",
  "PercentPhaseFOV": 100,
  "PercentSampling": 100,
  "PhaseEncodingDirection": "j",
  "PhaseEncodingSteps": 104,
  "PhaseResolution": 1,
  "PixelBandwidth": 2290,
  "ProcedureStepDescription": "video^friends",
  "ProtocolName": "func_task-friends-s07e01b",
  "PulseSequenceDetails": "%CustomerSeq%\\cmrr_mbep2d_bold",
  "ReceiveCoilActiveElements": "HC1-7;NC1,2",
  "ReceiveCoilName": "HeadNeck_64",
  "ReconMatrixPE": 104,
  "RepetitionTime": 1.49,
  "SAR": 0.0624441,
  "ScanOptions": "FS",
  "ScanningSequence": "EP",
  "SequenceName": "epfid2d1_104",
  "SequenceVariant": "SK\\SS",
  "SeriesDescription": "func_task-friends-s07e01b",
  "SeriesNumber": 12,
  "ShimSetting": [582, -7269, -8804, 384, -18, -379, -31, 100],
  "SliceThickness": 2,
  "SliceTiming": [0, 0.7825, 0.0975, 0.88, 0.195, 0.98, 0.2925, 1.0775, 0.39, 1.175, 0.49, 1.2725, 0.5875, 1.37, 0.685, 0, 0.7825, 0.0975, 0.88, 0.195, 0.98, 0.2925, 1.0775, 0.39, 1.175, 0.49, 1.2725, 0.5875, 1.37, 0.685, 0, 0.7825, 0.0975, 0.88, 0.195, 0.98, 0.2925, 1.0775, 0.39, 1.175, 0.49, 1.2725, 0.5875, 1.37, 0.685, 0, 0.7825, 0.0975, 0.88, 0.195, 0.98, 0.2925, 1.0775, 0.39, 1.175, 0.49, 1.2725, 0.5875, 1.37, 0.685],
  "SoftwareVersions": "syngo MR E11",
  "SpacingBetweenSlices": 2,
  "StationName": "MRC35049",
  "TaskName": "s07e01b",
  "TotalReadoutTime": 0.0576811,
  "TxRefAmp": 277.372,
  "WipMemBlock": "c0628451-0237-41d5-9126-ecdf4f8b690a||Sequence: R017 ve11c/master r/75a17815+; Jun 28 2022 16:32:11 by eja",
  "dcmmeta_affine": [
    [-1.9992517232894897, 0.04781334847211838, -0.02657945640385151, 98.641845703125],
    [0.054383255541324615, 1.8423012495040894, -0.7765105962753296, -71.38314056396484],
    [-0.005919896997511387, 0.776942789554596, 1.8429120779037476, -67.23848724365234],
    [0.0, 0.0, 0.0, 1.0]
],
  "dcmmeta_reorient_transform": [
    [0.0, -1.0, 0.0, 103.0],
    [1.0, 0.0, 0.0, 0.0],
    [0.0, 0.0, 1.0, 0.0],
    [0.0, 0.0, 0.0, 1.0]
],
  "dcmmeta_shape": [104, 104, 60, 494],
  "dcmmeta_slice_dim": 2,
  "dcmmeta_version": 0.6,
  "global": {
    "const": {
      "AcquisitionMatrix": [104, 0, 0, 104],
      "AngioFlag": "N",
      "BitsAllocated": 16,
      "BitsStored": 16,
      "BodyPartExamined": "BRAIN",
      "Columns": 832,
      "EchoNumbers": 1,
      "EchoTime": 37.0,
      "EchoTrainLength": 104,
      "FlipAngle": 52.0,
      "HighBit": 15,
      "ImageOrientationPatient": [0.99962585705022, -0.0271916277756, -0.0029599485688, 0.02390667352034, 0.92115060543879, -0.3884714057185],
      "ImagePositionPatient": [-848.69830595709, -769.17601861622, 297.74865127816],
      "ImageType": [
        "ORIGINAL",
        "PRIMARY",
        "M",
        "MB",
        "ND",
        "MOSAIC"
],
      "ImagedNucleus": "1H",
      "ImagingFrequency": 123.249572,
      "InPlanePhaseEncodingDirection": "COL",
      "MRAcquisitionType": "2D",
      "MagneticFieldStrength": 3.0,
      "Manufacturer": "SIEMENS",
      "ManufacturerModelName": "Prisma_fit",
      "Modality": "MR",
      "NumberOfAverages": 1.0,
      "NumberOfPhaseEncodingSteps": 104,
      "PercentPhaseFieldOfView": 100.0,
      "PercentSampling": 100.0,
      "PerformedProcedureStepStartTime": "184704.537000",
      "PhotometricInterpretation": "MONOCHROME2",
      "PixelBandwidth": 2290.0,
      "PixelRepresentation": 0,
      "PixelSpacing": [2.0, 2.0],
      "ProtocolName": "func_task-friends-s07e01b",
      "RepetitionTime": 1490.0,
      "Rows": 832,
      "SAR": 0.06244409305248,
      "SamplesPerPixel": 1,
      "ScanOptions": "FS",
      "ScanningSequence": "EP",
      "SequenceName": "epfid2d1_104",
      "SequenceVariant": [
        "SK",
        "SS"
],
      "SeriesDescription": "func_task-friends-s07e01b",
      "SeriesNumber": 12,
      "SeriesTime": "190632.693000",
      "SliceLocation": -35.553346648594,
      "SliceThickness": 2.0,
      "SmallestImagePixelValue": 0,
      "SoftwareVersions": "syngo MR E11",
      "SpacingBetweenSlices": 2.0000000369525,
      "SpecificCharacterSet": "ISO_IR 100",
      "StudyID": "1",
      "StudyTime": "184704.459000",
      "TransmitCoilName": "Body",
      "VariableFlipAngleFlag": "N",
      "WindowCenterWidthExplanation": "Algo1",
      "dBdt": 0.0},
    "slices": {}
  },
  "time": {
    "samples": {
      "AcquisitionNumber": [1, 2, 3, 4, 5, 6, 7, 8, 9, 10, 11, 12, 13, 14, 15, 16, 17, 18, 19, 20, 21, 22, 23, 24, 25, 26, 27, 28, 29, 30, 31, 32, 33, 34, 35, 36, 37, 38, 39, 40, 41, 42, 43, 44, 45, 46, 47, 48, 49, 50, 51, 52, 53, 54, 55, 56, 57, 58, 59, 60, 61, 62, 63, 64, 65, 66, 67, 68, 69, 70, 71, 72, 73, 74, 75, 76, 77, 78, 79, 80, 81, 82, 83, 84, 85, 86, 87, 88, 89, 90, 91, 92, 93, 94, 95, 96, 97, 98, 99, 100, 101, 102, 103, 104, 105, 106, 107, 108, 109, 110, 111, 112, 113, 114, 115, 116, 117, 118, 119, 120, 121, 122, 123, 124, 125, 126, 127, 128, 129, 130, 131, 132, 133, 134, 135, 136, 137, 138, 139, 140, 141, 142, 143, 144, 145, 146, 147, 148, 149, 150, 151, 152, 153, 154, 155, 156, 157, 158, 159, 160, 161, 162, 163, 164, 165, 166, 167, 168, 169, 170, 171, 172, 173, 174, 175, 176, 177, 178, 179, 180, 181, 182, 183, 184, 185, 186, 187, 188, 189, 190, 191, 192, 193, 194, 195, 196, 197, 198, 199, 200, 201, 202, 203, 204, 205, 206, 207, 208, 209, 210, 211, 212, 213, 214, 215, 216, 217, 218, 219, 220, 221, 222, 223, 224, 225, 226, 227, 228, 229, 230, 231, 232, 233, 234, 235, 236, 237, 238, 239, 240, 241, 242, 243, 244, 245, 246, 247, 248, 249, 250, 251, 252, 253, 254, 255, 256, 257, 258, 259, 260, 261, 262, 263, 264, 265, 266, 267, 268, 269, 270, 271, 272, 273, 274, 275, 276, 277, 278, 279, 280, 281, 282, 283, 284, 285, 286, 287, 288, 289, 290, 291, 292, 293, 294, 295, 296, 297, 298, 299, 300, 301, 302, 303, 304, 305, 306, 307, 308, 309, 310, 311, 312, 313, 314, 315, 316, 317, 318, 319, 320, 321, 322, 323, 324, 325, 326, 327, 328, 329, 330, 331, 332, 333, 334, 335, 336, 337, 338, 339, 340, 341, 342, 343, 344, 345, 346, 347, 348, 349, 350, 351, 352, 353, 354, 355, 356, 357, 358, 359, 360, 361, 362, 363, 364, 365, 366, 367, 368, 369, 370, 371, 372, 373, 374, 375, 376, 377, 378, 379, 380, 381, 382, 383, 384, 385, 386, 387, 388, 389, 390, 391, 392, 393, 394, 395, 396, 397, 398, 399, 400, 401, 402, 403, 404, 405, 406, 407, 408, 409, 410, 411, 412, 413, 414, 415, 416, 417, 418, 419, 420, 421, 422, 423, 424, 425, 426, 427, 428, 429, 430, 431, 432, 433, 434, 435, 436, 437, 438, 439, 440, 441, 442, 443, 444, 445, 446, 447, 448, 449, 450, 451, 452, 453, 454, 455, 456, 457, 458, 459, 460, 461, 462, 463, 464, 465, 466, 467, 468, 469, 470, 471, 472, 473, 474, 475, 476, 477, 478, 479, 480, 481, 482, 483, 484, 485, 486, 487, 488, 489, 490, 491, 492, 493, 494],
      "AcquisitionTime": ["190511.030000", "190512.520000", "190514.010000", "190515.500000", "190516.990000", "190518.480000", "190519.970000", "190521.460000", "190522.950000", "190524.440000", "190525.930000", "190527.420000", "190528.910000", "190530.400000", "190531.890000", "190533.380000", "190534.870000", "190536.360000", "190537.850000", "190539.340000", "190540.830000", "190542.320000", "190543.810000", "190545.300000", "190546.790000", "190548.280000", "190549.770000", "190551.260000", "190552.750000", "190554.240000", "190555.730000", "190557.220000", "190558.710000", "190600.200000", "190601.690000", "190603.180000", "190604.670000", "190606.160000", "190607.650000", "190609.140000", "190610.630000", "190612.120000", "190613.610000", "190615.100000", "190616.590000", "190618.080000", "190619.570000", "190621.060000", "190622.550000", "190624.040000", "190625.530000", "190627.020000", "190628.510000", "190630.000000", "190631.490000", "190632.980000", "190634.470000", "190635.960000", "190637.450000", "190638.940000", "190640.430000", "190641.920000", "190643.410000", "190644.900000", "190646.390000", "190647.880000", "190649.370000", "190650.860000", "190652.350000", "190653.840000", "190655.330000", "190656.820000", "190658.310000", "190659.800000", "190701.290000", "190702.780000", "190704.270000", "190705.760000", "190707.250000", "190708.740000", "190710.230000", "190711.720000", "190713.210000", "190714.700000", "190716.190000", "190717.680000", "190719.170000", "190720.660000", "190722.150000", "190723.640000", "190725.130000", "190726.620000", "190728.110000", "190729.600000", "190731.090000", "190732.580000", "190734.070000", "190735.560000", "190737.050000", "190738.540000", "190740.030000", "190741.520000", "190743.010000", "190744.500000", "190745.990000", "190747.480000", "190748.970000", "190750.460000", "190751.950000", "190753.440000", "190754.930000", "190756.420000", "190757.910000", "190759.400000", "190800.890000", "190802.380000", "190803.870000", "190805.360000", "190806.850000", "190808.340000", "190809.830000", "190811.320000", "190812.810000", "190814.300000", "190815.790000", "190817.280000", "190818.770000", "190820.260000", "190821.750000", "190823.240000", "190824.730000", "190826.220000", "190827.710000", "190829.200000", "190830.690000", "190832.180000", "190833.670000", "190835.160000", "190836.650000", "190838.140000", "190839.630000", "190841.120000", "190842.610000", "190844.100000", "190845.590000", "190847.080000", "190848.570000", "190850.060000", "190851.550000", "190853.040000", "190854.530000", "190856.020000", "190857.510000", "190859.000000", "190900.490000", "190901.980000", "190903.470000", "190904.960000", "190906.450000", "190907.940000", "190909.430000", "190910.920000", "190912.410000", "190913.900000", "190915.390000", "190916.880000", "190918.370000", "190919.860000", "190921.350000", "190922.840000", "190924.330000", "190925.820000", "190927.310000", "190928.800000", "190930.290000", "190931.780000", "190933.270000", "190934.760000", "190936.250000", "190937.740000", "190939.230000", "190940.720000", "190942.210000", "190943.700000", "190945.190000", "190946.680000", "190948.170000", "190949.660000", "190951.150000", "190952.640000", "190954.130000", "190955.620000", "190957.110000", "190958.600000", "191000.090000", "191001.580000", "191003.070000", "191004.560000", "191006.050000", "191007.540000", "191009.030000", "191010.520000", "191012.010000", "191013.500000", "191014.990000", "191016.480000", "191017.970000", "191019.460000", "191020.950000", "191022.440000", "191023.930000", "191025.420000", "191026.910000", "191028.400000", "191029.890000", "191031.380000", "191032.870000", "191034.360000", "191035.850000", "191037.340000", "191038.830000", "191040.320000", "191041.810000", "191043.300000", "191044.790000", "191046.280000", "191047.770000", "191049.260000", "191050.750000", "191052.240000", "191053.730000", "191055.220000", "191056.710000", "191058.200000", "191059.690000", "191101.180000", "191102.670000", "191104.160000", "191105.650000", "191107.140000", "191108.630000", "191110.120000", "191111.610000", "191113.100000", "191114.590000", "191116.080000", "191117.570000", "191119.060000", "191120.550000", "191122.040000", "191123.530000", "191125.020000", "191126.510000", "191128.000000", "191129.490000", "191130.980000", "191132.470000", "191133.960000", "191135.450000", "191136.940000", "191138.430000", "191139.920000", "191141.410000", "191142.900000", "191144.390000", "191145.880000", "191147.370000", "191148.860000", "191150.350000", "191151.840000", "191153.330000", "191154.820000", "191156.310000", "191157.800000", "191159.290000", "191200.780000", "191202.270000", "191203.760000", "191205.250000", "191206.740000", "191208.230000", "191209.720000", "191211.210000", "191212.700000", "191214.190000", "191215.680000", "191217.170000", "191218.660000", "191220.150000", "191221.640000", "191223.130000", "191224.620000", "191226.110000", "191227.600000", "191229.090000", "191230.580000", "191232.070000", "191233.560000", "191235.050000", "191236.540000", "191238.030000", "191239.520000", "191241.010000", "191242.500000", "191243.990000", "191245.480000", "191246.970000", "191248.460000", "191249.950000", "191251.440000", "191252.930000", "191254.420000", "191255.910000", "191257.400000", "191258.890000", "191300.380000", "191301.870000", "191303.360000", "191304.850000", "191306.340000", "191307.830000", "191309.320000", "191310.810000", "191312.300000", "191313.790000", "191315.280000", "191316.770000", "191318.260000", "191319.750000", "191321.240000", "191322.730000", "191324.220000", "191325.710000", "191327.200000", "191328.690000", "191330.180000", "191331.670000", "191333.160000", "191334.650000", "191336.140000", "191337.630000", "191339.120000", "191340.610000", "191342.100000", "191343.590000", "191345.080000", "191346.570000", "191348.060000", "191349.550000", "191351.040000", "191352.530000", "191354.020000", "191355.510000", "191357.000000", "191358.490000", "191359.980000", "191401.470000", "191402.960000", "191404.450000", "191405.940000", "191407.430000", "191408.920000", "191410.410000", "191411.900000", "191413.390000", "191414.880000", "191416.370000", "191417.860000", "191419.350000", "191420.840000", "191422.330000", "191423.820000", "191425.310000", "191426.800000", "191428.290000", "191429.780000", "191431.270000", "191432.760000", "191434.250000", "191435.740000", "191437.230000", "191438.720000", "191440.210000", "191441.700000", "191443.190000", "191444.680000", "191446.170000", "191447.660000", "191449.150000", "191450.640000", "191452.130000", "191453.620000", "191455.110000", "191456.600000", "191458.090000", "191459.580000", "191501.070000", "191502.560000", "191504.050000", "191505.540000", "191507.030000", "191508.520000", "191510.010000", "191511.500000", "191512.990000", "191514.480000", "191515.970000", "191517.460000", "191518.950000", "191520.440000", "191521.930000", "191523.420000", "191524.910000", "191526.400000", "191527.890000", "191529.380000", "191530.870000", "191532.360000", "191533.850000", "191535.340000", "191536.830000", "191538.320000", "191539.810000", "191541.300000", "191542.790000", "191544.280000", "191545.770000", "191547.260000", "191548.750000", "191550.240000", "191551.730000", "191553.220000", "191554.710000", "191556.200000", "191557.690000", "191559.180000", "191600.670000", "191602.160000", "191603.650000", "191605.140000", "191606.630000", "191608.120000", "191609.610000", "191611.100000", "191612.590000", "191614.080000", "191615.570000", "191617.060000", "191618.550000", "191620.040000", "191621.530000", "191623.020000", "191624.510000", "191626.000000", "191627.490000", "191628.980000", "191630.470000", "191631.960000", "191633.450000", "191634.940000", "191636.430000", "191637.920000", "191639.410000", "191640.900000", "191642.390000", "191643.880000", "191645.370000", "191646.860000", "191648.350000", "191649.840000", "191651.330000", "191652.820000", "191654.310000", "191655.800000", "191657.290000", "191658.780000", "191700.270000", "191701.760000", "191703.250000", "191704.740000", "191706.230000", "191707.720000", "191709.210000", "191710.700000", "191712.190000", "191713.680000", "191715.170000", "191716.660000", "191718.150000", "191719.640000", "191721.130000", "191722.620000", "191724.110000", "191725.600000"],
      "ContentTime": ["190632.696000", "190632.699000", "190632.702000", "190632.705000", "190632.708000", "190632.713000", "190632.716000", "190632.720000", "190632.727000", "190632.730000", "190632.733000", "190632.736000", "190632.739000", "190632.742000", "190632.748000", "190632.751000", "190632.754000", "190632.757000", "190632.760000", "190632.763000", "190632.766000", "190632.769000", "190652.664000", "190652.667000", "190652.670000", "190652.673000", "190652.676000", "190652.679000", "190652.682000", "190652.685000", "190652.688000", "190652.691000", "190652.694000", "190652.697000", "190652.700000", "190652.703000", "190652.706000", "190652.709000", "190652.712000", "190652.715000", "190652.718000", "190652.721000", "190712.664000", "190712.667000", "190712.670000", "190712.679000", "190712.682000", "190712.685000", "190712.688000", "190712.691000", "190712.694000", "190712.697000", "190712.700000", "190712.703000", "190712.706000", "190712.709000", "190712.712000", "190712.715000", "190712.718000", "190712.721000", "190712.724000", "190712.727000", "190732.664000", "190732.667000", "190732.670000", "190732.673000", "190732.676000", "190732.679000", "190732.682000", "190732.685000", "190732.688000", "190732.691000", "190732.694000", "190732.697000", "190732.699000", "190732.702000", "190732.706000", "190732.709000", "190732.711000", "190732.714000", "190732.718000", "190732.720000", "190732.723000", "190812.664000", "190812.667000", "190812.670000", "190812.673000", "190812.676000", "190812.679000", "190812.682000", "190812.686000", "190812.688000", "190812.691000", "190812.694000", "190812.697000", "190812.700000", "190812.703000", "190812.706000", "190812.709000", "190812.712000", "190812.715000", "190812.718000", "190812.721000", "190812.724000", "190812.727000", "190812.730000", "190812.733000", "190812.736000", "190812.739000", "190812.742000", "190812.745000", "190812.748000", "190812.751000", "190812.754000", "190852.664000", "190852.667000", "190852.670000", "190852.673000", "190852.676000", "190852.679000", "190852.682000", "190852.685000", "190852.688000", "190852.691000", "190852.694000", "190852.697000", "190852.700000", "190852.703000", "190852.706000", "190852.709000", "190852.712000", "190852.715000", "190852.718000", "190852.721000", "190852.724000", "190852.734000", "190852.737000", "190852.740000", "190852.743000", "190852.745000", "190852.748000", "190932.664000", "190932.667000", "190932.670000", "190932.673000", "190932.676000", "190932.679000", "190932.682000", "190932.685000", "190932.688000", "190932.691000", "190932.694000", "190932.697000", "190932.700000", "190932.703000", "190932.706000", "190932.709000", "190932.712000", "190932.715000", "190932.718000", "190932.721000", "190932.724000", "190932.727000", "190932.730000", "190932.733000", "190932.736000", "190932.739000", "190932.742000", "191012.664000", "191012.667000", "191012.670000", "191012.673000", "191012.676000", "191012.679000", "191012.682000", "191012.685000", "191012.688000", "191012.691000", "191012.694000", "191012.697000", "191012.700000", "191012.703000", "191012.706000", "191012.709000", "191012.712000", "191012.715000", "191012.718000", "191012.721000", "191012.724000", "191012.728000", "191012.732000", "191012.735000", "191012.738000", "191012.741000", "191052.664000", "191052.667000", "191052.670000", "191052.682000", "191052.685000", "191052.688000", "191052.691000", "191052.694000", "191052.697000", "191052.700000", "191052.703000", "191052.706000", "191052.709000", "191052.712000", "191052.715000", "191052.718000", "191052.721000", "191052.724000", "191052.727000", "191052.730000", "191052.733000", "191052.736000", "191052.739000", "191052.742000", "191052.745000", "191052.748000", "191052.751000", "191132.664000", "191132.667000", "191132.670000", "191132.673000", "191132.676000", "191132.679000", "191132.682000", "191132.685000", "191132.688000", "191132.691000", "191132.694000", "191132.697000", "191132.700000", "191132.703000", "191132.706000", "191132.709000", "191132.712000", "191132.715000", "191132.718000", "191132.721000", "191132.724000", "191132.727000", "191132.730000", "191132.733000", "191132.736000", "191132.739000", "191132.742000", "191212.664000", "191212.667000", "191212.670000", "191212.673000", "191212.676000", "191212.679000", "191212.682000", "191212.685000", "191212.688000", "191212.691000", "191212.694000", "191212.697000", "191212.700000", "191212.703000", "191212.706000", "191212.709000", "191212.712000", "191212.715000", "191212.718000", "191212.721000", "191212.724000", "191212.727000", "191212.731000", "191212.733000", "191212.736000", "191212.739000", "191212.742000", "191252.664000", "191252.667000", "191252.670000", "191252.673000", "191252.676000", "191252.679000", "191252.682000", "191252.685000", "191252.688000", "191252.691000", "191252.695000", "191252.697000", "191252.700000", "191252.703000", "191252.706000", "191252.709000", "191252.712000", "191252.715000", "191252.718000", "191252.721000", "191252.724000", "191252.728000", "191252.730000", "191252.733000", "191252.736000", "191252.740000", "191252.742000", "191332.664000", "191332.667000", "191332.670000", "191332.673000", "191332.676000", "191332.679000", "191332.682000", "191332.685000", "191332.688000", "191332.691000", "191332.694000", "191332.697000", "191332.700000", "191332.703000", "191332.706000", "191332.709000", "191332.712000", "191332.715000", "191332.718000", "191332.721000", "191332.724000", "191332.727000", "191332.730000", "191332.733000", "191332.736000", "191332.739000", "191332.742000", "191412.664000", "191412.667000", "191412.670000", "191412.673000", "191412.676000", "191412.679000", "191412.683000", "191412.685000", "191412.688000", "191412.692000", "191412.695000", "191412.697000", "191412.700000", "191412.704000", "191412.706000", "191412.709000", "191412.712000", "191412.715000", "191412.718000", "191412.722000", "191412.725000", "191412.729000", "191412.732000", "191412.736000", "191412.739000", "191412.742000", "191452.664000", "191452.667000", "191452.670000", "191452.673000", "191452.676000", "191452.679000", "191452.682000", "191452.685000", "191452.688000", "191452.691000", "191452.694000", "191452.697000", "191452.700000", "191452.703000", "191452.706000", "191452.709000", "191452.712000", "191452.716000", "191452.718000", "191452.721000", "191452.724000", "191452.728000", "191452.731000", "191452.734000", "191452.737000", "191452.749000", "191452.752000", "191532.664000", "191532.667000", "191532.670000", "191532.673000", "191532.676000", "191532.679000", "191532.682000", "191532.685000", "191532.688000", "191532.691000", "191532.694000", "191532.697000", "191532.700000", "191532.703000", "191532.706000", "191532.709000", "191532.712000", "191532.715000", "191532.718000", "191532.721000", "191532.724000", "191532.727000", "191532.730000", "191532.733000", "191532.743000", "191532.746000", "191532.749000", "191612.664000", "191612.668000", "191612.671000", "191612.674000", "191612.677000", "191612.680000", "191612.683000", "191612.686000", "191612.689000", "191612.693000", "191612.696000", "191612.699000", "191612.702000", "191612.705000", "191612.708000", "191612.711000", "191612.714000", "191612.717000", "191612.720000", "191612.723000", "191612.727000", "191612.730000", "191612.733000", "191612.736000", "191612.739000", "191612.742000", "191612.745000", "191652.664000", "191652.667000", "191652.670000", "191652.673000", "191652.676000", "191652.679000", "191652.683000", "191652.686000", "191652.688000", "191652.691000", "191652.695000", "191652.698000", "191652.700000", "191652.703000", "191652.707000", "191652.709000", "191652.712000", "191652.715000", "191652.719000", "191652.721000", "191652.724000", "191652.727000", "191652.731000", "191652.734000", "191652.737000", "191652.739000", "191652.743000", "191732.664000", "191732.667000", "191732.670000", "191732.673000", "191732.676000", "191732.679000", "191732.682000", "191732.685000", "191732.688000", "191732.691000", "191732.694000", "191732.697000", "191732.700000", "191732.703000", "191732.706000", "191732.709000", "191732.712000", "191732.715000", "191732.718000", "191732.721000", "191732.724000", "191732.727000", "191732.730000", "191732.733000", "191732.736000", "191732.739000", "191732.742000", "191738.386000", "191738.389000", "191738.393000", "191738.396000"],
