{
  "AcquisitionMatrixPE": 104,
  "AcquisitionNumber": 1,
  "AcquisitionTime": "18:51:50.400000",
  "BandwidthPerPixelPhaseEncode": 17.17,
  "BaseResolution": 104,
  "BodyPartExamined": "BRAIN",
  "CoilCombinationMethod": "Sum of Squares",
  "ConsistencyInfo": "N4_VE11C_LATEST_20160120",
  "ConversionSoftware": "dcm2niix",
  "ConversionSoftwareVersion": "v1.0.20230411",
  "DerivedVendorReportedEchoSpacing": 0.000560011,
  "DeviceSerialNumber": "167006",
  "DwellTime": 2.1e-06,
  "EchoTime": 0.037,
  "EchoTrainLength": 104,
  "EffectiveEchoSpacing": 0.000560011,
  "FlipAngle": 52,
  "HeudiconvVersion": "0.5.3.post861+ge7d3c7f",
  "ImageComments": "Unaliased MB4/PE3/LB",
  "ImageOrientationPatientDICOM": [0.999626, -0.0271916, -0.00295995, 0.0239067, 0.921151, -0.388471],
  "ImageOrientationText": "Tra>Cor(-22.8)>Sag(-0.8)",
  "ImageType": [
    "ORIGINAL",
    "PRIMARY",
    "M",
    "MB",
    "ND",
    "MOSAIC"
],
  "ImagingFrequency": 123.249571,
  "InPlanePhaseEncodingDirectionDICOM": "COL",
  "InstitutionAddress": "Chemin Queen-Mary 4565,Montreal,District,CA,H3W 1W5",
  "InstitutionName": "IUGM",
  "InstitutionalDepartmentName": "Department",
  "MRAcquisitionType": "2D",
  "MagneticFieldStrength": 3,
  "Manufacturer": "Siemens",
  "ManufacturersModelName": "Prisma_fit",
  "MatrixCoilMode": "SENSE",
  "Modality": "MR",
  "MultibandAccelerationFactor": 4,
  "NonlinearGradientCorrection": false,
  "PartialFourier": 1,
  "PatientPosition": "HFS",
  "PercentPhaseFOV": 100,
  "PercentSampling": 100,
  "PhaseEncodingDirection": "j",
  "PhaseEncodingSteps": 104,
  "PhaseResolution": 1,
  "PixelBandwidth": 2290,
  "ProcedureStepDescription": "video^friends",
  "ProtocolName": "func_task-friends-s07e01a",
  "PulseSequenceDetails": "%CustomerSeq%\\cmrr_mbep2d_bold",
  "ReceiveCoilActiveElements": "HC1-7;NC1,2",
  "ReceiveCoilName": "HeadNeck_64",
  "ReconMatrixPE": 104,
  "RepetitionTime": 1.49,
  "SAR": 0.0624441,
  "ScanOptions": "FS",
  "ScanningSequence": "EP",
  "SequenceName": "epfid2d1_104",
  "SequenceVariant": "SK\\SS",
  "SeriesDescription": "func_task-friends-s07e01a",
  "SeriesNumber": 10,
  "ShimSetting": [582, -7269, -8804, 384, -18, -379, -31, 100],
  "SliceThickness": 2,
  "SliceTiming": [0, 0.7825, 0.0975, 0.88, 0.195, 0.98, 0.2925, 1.0775, 0.39, 1.175, 0.49, 1.2725, 0.5875, 1.37, 0.685, 0, 0.7825, 0.0975, 0.88, 0.195, 0.98, 0.2925, 1.0775, 0.39, 1.175, 0.49, 1.2725, 0.5875, 1.37, 0.685, 0, 0.7825, 0.0975, 0.88, 0.195, 0.98, 0.2925, 1.0775, 0.39, 1.175, 0.49, 1.2725, 0.5875, 1.37, 0.685, 0, 0.7825, 0.0975, 0.88, 0.195, 0.98, 0.2925, 1.0775, 0.39, 1.175, 0.49, 1.2725, 0.5875, 1.37, 0.685],
  "SoftwareVersions": "syngo MR E11",
  "SpacingBetweenSlices": 2,
  "StationName": "MRC35049",
  "TaskName": "s07e01a",
  "TotalReadoutTime": 0.0576811,
  "TxRefAmp": 277.372,
  "WipMemBlock": "fa298256-3268-42ed-bb64-7d6127f24ac7||Sequence: R017 ve11c/master r/75a17815+; Jun 28 2022 16:32:11 by eja",
  "dcmmeta_affine": [
    [-1.9992517232894897, 0.04781334847211838, -0.02657945640385151, 98.641845703125],
    [0.054383255541324615, 1.8423012495040894, -0.7765105962753296, -71.38314056396484],
    [-0.005919896997511387, 0.776942789554596, 1.8429120779037476, -67.23848724365234],
    [0.0, 0.0, 0.0, 1.0]
],
  "dcmmeta_reorient_transform": [
    [0.0, -1.0, 0.0, 103.0],
    [1.0, 0.0, 0.0, 0.0],
    [0.0, 0.0, 1.0, 0.0],
    [0.0, 0.0, 0.0, 1.0]
],
  "dcmmeta_shape": [104, 104, 60, 460],
  "dcmmeta_slice_dim": 2,
  "dcmmeta_version": 0.6,
  "global": {
    "const": {
      "AcquisitionMatrix": [104, 0, 0, 104],
      "AngioFlag": "N",
      "BitsAllocated": 16,
      "BitsStored": 16,
      "BodyPartExamined": "BRAIN",
      "Columns": 832,
      "EchoNumbers": 1,
      "EchoTime": 37.0,
      "EchoTrainLength": 104,
      "FlipAngle": 52.0,
      "HighBit": 15,
      "ImageOrientationPatient": [0.99962585705022, -0.0271916277756, -0.0029599485688, 0.02390667352034, 0.92115060543879, -0.3884714057185],
      "ImagePositionPatient": [-848.69830595709, -769.17601861622, 297.74865127816],
      "ImageType": [
        "ORIGINAL",
        "PRIMARY",
        "M",
        "MB",
        "ND",
        "MOSAIC"
],
      "ImagedNucleus": "1H",
      "ImagingFrequency": 123.249571,
      "InPlanePhaseEncodingDirection": "COL",
      "MRAcquisitionType": "2D",
      "MagneticFieldStrength": 3.0,
      "Manufacturer": "SIEMENS",
      "ManufacturerModelName": "Prisma_fit",
      "Modality": "MR",
      "NumberOfAverages": 1.0,
      "NumberOfPhaseEncodingSteps": 104,
      "PercentPhaseFieldOfView": 100.0,
      "PercentSampling": 100.0,
      "PerformedProcedureStepStartTime": "184704.537000",
      "PhotometricInterpretation": "MONOCHROME2",
      "PixelBandwidth": 2290.0,
      "PixelRepresentation": 0,
      "PixelSpacing": [2.0, 2.0],
      "ProtocolName": "func_task-friends-s07e01a",
      "RepetitionTime": 1490.0,
      "Rows": 832,
      "SAR": 0.0624440911099,
      "SamplesPerPixel": 1,
      "ScanOptions": "FS",
      "ScanningSequence": "EP",
      "SequenceName": "epfid2d1_104",
      "SequenceVariant": [
        "SK",
        "SS"
],
      "SeriesDescription": "func_task-friends-s07e01a",
      "SeriesNumber": 10,
      "SeriesTime": "185300.848000",
      "SliceLocation": -35.553346648594,
      "SliceThickness": 2.0,
      "SmallestImagePixelValue": 0,
      "SoftwareVersions": "syngo MR E11",
      "SpacingBetweenSlices": 2.0000000369525,
      "SpecificCharacterSet": "ISO_IR 100",
      "StudyID": "1",
      "StudyTime": "184704.459000",
      "TransmitCoilName": "Body",
      "VariableFlipAngleFlag": "N",
      "WindowCenterWidthExplanation": "Algo1",
      "dBdt": 0.0},
    "slices": {}
  },
  "time": {
    "samples": {
      "AcquisitionNumber": [1, 2, 3, 4, 5, 6, 7, 8, 9, 10, 11, 12, 13, 14, 15, 16, 17, 18, 19, 20, 21, 22, 23, 24, 25, 26, 27, 28, 29, 30, 31, 32, 33, 34, 35, 36, 37, 38, 39, 40, 41, 42, 43, 44, 45, 46, 47, 48, 49, 50, 51, 52, 53, 54, 55, 56, 57, 58, 59, 60, 61, 62, 63, 64, 65, 66, 67, 68, 69, 70, 71, 72, 73, 74, 75, 76, 77, 78, 79, 80, 81, 82, 83, 84, 85, 86, 87, 88, 89, 90, 91, 92, 93, 94, 95, 96, 97, 98, 99, 100, 101, 102, 103, 104, 105, 106, 107, 108, 109, 110, 111, 112, 113, 114, 115, 116, 117, 118, 119, 120, 121, 122, 123, 124, 125, 126, 127, 128, 129, 130, 131, 132, 133, 134, 135, 136, 137, 138, 139, 140, 141, 142, 143, 144, 145, 146, 147, 148, 149, 150, 151, 152, 153, 154, 155, 156, 157, 158, 159, 160, 161, 162, 163, 164, 165, 166, 167, 168, 169, 170, 171, 172, 173, 174, 175, 176, 177, 178, 179, 180, 181, 182, 183, 184, 185, 186, 187, 188, 189, 190, 191, 192, 193, 194, 195, 196, 197, 198, 199, 200, 201, 202, 203, 204, 205, 206, 207, 208, 209, 210, 211, 212, 213, 214, 215, 216, 217, 218, 219, 220, 221, 222, 223, 224, 225, 226, 227, 228, 229, 230, 231, 232, 233, 234, 235, 236, 237, 238, 239, 240, 241, 242, 243, 244, 245, 246, 247, 248, 249, 250, 251, 252, 253, 254, 255, 256, 257, 258, 259, 260, 261, 262, 263, 264, 265, 266, 267, 268, 269, 270, 271, 272, 273, 274, 275, 276, 277, 278, 279, 280, 281, 282, 283, 284, 285, 286, 287, 288, 289, 290, 291, 292, 293, 294, 295, 296, 297, 298, 299, 300, 301, 302, 303, 304, 305, 306, 307, 308, 309, 310, 311, 312, 313, 314, 315, 316, 317, 318, 319, 320, 321, 322, 323, 324, 325, 326, 327, 328, 329, 330, 331, 332, 333, 334, 335, 336, 337, 338, 339, 340, 341, 342, 343, 344, 345, 346, 347, 348, 349, 350, 351, 352, 353, 354, 355, 356, 357, 358, 359, 360, 361, 362, 363, 364, 365, 366, 367, 368, 369, 370, 371, 372, 373, 374, 375, 376, 377, 378, 379, 380, 381, 382, 383, 384, 385, 386, 387, 388, 389, 390, 391, 392, 393, 394, 395, 396, 397, 398, 399, 400, 401, 402, 403, 404, 405, 406, 407, 408, 409, 410, 411, 412, 413, 414, 415, 416, 417, 418, 419, 420, 421, 422, 423, 424, 425, 426, 427, 428, 429, 430, 431, 432, 433, 434, 435, 436, 437, 438, 439, 440, 441, 442, 443, 444, 445, 446, 447, 448, 449, 450, 451, 452, 453, 454, 455, 456, 457, 458, 459, 460],
      "AcquisitionTime": ["185150.400000", "185151.890000", "185153.380000", "185154.870000", "185156.360000", "185157.850000", "185159.340000", "185200.830000", "185202.320000", "185203.810000", "185205.300000", "185206.790000", "185208.280000", "185209.770000", "185211.260000", "185212.750000", "185214.240000", "185215.730000", "185217.220000", "185218.710000", "185220.200000", "185221.690000", "185223.180000", "185224.670000", "185226.160000", "185227.650000", "185229.140000", "185230.630000", "185232.120000", "185233.610000", "185235.100000", "185236.590000", "185238.080000", "185239.570000", "185241.060000", "185242.550000", "185244.040000", "185245.530000", "185247.020000", "185248.510000", "185250.000000", "185251.490000", "185252.980000", "185254.470000", "185255.960000", "185257.450000", "185258.940000", "185300.430000", "185301.920000", "185303.410000", "185304.900000", "185306.390000", "185307.880000", "185309.370000", "185310.860000", "185312.350000", "185313.840000", "185315.330000", "185316.820000", "185318.310000", "185319.800000", "185321.290000", "185322.780000", "185324.270000", "185325.760000", "185327.250000", "185328.740000", "185330.230000", "185331.720000", "185333.210000", "185334.700000", "185336.190000", "185337.680000", "185339.170000", "185340.660000", "185342.150000", "185343.640000", "185345.130000", "185346.620000", "185348.110000", "185349.600000", "185351.090000", "185352.580000", "185354.070000", "185355.560000", "185357.050000", "185358.540000", "185400.030000", "185401.520000", "185403.010000", "185404.500000", "185405.990000", "185407.480000", "185408.970000", "185410.460000", "185411.950000", "185413.440000", "185414.930000", "185416.420000", "185417.910000", "185419.400000", "185420.890000", "185422.380000", "185423.870000", "185425.360000", "185426.850000", "185428.340000", "185429.830000", "185431.320000", "185432.810000", "185434.300000", "185435.790000", "185437.280000", "185438.770000", "185440.260000", "185441.750000", "185443.240000", "185444.730000", "185446.220000", "185447.710000", "185449.200000", "185450.690000", "185452.180000", "185453.670000", "185455.160000", "185456.650000", "185458.140000", "185459.630000", "185501.120000", "185502.610000", "185504.100000", "185505.590000", "185507.080000", "185508.570000", "185510.060000", "185511.550000", "185513.040000", "185514.530000", "185516.020000", "185517.510000", "185519.000000", "185520.490000", "185521.980000", "185523.470000", "185524.960000", "185526.450000", "185527.940000", "185529.430000", "185530.920000", "185532.410000", "185533.900000", "185535.390000", "185536.880000", "185538.370000", "185539.860000", "185541.350000", "185542.840000", "185544.330000", "185545.820000", "185547.310000", "185548.800000", "185550.290000", "185551.780000", "185553.270000", "185554.760000", "185556.250000", "185557.740000", "185559.230000", "185600.720000", "185602.210000", "185603.700000", "185605.190000", "185606.680000", "185608.170000", "185609.660000", "185611.150000", "185612.640000", "185614.130000", "185615.620000", "185617.110000", "185618.600000", "185620.090000", "185621.580000", "185623.070000", "185624.560000", "185626.050000", "185627.540000", "185629.030000", "185630.520000", "185632.010000", "185633.500000", "185634.990000", "185636.480000", "185637.970000", "185639.460000", "185640.950000", "185642.440000", "185643.930000", "185645.420000", "185646.910000", "185648.400000", "185649.890000", "185651.380000", "185652.870000", "185654.360000", "185655.850000", "185657.340000", "185658.830000", "185700.320000", "185701.810000", "185703.300000", "185704.790000", "185706.280000", "185707.770000", "185709.260000", "185710.750000", "185712.240000", "185713.730000", "185715.220000", "185716.710000", "185718.200000", "185719.690000", "185721.180000", "185722.670000", "185724.160000", "185725.650000", "185727.140000", "185728.630000", "185730.120000", "185731.610000", "185733.100000", "185734.590000", "185736.080000", "185737.570000", "185739.060000", "185740.550000", "185742.040000", "185743.530000", "185745.020000", "185746.510000", "185748.000000", "185749.490000", "185750.980000", "185752.470000", "185753.960000", "185755.450000", "185756.940000", "185758.430000", "185759.920000", "185801.410000", "185802.900000", "185804.390000", "185805.880000", "185807.370000", "185808.860000", "185810.350000", "185811.840000", "185813.330000", "185814.820000", "185816.310000", "185817.800000", "185819.290000", "185820.780000", "185822.270000", "185823.760000", "185825.250000", "185826.740000", "185828.230000", "185829.720000", "185831.210000", "185832.700000", "185834.190000", "185835.680000", "185837.170000", "185838.660000", "185840.150000", "185841.640000", "185843.130000", "185844.620000", "185846.110000", "185847.600000", "185849.090000", "185850.580000", "185852.070000", "185853.560000", "185855.050000", "185856.540000", "185858.030000", "185859.520000", "185901.010000", "185902.500000", "185903.990000", "185905.480000", "185906.970000", "185908.460000", "185909.950000", "185911.440000", "185912.930000", "185914.420000", "185915.910000", "185917.400000", "185918.890000", "185920.380000", "185921.870000", "185923.360000", "185924.850000", "185926.340000", "185927.830000", "185929.320000", "185930.810000", "185932.300000", "185933.790000", "185935.280000", "185936.770000", "185938.260000", "185939.750000", "185941.240000", "185942.730000", "185944.220000", "185945.710000", "185947.200000", "185948.690000", "185950.180000", "185951.670000", "185953.160000", "185954.650000", "185956.140000", "185957.630000", "185959.120000", "190000.610000", "190002.100000", "190003.590000", "190005.080000", "190006.570000", "190008.060000", "190009.550000", "190011.040000", "190012.530000", "190014.020000", "190015.510000", "190017.000000", "190018.490000", "190019.980000", "190021.470000", "190022.960000", "190024.450000", "190025.940000", "190027.430000", "190028.920000", "190030.410000", "190031.900000", "190033.390000", "190034.880000", "190036.370000", "190037.860000", "190039.350000", "190040.840000", "190042.330000", "190043.820000", "190045.310000", "190046.800000", "190048.290000", "190049.780000", "190051.270000", "190052.760000", "190054.250000", "190055.740000", "190057.230000", "190058.720000", "190100.210000", "190101.700000", "190103.190000", "190104.680000", "190106.170000", "190107.660000", "190109.150000", "190110.640000", "190112.130000", "190113.620000", "190115.110000", "190116.600000", "190118.090000", "190119.580000", "190121.070000", "190122.560000", "190124.050000", "190125.540000", "190127.030000", "190128.520000", "190130.010000", "190131.500000", "190132.990000", "190134.480000", "190135.970000", "190137.460000", "190138.950000", "190140.440000", "190141.930000", "190143.420000", "190144.910000", "190146.400000", "190147.890000", "190149.380000", "190150.870000", "190152.360000", "190153.850000", "190155.340000", "190156.830000", "190158.320000", "190159.810000", "190201.300000", "190202.790000", "190204.280000", "190205.770000", "190207.260000", "190208.750000", "190210.240000", "190211.730000", "190213.220000", "190214.710000", "190216.200000", "190217.690000", "190219.180000", "190220.670000", "190222.160000", "190223.650000", "190225.140000", "190226.630000", "190228.120000", "190229.610000", "190231.100000", "190232.590000", "190234.080000", "190235.570000", "190237.060000", "190238.550000", "190240.040000", "190241.530000", "190243.020000", "190244.510000", "190246.000000", "190247.490000", "190248.980000", "190250.470000", "190251.960000", "190253.450000", "190254.940000", "190256.430000", "190257.920000", "190259.410000", "190300.900000", "190302.390000", "190303.880000", "190305.370000", "190306.860000", "190308.350000", "190309.840000", "190311.330000", "190312.820000", "190314.310000"],
      "ContentTime": ["185300.851000", "185300.855000", "185300.858000", "185300.861000", "185300.864000", "185300.869000", "185300.872000", "185300.875000", "185300.878000", "185300.881000", "185300.884000", "185320.819000", "185320.822000", "185320.825000", "185320.828000", "185320.831000", "185320.834000", "185320.837000", "185320.840000", "185320.843000", "185320.846000", "185320.849000", "185320.852000", "185320.855000", "185320.858000", "185320.861000", "185320.864000", "185320.867000", "185320.870000", "185320.873000", "185320.876000", "185340.819000", "185340.823000", "185340.826000", "185340.829000", "185340.836000", "185340.839000", "185340.842000", "185340.845000", "185340.848000", "185340.851000", "185340.854000", "185340.857000", "185340.860000", "185340.863000", "185340.866000", "185340.869000", "185340.872000", "185340.875000", "185340.878000", "185340.881000", "185400.819000", "185400.822000", "185400.825000", "185400.828000", "185400.831000", "185400.834000", "185400.837000", "185400.845000", "185400.848000", "185400.851000", "185400.854000", "185400.857000", "185400.860000", "185400.863000", "185400.866000", "185400.869000", "185400.872000", "185400.874000", "185400.877000", "185400.880000", "185420.819000", "185420.822000", "185420.825000", "185420.828000", "185420.831000", "185420.834000", "185420.837000", "185420.840000", "185420.858000", "185420.860000", "185420.863000", "185420.866000", "185420.869000", "185420.872000", "185420.875000", "185420.878000", "185420.881000", "185420.884000", "185420.887000", "185420.890000", "185500.819000", "185500.822000", "185500.825000", "185500.828000", "185500.831000", "185500.834000", "185500.837000", "185500.840000", "185500.843000", "185500.846000", "185500.849000", "185500.852000", "185500.855000", "185500.858000", "185500.861000", "185500.864000", "185500.867000", "185500.870000", "185500.873000", "185500.876000", "185500.879000", "185500.882000", "185500.885000", "185500.888000", "185500.891000", "185500.894000", "185500.897000", "185500.900000", "185500.903000", "185540.819000", "185540.822000", "185540.825000", "185540.828000", "185540.831000", "185540.834000", "185540.837000", "185540.840000", "185540.843000", "185540.846000", "185540.849000", "185540.852000", "185540.855000", "185540.858000", "185540.861000", "185540.864000", "185540.867000", "185540.870000", "185540.873000", "185540.876000", "185540.879000", "185540.882000", "185540.885000", "185540.888000", "185540.891000", "185540.894000", "185540.897000", "185620.819000", "185620.822000", "185620.825000", "185620.828000", "185620.831000", "185620.834000", "185620.837000", "185620.840000", "185620.843000", "185620.846000", "185620.849000", "185620.852000", "185620.855000", "185620.858000", "185620.861000", "185620.864000", "185620.867000", "185620.870000", "185620.873000", "185620.876000", "185620.879000", "185620.882000", "185620.885000", "185620.888000", "185620.891000", "185620.894000", "185620.898000", "185700.819000", "185700.822000", "185700.825000", "185700.828000", "185700.831000", "185700.834000", "185700.837000", "185700.840000", "185700.843000", "185700.846000", "185700.849000", "185700.852000", "185700.855000", "185700.858000", "185700.861000", "185700.864000", "185700.867000", "185700.870000", "185700.873000", "185700.876000", "185700.879000", "185700.882000", "185700.885000", "185700.888000", "185700.891000", "185700.894000", "185740.819000", "185740.822000", "185740.826000", "185740.829000", "185740.832000", "185740.835000", "185740.838000", "185740.841000", "185740.844000", "185740.847000", "185740.850000", "185740.853000", "185740.856000", "185740.859000", "185740.862000", "185740.865000", "185740.868000", "185740.871000", "185740.874000", "185740.877000", "185740.880000", "185740.883000", "185740.886000", "185740.889000", "185740.892000", "185740.895000", "185740.898000", "185820.819000", "185820.822000", "185820.825000", "185820.828000", "185820.831000", "185820.834000", "185820.837000", "185820.840000", "185820.843000", "185820.846000", "185820.849000", "185820.852000", "185820.855000", "185820.858000", "185820.861000", "185820.864000", "185820.867000", "185820.870000", "185820.873000", "185820.876000", "185820.879000", "185820.882000", "185820.885000", "185820.888000", "185820.891000", "185820.894000", "185820.897000", "185900.819000", "185900.822000", "185900.825000", "185900.828000", "185900.831000", "185900.834000", "185900.837000", "185900.840000", "185900.843000", "185900.846000", "185900.849000", "185900.852000", "185900.855000", "185900.858000", "185900.861000", "185900.864000", "185900.867000", "185900.870000", "185900.873000", "185900.876000", "185900.879000", "185900.882000", "185900.885000", "185900.888000", "185900.891000", "185900.894000", "185900.897000", "185940.833000", "185940.836000", "185940.839000", "185940.842000", "185940.845000", "185940.848000", "185940.851000", "185940.854000", "185940.857000", "185940.860000", "185940.863000", "185940.874000", "185940.877000", "185940.880000", "185940.883000", "185940.886000", "185940.889000", "185940.892000", "185940.895000", "185940.898000", "185940.901000", "185940.904000", "185940.907000", "185940.910000", "185940.913000", "185940.916000", "185940.919000", "190020.819000", "190020.822000", "190020.825000", "190020.828000", "190020.831000", "190020.834000", "190020.837000", "190020.840000", "190020.843000", "190020.846000", "190020.849000", "190020.852000", "190020.855000", "190020.858000", "190020.861000", "190020.864000", "190020.867000", "190020.870000", "190020.874000", "190020.876000", "190020.879000", "190020.882000", "190020.885000", "190020.888000", "190020.891000", "190020.894000", "190020.897000", "190100.819000", "190100.822000", "190100.825000", "190100.829000", "190100.832000", "190100.835000", "190100.838000", "190100.841000", "190100.844000", "190100.847000", "190100.850000", "190100.853000", "190100.856000", "190100.859000", "190100.862000", "190100.865000", "190100.868000", "190100.871000", "190100.874000", "190100.877000", "190100.880000", "190100.883000", "190100.886000", "190100.890000", "190100.893000", "190100.895000", "190140.819000", "190140.822000", "190140.825000", "190140.828000", "190140.831000", "190140.834000", "190140.837000", "190140.840000", "190140.843000", "190140.846000", "190140.849000", "190140.852000", "190140.855000", "190140.858000", "190140.861000", "190140.864000", "190140.867000", "190140.870000", "190140.873000", "190140.876000", "190140.879000", "190140.882000", "190140.885000", "190140.888000", "190140.891000", "190140.894000", "190140.897000", "190220.819000", "190220.822000", "190220.826000", "190220.829000", "190220.832000", "190220.835000", "190220.838000", "190220.841000", "190220.844000", "190220.847000", "190220.850000", "190220.862000", "190220.865000", "190220.868000", "190220.872000", "190220.875000", "190220.878000", "190220.881000", "190220.884000", "190220.887000", "190220.890000", "190220.893000", "190220.896000", "190220.899000", "190220.902000", "190220.905000", "190220.908000", "190240.819000", "190240.822000", "190240.825000", "190240.828000", "190240.831000", "190240.834000", "190240.837000", "190240.840000", "190240.843000", "190240.846000", "190240.849000", "190240.852000", "190240.855000", "190240.858000", "190320.819000", "190320.823000", "190320.826000", "190320.829000", "190320.832000", "190320.835000", "190320.838000", "190320.841000", "190320.844000", "190320.847000", "190320.850000", "190320.853000", "190320.856000", "190320.860000", "190320.863000", "190320.866000", "190320.868000", "190320.872000", "190320.875000", "190320.878000", "190320.881000", "190320.884000", "190320.887000", "190320.890000", "190320.893000", "190320.896000", "190326.954000", "190326.958000", "190326.961000", "190326.964000", "190326.967000"],
