{
  "AcquisitionMatrixPE": 104,
  "AcquisitionNumber": 1,
  "AcquisitionTime": "10:12:32.222500",
  "BandwidthPerPixelPhaseEncode": 17.17,
  "BaseResolution": 104,
  "BodyPartExamined": "BRAIN",
  "CoilCombinationMethod": "Sum of Squares",
  "ConsistencyInfo": "N4_VE11C_LATEST_20160120",
  "ConversionSoftware": "dcm2niix",
  "ConversionSoftwareVersion": "v1.0.20230411",
  "DerivedVendorReportedEchoSpacing": 0.000560011,
  "DeviceSerialNumber": "167006",
  "DwellTime": 2.1e-06,
  "EchoTime": 0.037,
  "EchoTrainLength": 104,
  "EffectiveEchoSpacing": 0.000560011,
  "FlipAngle": 52,
  "HeudiconvVersion": "0.5.3.post861+ge7d3c7f",
  "ImageComments": "Unaliased MB4/PE3/LB",
  "ImageOrientationPatientDICOM": [0.995923, 0.0897406, 0.00920324, -0.0778562, 0.906572, -0.414808],
  "ImageOrientationText": "Tra>Cor(-24.4)>Sag(2.6)",
  "ImageType": [
    "ORIGINAL",
    "PRIMARY",
    "M",
    "MB",
    "ND",
    "MOSAIC"
],
  "ImagingFrequency": 123.249698,
  "InPlanePhaseEncodingDirectionDICOM": "COL",
  "InstitutionAddress": "Chemin Queen-Mary 4565,Montreal,District,CA,H3W 1W5",
  "InstitutionName": "IUGM",
  "InstitutionalDepartmentName": "Department",
  "MRAcquisitionType": "2D",
  "MagneticFieldStrength": 3,
  "Manufacturer": "Siemens",
  "ManufacturersModelName": "Prisma_fit",
  "MatrixCoilMode": "SENSE",
  "Modality": "MR",
  "MultibandAccelerationFactor": 4,
  "NonlinearGradientCorrection": false,
  "PartialFourier": 1,
  "PatientPosition": "HFS",
  "PercentPhaseFOV": 100,
  "PercentSampling": 100,
  "PhaseEncodingDirection": "j",
  "PhaseEncodingSteps": 104,
  "PhaseResolution": 1,
  "PixelBandwidth": 2290,
  "ProcedureStepDescription": "video^friends",
  "ProtocolName": "func_task-friends-s07e02a",
  "PulseSequenceDetails": "%CustomerSeq%\\cmrr_mbep2d_bold",
  "ReceiveCoilActiveElements": "HC1-7;NC1,2",
  "ReceiveCoilName": "HeadNeck_64",
  "ReconMatrixPE": 104,
  "RepetitionTime": 1.49,
  "SAR": 0.0993318,
  "ScanOptions": "FS",
  "ScanningSequence": "EP",
  "SequenceName": "epfid2d1_104",
  "SequenceVariant": "SK\\SS",
  "SeriesDescription": "func_task-friends-s07e02a",
  "SeriesNumber": 10,
  "ShimSetting": [606, -7226, -8801, 581, 101, -85, -135, 77],
  "SliceThickness": 2,
  "SliceTiming": [0, 0.785, 0.1, 0.8825, 0.1975, 0.98, 0.295, 1.08, 0.3925, 1.1775, 0.49, 1.275, 0.59, 1.3725, 0.6875, 0, 0.785, 0.1, 0.8825, 0.1975, 0.98, 0.295, 1.08, 0.3925, 1.1775, 0.49, 1.275, 0.59, 1.3725, 0.6875, 0, 0.785, 0.1, 0.8825, 0.1975, 0.98, 0.295, 1.08, 0.3925, 1.1775, 0.49, 1.275, 0.59, 1.3725, 0.6875, 0, 0.785, 0.1, 0.8825, 0.1975, 0.98, 0.295, 1.08, 0.3925, 1.1775, 0.49, 1.275, 0.59, 1.3725, 0.6875],
  "SoftwareVersions": "syngo MR E11",
  "SpacingBetweenSlices": 2,
  "StationName": "MRC35049",
  "TaskName": "s07e02a",
  "TotalReadoutTime": 0.0576811,
  "TxRefAmp": 330.654,
  "WipMemBlock": "c7cbdfe2-675e-49d5-a493-f63a4bc4ec5a||Sequence: R017 ve11c/master r/75a17815+; Jun 28 2022 16:32:11 by eja",
  "dcmmeta_affine": [
    [-1.9918452501296997, -0.1557123214006424, 0.09113694727420807, 108.21601867675781],
    [-0.1794811189174652, 1.8131442070007324, -0.8247997164726257, -55.465110778808594],
    [0.018406474962830544, 0.8296153545379639, 1.8197251558303833, -63.32313919067383],
    [0.0, 0.0, 0.0, 1.0]
],
  "dcmmeta_reorient_transform": [
    [0.0, -1.0, 0.0, 103.0],
    [1.0, 0.0, 0.0, 0.0],
    [0.0, 0.0, 1.0, 0.0],
    [0.0, 0.0, 0.0, 1.0]
],
  "dcmmeta_shape": [104, 104, 60, 492],
  "dcmmeta_slice_dim": 2,
  "dcmmeta_version": 0.6,
  "global": {
    "const": {
      "AcquisitionMatrix": [104, 0, 0, 104],
      "AngioFlag": "N",
      "BitsAllocated": 16,
      "BitsStored": 16,
      "BodyPartExamined": "BRAIN",
      "Columns": 832,
      "EchoNumbers": 1,
      "EchoTime": 37.0,
      "EchoTrainLength": 104,
      "FlipAngle": 52.0,
      "HighBit": 15,
      "ImageOrientationPatient": [0.99592265372278, 0.08974056061129, 0.00920323763413, -0.0778561625616, 0.906572114272, -0.4148076898704],
      "ImagePositionPatient": [-760.53005612167, -856.60437145504, 317.40728788176],
      "ImageType": [
        "ORIGINAL",
        "PRIMARY",
        "M",
        "MB",
        "ND",
        "MOSAIC"
],
      "ImagedNucleus": "1H",
      "ImagingFrequency": 123.249698,
      "InPlanePhaseEncodingDirection": "COL",
      "MRAcquisitionType": "2D",
      "MagneticFieldStrength": 3.0,
      "Manufacturer": "SIEMENS",
      "ManufacturerModelName": "Prisma_fit",
      "Modality": "MR",
      "NumberOfAverages": 1.0,
      "NumberOfPhaseEncodingSteps": 104,
      "PercentPhaseFieldOfView": 100.0,
      "PercentSampling": 100.0,
      "PerformedProcedureStepStartTime": "100820.188000",
      "PhotometricInterpretation": "MONOCHROME2",
      "PixelBandwidth": 2290.0,
      "PixelRepresentation": 0,
      "PixelSpacing": [2.0, 2.0],
      "ProtocolName": "func_task-friends-s07e02a",
      "RepetitionTime": 1490.0,
      "Rows": 832,
      "SAR": 0.0993318432212,
      "SamplesPerPixel": 1,
      "ScanOptions": "FS",
      "ScanningSequence": "EP",
      "SequenceName": "epfid2d1_104",
      "SequenceVariant": [
        "SK",
        "SS"
],
      "SeriesDescription": "func_task-friends-s07e02a",
      "SeriesNumber": 10,
      "SeriesTime": "101341.450000",
      "SliceLocation": -29.810309810624,
      "SliceThickness": 2.0,
      "SmallestImagePixelValue": 0,
      "SoftwareVersions": "syngo MR E11",
      "SpacingBetweenSlices": 1.9999999923082,
      "SpecificCharacterSet": "ISO_IR 100",
      "StudyID": "1",
      "StudyTime": "100820.118000",
      "TransmitCoilName": "Body",
      "VariableFlipAngleFlag": "N",
      "WindowCenterWidthExplanation": "Algo1",
      "dBdt": 0.0},
    "slices": {}
  },
  "time": {
    "samples": {
      "AcquisitionNumber": [1, 2, 3, 4, 5, 6, 7, 8, 9, 10, 11, 12, 13, 14, 15, 16, 17, 18, 19, 20, 21, 22, 23, 24, 25, 26, 27, 28, 29, 30, 31, 32, 33, 34, 35, 36, 37, 38, 39, 40, 41, 42, 43, 44, 45, 46, 47, 48, 49, 50, 51, 52, 53, 54, 55, 56, 57, 58, 59, 60, 61, 62, 63, 64, 65, 66, 67, 68, 69, 70, 71, 72, 73, 74, 75, 76, 77, 78, 79, 80, 81, 82, 83, 84, 85, 86, 87, 88, 89, 90, 91, 92, 93, 94, 95, 96, 97, 98, 99, 100, 101, 102, 103, 104, 105, 106, 107, 108, 109, 110, 111, 112, 113, 114, 115, 116, 117, 118, 119, 120, 121, 122, 123, 124, 125, 126, 127, 128, 129, 130, 131, 132, 133, 134, 135, 136, 137, 138, 139, 140, 141, 142, 143, 144, 145, 146, 147, 148, 149, 150, 151, 152, 153, 154, 155, 156, 157, 158, 159, 160, 161, 162, 163, 164, 165, 166, 167, 168, 169, 170, 171, 172, 173, 174, 175, 176, 177, 178, 179, 180, 181, 182, 183, 184, 185, 186, 187, 188, 189, 190, 191, 192, 193, 194, 195, 196, 197, 198, 199, 200, 201, 202, 203, 204, 205, 206, 207, 208, 209, 210, 211, 212, 213, 214, 215, 216, 217, 218, 219, 220, 221, 222, 223, 224, 225, 226, 227, 228, 229, 230, 231, 232, 233, 234, 235, 236, 237, 238, 239, 240, 241, 242, 243, 244, 245, 246, 247, 248, 249, 250, 251, 252, 253, 254, 255, 256, 257, 258, 259, 260, 261, 262, 263, 264, 265, 266, 267, 268, 269, 270, 271, 272, 273, 274, 275, 276, 277, 278, 279, 280, 281, 282, 283, 284, 285, 286, 287, 288, 289, 290, 291, 292, 293, 294, 295, 296, 297, 298, 299, 300, 301, 302, 303, 304, 305, 306, 307, 308, 309, 310, 311, 312, 313, 314, 315, 316, 317, 318, 319, 320, 321, 322, 323, 324, 325, 326, 327, 328, 329, 330, 331, 332, 333, 334, 335, 336, 337, 338, 339, 340, 341, 342, 343, 344, 345, 346, 347, 348, 349, 350, 351, 352, 353, 354, 355, 356, 357, 358, 359, 360, 361, 362, 363, 364, 365, 366, 367, 368, 369, 370, 371, 372, 373, 374, 375, 376, 377, 378, 379, 380, 381, 382, 383, 384, 385, 386, 387, 388, 389, 390, 391, 392, 393, 394, 395, 396, 397, 398, 399, 400, 401, 402, 403, 404, 405, 406, 407, 408, 409, 410, 411, 412, 413, 414, 415, 416, 417, 418, 419, 420, 421, 422, 423, 424, 425, 426, 427, 428, 429, 430, 431, 432, 433, 434, 435, 436, 437, 438, 439, 440, 441, 442, 443, 444, 445, 446, 447, 448, 449, 450, 451, 452, 453, 454, 455, 456, 457, 458, 459, 460, 461, 462, 463, 464, 465, 466, 467, 468, 469, 470, 471, 472, 473, 474, 475, 476, 477, 478, 479, 480, 481, 482, 483, 484, 485, 486, 487, 488, 489, 490, 491, 492],
      "AcquisitionTime": ["101232.222500", "101233.712500", "101235.202500", "101236.692500", "101238.182500", "101239.672500", "101241.162500", "101242.652500", "101244.142500", "101245.632500", "101247.122500", "101248.612500", "101250.102500", "101251.592500", "101253.082500", "101254.572500", "101256.062500", "101257.552500", "101259.042500", "101300.532500", "101302.022500", "101303.512500", "101305.002500", "101306.492500", "101307.982500", "101309.472500", "101310.962500", "101312.452500", "101313.942500", "101315.432500", "101316.922500", "101318.412500", "101319.902500", "101321.392500", "101322.882500", "101324.372500", "101325.862500", "101327.352500", "101328.842500", "101330.332500", "101331.822500", "101333.312500", "101334.802500", "101336.292500", "101337.782500", "101339.272500", "101340.762500", "101342.252500", "101343.742500", "101345.232500", "101346.722500", "101348.212500", "101349.702500", "101351.192500", "101352.682500", "101354.172500", "101355.662500", "101357.152500", "101358.642500", "101400.132500", "101401.622500", "101403.112500", "101404.602500", "101406.092500", "101407.582500", "101409.072500", "101410.562500", "101412.052500", "101413.542500", "101415.032500", "101416.522500", "101418.012500", "101419.502500", "101420.992500", "101422.482500", "101423.972500", "101425.462500", "101426.952500", "101428.442500", "101429.932500", "101431.422500", "101432.912500", "101434.402500", "101435.892500", "101437.382500", "101438.872500", "101440.362500", "101441.852500", "101443.342500", "101444.832500", "101446.322500", "101447.812500", "101449.302500", "101450.792500", "101452.282500", "101453.772500", "101455.262500", "101456.752500", "101458.242500", "101459.732500", "101501.222500", "101502.712500", "101504.202500", "101505.692500", "101507.182500", "101508.672500", "101510.162500", "101511.652500", "101513.142500", "101514.632500", "101516.122500", "101517.612500", "101519.102500", "101520.592500", "101522.082500", "101523.572500", "101525.062500", "101526.552500", "101528.042500", "101529.532500", "101531.022500", "101532.512500", "101534.002500", "101535.492500", "101536.982500", "101538.472500", "101539.962500", "101541.452500", "101542.942500", "101544.432500", "101545.922500", "101547.412500", "101548.902500", "101550.392500", "101551.882500", "101553.372500", "101554.862500", "101556.352500", "101557.842500", "101559.332500", "101600.822500", "101602.312500", "101603.802500", "101605.292500", "101606.782500", "101608.272500", "101609.762500", "101611.252500", "101612.742500", "101614.232500", "101615.722500", "101617.212500", "101618.702500", "101620.192500", "101621.682500", "101623.172500", "101624.662500", "101626.152500", "101627.642500", "101629.132500", "101630.622500", "101632.112500", "101633.602500", "101635.092500", "101636.582500", "101638.072500", "101639.562500", "101641.052500", "101642.542500", "101644.032500", "101645.522500", "101647.012500", "101648.502500", "101649.992500", "101651.482500", "101652.972500", "101654.462500", "101655.952500", "101657.442500", "101658.932500", "101700.422500", "101701.912500", "101703.402500", "101704.892500", "101706.382500", "101707.872500", "101709.362500", "101710.852500", "101712.342500", "101713.832500", "101715.322500", "101716.812500", "101718.302500", "101719.792500", "101721.282500", "101722.772500", "101724.262500", "101725.752500", "101727.242500", "101728.732500", "101730.222500", "101731.712500", "101733.202500", "101734.692500", "101736.182500", "101737.672500", "101739.162500", "101740.652500", "101742.142500", "101743.632500", "101745.122500", "101746.612500", "101748.102500", "101749.592500", "101751.082500", "101752.572500", "101754.062500", "101755.552500", "101757.042500", "101758.532500", "101800.022500", "101801.512500", "101803.002500", "101804.492500", "101805.982500", "101807.472500", "101808.962500", "101810.452500", "101811.942500", "101813.432500", "101814.922500", "101816.412500", "101817.902500", "101819.392500", "101820.882500", "101822.372500", "101823.862500", "101825.352500", "101826.842500", "101828.332500", "101829.822500", "101831.312500", "101832.802500", "101834.292500", "101835.782500", "101837.272500", "101838.762500", "101840.252500", "101841.742500", "101843.232500", "101844.722500", "101846.212500", "101847.702500", "101849.192500", "101850.682500", "101852.172500", "101853.662500", "101855.152500", "101856.642500", "101858.132500", "101859.622500", "101901.112500", "101902.602500", "101904.092500", "101905.582500", "101907.072500", "101908.562500", "101910.052500", "101911.542500", "101913.032500", "101914.522500", "101916.012500", "101917.502500", "101918.992500", "101920.482500", "101921.972500", "101923.462500", "101924.952500", "101926.442500", "101927.932500", "101929.422500", "101930.912500", "101932.402500", "101933.892500", "101935.382500", "101936.872500", "101938.362500", "101939.852500", "101941.342500", "101942.832500", "101944.322500", "101945.812500", "101947.302500", "101948.792500", "101950.282500", "101951.772500", "101953.262500", "101954.752500", "101956.242500", "101957.732500", "101959.222500", "102000.712500", "102002.202500", "102003.692500", "102005.182500", "102006.672500", "102008.162500", "102009.652500", "102011.142500", "102012.632500", "102014.122500", "102015.612500", "102017.102500", "102018.592500", "102020.082500", "102021.572500", "102023.062500", "102024.552500", "102026.042500", "102027.532500", "102029.022500", "102030.512500", "102032.002500", "102033.492500", "102034.982500", "102036.472500", "102037.962500", "102039.452500", "102040.942500", "102042.432500", "102043.922500", "102045.412500", "102046.902500", "102048.392500", "102049.882500", "102051.372500", "102052.862500", "102054.352500", "102055.842500", "102057.332500", "102058.822500", "102100.312500", "102101.802500", "102103.292500", "102104.782500", "102106.272500", "102107.762500", "102109.252500", "102110.742500", "102112.232500", "102113.722500", "102115.212500", "102116.702500", "102118.192500", "102119.682500", "102121.172500", "102122.662500", "102124.152500", "102125.642500", "102127.132500", "102128.622500", "102130.112500", "102131.602500", "102133.092500", "102134.582500", "102136.072500", "102137.562500", "102139.052500", "102140.542500", "102142.032500", "102143.522500", "102145.012500", "102146.502500", "102147.992500", "102149.482500", "102150.972500", "102152.462500", "102153.952500", "102155.442500", "102156.932500", "102158.422500", "102159.912500", "102201.402500", "102202.892500", "102204.382500", "102205.872500", "102207.362500", "102208.852500", "102210.342500", "102211.832500", "102213.322500", "102214.812500", "102216.302500", "102217.792500", "102219.282500", "102220.772500", "102222.262500", "102223.752500", "102225.242500", "102226.732500", "102228.222500", "102229.712500", "102231.202500", "102232.692500", "102234.182500", "102235.672500", "102237.162500", "102238.652500", "102240.142500", "102241.632500", "102243.122500", "102244.612500", "102246.102500", "102247.592500", "102249.082500", "102250.572500", "102252.062500", "102253.552500", "102255.042500", "102256.532500", "102258.022500", "102259.512500", "102301.002500", "102302.492500", "102303.982500", "102305.472500", "102306.962500", "102308.452500", "102309.942500", "102311.432500", "102312.922500", "102314.412500", "102315.902500", "102317.392500", "102318.882500", "102320.372500", "102321.862500", "102323.352500", "102324.842500", "102326.332500", "102327.822500", "102329.312500", "102330.802500", "102332.292500", "102333.782500", "102335.272500", "102336.762500", "102338.252500", "102339.742500", "102341.232500", "102342.722500", "102344.212500", "102345.702500", "102347.192500", "102348.682500", "102350.172500", "102351.662500", "102353.152500", "102354.642500", "102356.132500", "102357.622500", "102359.112500", "102400.602500", "102402.092500", "102403.582500", "102405.072500", "102406.562500", "102408.052500", "102409.542500", "102411.032500", "102412.522500", "102414.012500", "102415.502500", "102416.992500", "102418.482500", "102419.972500", "102421.462500", "102422.952500", "102424.442500", "102425.932500", "102427.422500", "102428.912500", "102430.402500", "102431.892500", "102433.382500", "102434.872500", "102436.362500", "102437.852500", "102439.342500", "102440.832500", "102442.322500", "102443.812500"],
      "ContentTime": ["101341.454000", "101341.457000", "101341.469000", "101341.472000", "101341.475000", "101341.486000", "101341.489000", "101341.492000", "101341.495000", "101341.498000", "101341.501000", "101341.504000", "101341.507000", "101341.510000", "101341.518000", "101341.521000", "101341.524000", "101341.527000", "101341.529000", "101341.532000", "101341.535000", "101401.426000", "101401.429000", "101401.432000", "101401.435000", "101401.438000", "101401.441000", "101401.443000", "101401.446000", "101401.449000", "101401.452000", "101401.455000", "101401.458000", "101401.460000", "101401.463000", "101401.466000", "101401.469000", "101401.472000", "101401.475000", "101401.478000", "101401.480000", "101421.426000", "101421.429000", "101421.432000", "101421.435000", "101421.437000", "101421.440000", "101421.443000", "101421.446000", "101421.453000", "101421.456000", "101421.459000", "101421.462000", "101421.465000", "101421.468000", "101421.471000", "101421.474000", "101421.477000", "101421.479000", "101421.482000", "101421.485000", "101441.426000", "101441.429000", "101441.432000", "101441.435000", "101441.438000", "101441.440000", "101441.443000", "101441.446000", "101441.449000", "101441.452000", "101441.455000", "101441.458000", "101441.460000", "101441.463000", "101441.466000", "101441.469000", "101441.472000", "101441.475000", "101441.477000", "101441.480000", "101521.426000", "101521.429000", "101521.432000", "101521.435000", "101521.437000", "101521.440000", "101521.443000", "101521.446000", "101521.449000", "101521.452000", "101521.455000", "101521.458000", "101521.460000", "101521.463000", "101521.466000", "101521.469000", "101521.472000", "101521.475000", "101521.478000", "101521.480000", "101521.483000", "101521.486000", "101521.489000", "101521.492000", "101521.495000", "101521.498000", "101521.501000", "101521.504000", "101521.507000", "101521.510000", "101521.513000", "101521.516000", "101601.426000", "101601.429000", "101601.432000", "101601.435000", "101601.438000", "101601.440000", "101601.443000", "101601.446000", "101601.449000", "101601.452000", "101601.455000", "101601.458000", "101601.460000", "101601.463000", "101601.466000", "101601.469000", "101601.472000", "101601.475000", "101601.478000", "101601.480000", "101601.483000", "101601.486000", "101601.492000", "101601.495000", "101601.498000", "101601.501000", "101601.504000", "101641.426000", "101641.429000", "101641.432000", "101641.435000", "101641.438000", "101641.441000", "101641.444000", "101641.446000", "101641.449000", "101641.452000", "101641.455000", "101641.466000", "101641.469000", "101641.472000", "101641.474000", "101641.478000", "101641.480000", "101641.483000", "101641.486000", "101641.489000", "101641.492000", "101641.495000", "101641.498000", "101641.501000", "101641.504000", "101641.507000", "101641.509000", "101721.426000", "101721.429000", "101721.432000", "101721.435000", "101721.438000", "101721.441000", "101721.444000", "101721.446000", "101721.449000", "101721.452000", "101721.455000", "101721.458000", "101721.461000", "101721.464000", "101721.466000", "101721.469000", "101721.472000", "101721.475000", "101721.478000", "101721.481000", "101721.484000", "101721.487000", "101721.489000", "101721.492000", "101721.495000", "101721.498000", "101721.501000", "101801.426000", "101801.429000", "101801.432000", "101801.435000", "101801.438000", "101801.440000", "101801.443000", "101801.446000", "101801.449000", "101801.452000", "101801.455000", "101801.459000", "101801.462000", "101801.465000", "101801.468000", "101801.471000", "101801.474000", "101801.477000", "101801.479000", "101801.483000", "101801.485000", "101801.488000", "101801.491000", "101801.494000", "101801.497000", "101801.500000", "101841.426000", "101841.429000", "101841.432000", "101841.435000", "101841.438000", "101841.441000", "101841.444000", "101841.447000", "101841.449000", "101841.452000", "101841.455000", "101841.458000", "101841.461000", "101841.464000", "101841.467000", "101841.470000", "101841.472000", "101841.475000", "101841.478000", "101841.481000", "101841.484000", "101841.487000", "101841.490000", "101841.493000", "101841.495000", "101841.498000", "101841.501000", "101921.426000", "101921.429000", "101921.432000", "101921.435000", "101921.438000", "101921.441000", "101921.444000", "101921.446000", "101921.449000", "101921.452000", "101921.455000", "101921.458000", "101921.461000", "101921.464000", "101921.467000", "101921.469000", "101921.472000", "101921.475000", "101921.478000", "101921.481000", "101921.484000", "101921.487000", "101921.490000", "101921.492000", "101921.495000", "101921.498000", "101921.501000", "102001.426000", "102001.429000", "102001.432000", "102001.435000", "102001.438000", "102001.440000", "102001.443000", "102001.464000", "102001.466000", "102001.469000", "102001.472000", "102001.475000", "102001.478000", "102001.481000", "102001.484000", "102001.487000", "102001.490000", "102001.493000", "102001.496000", "102001.499000", "102001.502000", "102001.505000", "102001.508000", "102001.511000", "102001.514000", "102001.517000", "102001.519000", "102021.426000", "102021.429000", "102021.432000", "102021.435000", "102021.438000", "102021.441000", "102021.444000", "102021.447000", "102021.450000", "102021.453000", "102021.456000", "102021.458000", "102021.461000", "102101.426000", "102101.429000", "102101.432000", "102101.435000", "102101.438000", "102101.441000", "102101.444000", "102101.447000", "102101.449000", "102101.452000", "102101.455000", "102101.458000", "102101.461000", "102101.464000", "102101.467000", "102101.470000", "102101.472000", "102101.475000", "102101.478000", "102101.481000", "102101.484000", "102101.487000", "102101.490000", "102101.493000", "102101.496000", "102101.498000", "102101.501000", "102141.426000", "102141.429000", "102141.432000", "102141.435000", "102141.438000", "102141.441000", "102141.443000", "102141.446000", "102141.449000", "102141.452000", "102141.455000", "102141.458000", "102141.461000", "102141.464000", "102141.467000", "102141.470000", "102141.473000", "102141.476000", "102141.478000", "102141.481000", "102141.484000", "102141.487000", "102141.490000", "102141.493000", "102141.496000", "102141.499000", "102141.501000", "102221.426000", "102221.429000", "102221.432000", "102221.435000", "102221.438000", "102221.441000", "102221.444000", "102221.446000", "102221.449000", "102221.452000", "102221.455000", "102221.458000", "102221.461000", "102221.464000", "102221.467000", "102221.469000", "102221.472000", "102221.475000", "102221.478000", "102221.481000", "102221.484000", "102221.487000", "102221.489000", "102221.492000", "102221.495000", "102221.498000", "102221.501000", "102301.426000", "102301.429000", "102301.432000", "102301.435000", "102301.438000", "102301.441000", "102301.443000", "102301.446000", "102301.449000", "102301.452000", "102301.455000", "102301.458000", "102301.461000", "102301.464000", "102301.467000", "102301.470000", "102301.472000", "102301.475000", "102301.478000", "102301.481000", "102301.484000", "102301.487000", "102301.490000", "102301.493000", "102301.496000", "102301.498000", "102301.501000", "102341.426000", "102341.429000", "102341.432000", "102341.435000", "102341.438000", "102341.441000", "102341.444000", "102341.446000", "102341.449000", "102341.452000", "102341.455000", "102341.458000", "102341.461000", "102341.464000", "102341.467000", "102341.476000", "102341.479000", "102341.482000", "102341.485000", "102341.487000", "102341.490000", "102341.493000", "102341.496000", "102341.499000", "102341.502000", "102341.505000", "102341.508000", "102421.426000", "102421.429000", "102421.432000", "102421.435000", "102421.438000", "102421.441000", "102421.444000", "102421.447000", "102421.450000", "102421.453000", "102421.456000", "102421.459000", "102421.462000", "102421.465000", "102421.468000", "102421.471000", "102421.474000", "102421.477000", "102421.480000", "102421.482000", "102421.498000", "102421.501000", "102421.504000", "102421.507000", "102421.510000", "102421.513000", "102445.497000", "102445.500000", "102445.503000", "102445.506000", "102445.508000", "102445.511000", "102445.514000", "102445.517000", "102445.520000", "102445.523000", "102445.526000", "102445.529000", "102445.532000", "102445.535000", "102445.538000", "102445.541000", "102445.544000"],
