{
  "AcquisitionMatrixPE": 104,
  "AcquisitionNumber": 1,
  "AcquisitionTime": "14:37:55.435000",
  "BandwidthPerPixelPhaseEncode": 17.17,
  "BaseResolution": 104,
  "BodyPartExamined": "BRAIN",
  "CoilString": "HC1-7;NC1_2",
  "ConsistencyInfo": "N4_VE11C_LATEST_20160120",
  "ConversionSoftware": "dcm2niix",
  "ConversionSoftwareVersion": "v1.0.20190720  (JP2:OpenJPEG) GCC7.3.0",
  "DerivedVendorReportedEchoSpacing": 0.000560011,
  "DeviceSerialNumber": "167006",
  "DwellTime": 2.1e-06,
  "EchoTime": 0.037,
  "EchoTrainLength": 104,
  "EffectiveEchoSpacing": 0.000560011,
  "FlipAngle": 52,
  "ImageComments": "Unaliased_MB4_PE3_LB",
  "ImageOrientationPatientDICOM": [0.997457, -0.0617672, 0.0355483, 0.0706237, 0.92354, -0.376943],
  "ImageType": [
    "ORIGINAL",
    "PRIMARY",
    "M",
    "MB",
    "ND",
    "MOSAIC"
],
  "ImagingFrequency": 123.259,
  "InPlanePhaseEncodingDirectionDICOM": "COL",
  "InstitutionAddress": "Chemin_Queen-Mary_4565_Montreal_District_CA_H3W_1W5",
  "InstitutionName": "IUGM",
  "InstitutionalDepartmentName": "Department",
  "MRAcquisitionType": "2D",
  "MagneticFieldStrength": 3,
  "Manufacturer": "Siemens",
  "ManufacturersModelName": "Prisma_fit",
  "Modality": "MR",
  "MultibandAccelerationFactor": 4,
  "PartialFourier": 1,
  "PatientPosition": "HFS",
  "PercentPhaseFOV": 100,
  "PhaseEncodingDirection": "j",
  "PhaseEncodingSteps": 104,
  "PhaseResolution": 1,
  "PixelBandwidth": 2290,
  "ProcedureStepDescription": "video_friends",
  "ProtocolName": "func_task-s01e12b",
  "PulseSequenceDetails": "%CustomerSeq%_cmrr_mbep2d_bold",
  "ReceiveCoilActiveElements": "HC1-7;NC1,2",
  "ReceiveCoilName": "HeadNeck_64",
  "ReconMatrixPE": 104,
  "RepetitionTime": 1.49,
  "SAR": 0.0290763,
  "ScanOptions": "FS",
  "ScanningSequence": "EP",
  "SequenceName": "epfid2d1_104",
  "SequenceVariant": "SK_SS",
  "SeriesDescription": "func_task-s01e12b",
  "SeriesNumber": 24,
  "ShimSetting": [634, -7270, -8862, 601, 38, -253, -86, -29],
  "SliceThickness": 2,
  "SliceTiming": [0, 0.7825, 0.0975, 0.88, 0.195, 0.9775, 0.2925, 1.0775, 0.39, 1.175, 0.4875, 1.2725, 0.5875, 1.37, 0.685, 0, 0.7825, 0.0975, 0.88, 0.195, 0.9775, 0.2925, 1.0775, 0.39, 1.175, 0.4875, 1.2725, 0.5875, 1.37, 0.685, 0, 0.7825, 0.0975, 0.88, 0.195, 0.9775, 0.2925, 1.0775, 0.39, 1.175, 0.4875, 1.2725, 0.5875, 1.37, 0.685, 0, 0.7825, 0.0975, 0.88, 0.195, 0.9775, 0.2925, 1.0775, 0.39, 1.175, 0.4875, 1.2725, 0.5875, 1.37, 0.685],
  "SoftwareVersions": "syngo_MR_E11",
  "SpacingBetweenSlices": 2,
  "StationName": "MRC35049",
  "TaskName": "friends",
  "TotalReadoutTime": 0.0576811,
  "TxRefAmp": 227.089,
  "WipMemBlock": "3e799644-59db-4b6c-9cbb-14aef8a3228c||Sequence: R016 ve11c/master r/e634e98; Dec 19 2017 11:00:25 by eja",
  "dcmmeta_affine": [
    [-1.9949146509170532, 0.1412474513053894, 0.01909506320953369, 94.76681518554688],
    [0.12353438138961792, 1.847079873085022, -0.7569907903671265, -76.59394836425781],
    [0.07109656184911728, 0.7538865804672241, 1.8511078357696533, -79.37273406982422],
    [0.0, 0.0, 0.0, 1.0]
],
  "dcmmeta_reorient_transform": [
    [0.0, -1.0, 0.0, 103.0],
    [1.0, 0.0, 0.0, 0.0],
    [0.0, 0.0, 1.0, 0.0],
    [0.0, 0.0, 0.0, 1.0]
],
  "dcmmeta_shape": [104, 104, 60, 471],
  "dcmmeta_slice_dim": 2,
  "dcmmeta_version": 0.6,
  "global": {
    "const": {
      "AcquisitionMatrix": [104, 0, 0, 104],
      "AngioFlag": "N",
      "BitsAllocated": 16,
      "BitsStored": 16,
      "BodyPartExamined": "BRAIN",
      "Columns": 832,
      "EchoNumbers": 1,
      "EchoTime": 37.0,
      "EchoTrainLength": 104,
      "FlipAngle": 52.0,
      "HighBit": 15,
      "ImageOrientationPatient": [0.99745733438108, -0.0617671896754, 0.03554828222269, 0.07062372638689, 0.92353995566068, -0.3769432842876],
      "ImagePositionPatient": [-886.87831358881, -741.02585751372, 246.81314080245],
      "ImageType": [
        "ORIGINAL",
        "PRIMARY",
        "M",
        "MB",
        "ND",
        "MOSAIC"
],
      "ImagedNucleus": "1H",
      "ImagingFrequency": 123.259191,
      "InPlanePhaseEncodingDirection": "COL",
      "MRAcquisitionType": "2D",
      "MagneticFieldStrength": 3.0,
      "Manufacturer": "SIEMENS",
      "ManufacturerModelName": "Prisma_fit",
      "Modality": "MR",
      "NumberOfAverages": 1.0,
      "NumberOfPhaseEncodingSteps": 104,
      "PercentPhaseFieldOfView": 100.0,
      "PercentSampling": 100.0,
      "PerformedProcedureStepStartTime": "130812.820000",
      "PhotometricInterpretation": "MONOCHROME2",
      "PixelBandwidth": 2290.0,
      "PixelRepresentation": 0,
      "PixelSpacing": [2.0, 2.0],
      "ProtocolName": "func_task-s01e12b",
      "RepetitionTime": 1490.0,
      "Rows": 832,
      "SAR": 0.02907626900729,
      "SamplesPerPixel": 1,
      "ScanOptions": "FS",
      "ScanningSequence": "EP",
      "SequenceName": "epfid2d1_104",
      "SequenceVariant": [
        "SK",
        "SS"
],
      "SeriesDescription": "func_task-s01e12b",
      "SeriesNumber": 24,
      "SeriesTime": "143901.090000",
      "SliceLocation": -43.568503597739,
      "SliceThickness": 2.0,
      "SmallestImagePixelValue": 0,
      "SoftwareVersions": "syngo MR E11",
      "SpacingBetweenSlices": 1.9999999651284,
      "SpecificCharacterSet": "ISO_IR 100",
      "StudyID": "1",
      "StudyTime": "130812.669000",
      "TransmitCoilName": "Body",
      "VariableFlipAngleFlag": "N",
      "WindowCenterWidthExplanation": "Algo1",
      "dBdt": 0.0},
    "slices": {}
  },
  "time": {
    "samples": {
      "AcquisitionNumber": [1, 2, 3, 4, 5, 6, 7, 8, 9, 10, 11, 12, 13, 14, 15, 16, 17, 18, 19, 20, 21, 22, 23, 24, 25, 26, 27, 28, 29, 30, 31, 32, 33, 34, 35, 36, 37, 38, 39, 40, 41, 42, 43, 44, 45, 46, 47, 48, 49, 50, 51, 52, 53, 54, 55, 56, 57, 58, 59, 60, 61, 62, 63, 64, 65, 66, 67, 68, 69, 70, 71, 72, 73, 74, 75, 76, 77, 78, 79, 80, 81, 82, 83, 84, 85, 86, 87, 88, 89, 90, 91, 92, 93, 94, 95, 96, 97, 98, 99, 100, 101, 102, 103, 104, 105, 106, 107, 108, 109, 110, 111, 112, 113, 114, 115, 116, 117, 118, 119, 120, 121, 122, 123, 124, 125, 126, 127, 128, 129, 130, 131, 132, 133, 134, 135, 136, 137, 138, 139, 140, 141, 142, 143, 144, 145, 146, 147, 148, 149, 150, 151, 152, 153, 154, 155, 156, 157, 158, 159, 160, 161, 162, 163, 164, 165, 166, 167, 168, 169, 170, 171, 172, 173, 174, 175, 176, 177, 178, 179, 180, 181, 182, 183, 184, 185, 186, 187, 188, 189, 190, 191, 192, 193, 194, 195, 196, 197, 198, 199, 200, 201, 202, 203, 204, 205, 206, 207, 208, 209, 210, 211, 212, 213, 214, 215, 216, 217, 218, 219, 220, 221, 222, 223, 224, 225, 226, 227, 228, 229, 230, 231, 232, 233, 234, 235, 236, 237, 238, 239, 240, 241, 242, 243, 244, 245, 246, 247, 248, 249, 250, 251, 252, 253, 254, 255, 256, 257, 258, 259, 260, 261, 262, 263, 264, 265, 266, 267, 268, 269, 270, 271, 272, 273, 274, 275, 276, 277, 278, 279, 280, 281, 282, 283, 284, 285, 286, 287, 288, 289, 290, 291, 292, 293, 294, 295, 296, 297, 298, 299, 300, 301, 302, 303, 304, 305, 306, 307, 308, 309, 310, 311, 312, 313, 314, 315, 316, 317, 318, 319, 320, 321, 322, 323, 324, 325, 326, 327, 328, 329, 330, 331, 332, 333, 334, 335, 336, 337, 338, 339, 340, 341, 342, 343, 344, 345, 346, 347, 348, 349, 350, 351, 352, 353, 354, 355, 356, 357, 358, 359, 360, 361, 362, 363, 364, 365, 366, 367, 368, 369, 370, 371, 372, 373, 374, 375, 376, 377, 378, 379, 380, 381, 382, 383, 384, 385, 386, 387, 388, 389, 390, 391, 392, 393, 394, 395, 396, 397, 398, 399, 400, 401, 402, 403, 404, 405, 406, 407, 408, 409, 410, 411, 412, 413, 414, 415, 416, 417, 418, 419, 420, 421, 422, 423, 424, 425, 426, 427, 428, 429, 430, 431, 432, 433, 434, 435, 436, 437, 438, 439, 440, 441, 442, 443, 444, 445, 446, 447, 448, 449, 450, 451, 452, 453, 454, 455, 456, 457, 458, 459, 460, 461, 462, 463, 464, 465, 466, 467, 468, 469, 470, 471],
      "AcquisitionTime": ["143755.435000", "143756.925000", "143758.415000", "143759.905000", "143801.395000", "143802.885000", "143804.375000", "143805.865000", "143807.355000", "143808.845000", "143810.335000", "143811.825000", "143813.315000", "143814.805000", "143816.295000", "143817.785000", "143819.275000", "143820.765000", "143822.255000", "143823.745000", "143825.235000", "143826.725000", "143828.215000", "143829.705000", "143831.195000", "143832.685000", "143834.175000", "143835.665000", "143837.155000", "143838.645000", "143840.135000", "143841.625000", "143843.115000", "143844.605000", "143846.095000", "143847.585000", "143849.075000", "143850.565000", "143852.055000", "143853.545000", "143855.035000", "143856.525000", "143858.015000", "143859.505000", "143900.995000", "143902.485000", "143903.975000", "143905.465000", "143906.955000", "143908.445000", "143909.935000", "143911.425000", "143912.915000", "143914.405000", "143915.895000", "143917.385000", "143918.875000", "143920.365000", "143921.855000", "143923.345000", "143924.835000", "143926.325000", "143927.815000", "143929.305000", "143930.795000", "143932.285000", "143933.775000", "143935.265000", "143936.755000", "143938.245000", "143939.735000", "143941.225000", "143942.715000", "143944.205000", "143945.695000", "143947.185000", "143948.675000", "143950.165000", "143951.655000", "143953.145000", "143954.635000", "143956.125000", "143957.615000", "143959.105000", "144000.595000", "144002.085000", "144003.575000", "144005.065000", "144006.555000", "144008.045000", "144009.535000", "144011.025000", "144012.515000", "144014.005000", "144015.495000", "144016.985000", "144018.475000", "144019.965000", "144021.455000", "144022.945000", "144024.435000", "144025.925000", "144027.415000", "144028.905000", "144030.395000", "144031.885000", "144033.375000", "144034.865000", "144036.355000", "144037.845000", "144039.335000", "144040.825000", "144042.315000", "144043.805000", "144045.295000", "144046.785000", "144048.275000", "144049.765000", "144051.255000", "144052.745000", "144054.235000", "144055.725000", "144057.215000", "144058.705000", "144100.195000", "144101.685000", "144103.175000", "144104.665000", "144106.155000", "144107.645000", "144109.135000", "144110.625000", "144112.115000", "144113.605000", "144115.095000", "144116.585000", "144118.075000", "144119.565000", "144121.055000", "144122.545000", "144124.035000", "144125.525000", "144127.015000", "144128.505000", "144129.995000", "144131.485000", "144132.975000", "144134.465000", "144135.955000", "144137.445000", "144138.935000", "144140.425000", "144141.915000", "144143.405000", "144144.895000", "144146.385000", "144147.875000", "144149.365000", "144150.855000", "144152.345000", "144153.835000", "144155.325000", "144156.815000", "144158.305000", "144159.795000", "144201.285000", "144202.775000", "144204.265000", "144205.755000", "144207.245000", "144208.735000", "144210.225000", "144211.715000", "144213.205000", "144214.695000", "144216.185000", "144217.675000", "144219.165000", "144220.655000", "144222.145000", "144223.635000", "144225.125000", "144226.615000", "144228.105000", "144229.595000", "144231.085000", "144232.575000", "144234.065000", "144235.555000", "144237.045000", "144238.535000", "144240.025000", "144241.515000", "144243.005000", "144244.495000", "144245.985000", "144247.475000", "144248.965000", "144250.455000", "144251.945000", "144253.435000", "144254.925000", "144256.415000", "144257.905000", "144259.395000", "144300.885000", "144302.375000", "144303.865000", "144305.355000", "144306.845000", "144308.335000", "144309.825000", "144311.315000", "144312.805000", "144314.295000", "144315.785000", "144317.275000", "144318.765000", "144320.255000", "144321.745000", "144323.235000", "144324.725000", "144326.215000", "144327.705000", "144329.195000", "144330.685000", "144332.175000", "144333.665000", "144335.155000", "144336.645000", "144338.135000", "144339.625000", "144341.115000", "144342.605000", "144344.095000", "144345.585000", "144347.075000", "144348.565000", "144350.055000", "144351.545000", "144353.035000", "144354.525000", "144356.015000", "144357.505000", "144358.995000", "144400.485000", "144401.975000", "144403.465000", "144404.955000", "144406.445000", "144407.935000", "144409.425000", "144410.915000", "144412.405000", "144413.895000", "144415.385000", "144416.875000", "144418.365000", "144419.855000", "144421.345000", "144422.835000", "144424.325000", "144425.815000", "144427.305000", "144428.795000", "144430.285000", "144431.775000", "144433.265000", "144434.755000", "144436.245000", "144437.735000", "144439.225000", "144440.715000", "144442.205000", "144443.695000", "144445.185000", "144446.675000", "144448.165000", "144449.655000", "144451.145000", "144452.635000", "144454.125000", "144455.615000", "144457.105000", "144458.595000", "144500.085000", "144501.575000", "144503.065000", "144504.555000", "144506.045000", "144507.535000", "144509.025000", "144510.515000", "144512.005000", "144513.495000", "144514.985000", "144516.475000", "144517.965000", "144519.455000", "144520.945000", "144522.435000", "144523.925000", "144525.415000", "144526.905000", "144528.395000", "144529.885000", "144531.375000", "144532.865000", "144534.355000", "144535.845000", "144537.335000", "144538.825000", "144540.315000", "144541.805000", "144543.295000", "144544.785000", "144546.275000", "144547.765000", "144549.255000", "144550.745000", "144552.235000", "144553.725000", "144555.215000", "144556.705000", "144558.195000", "144559.685000", "144601.175000", "144602.665000", "144604.155000", "144605.645000", "144607.135000", "144608.625000", "144610.115000", "144611.605000", "144613.095000", "144614.585000", "144616.075000", "144617.565000", "144619.055000", "144620.545000", "144622.035000", "144623.525000", "144625.015000", "144626.505000", "144627.995000", "144629.485000", "144630.975000", "144632.465000", "144633.955000", "144635.445000", "144636.935000", "144638.425000", "144639.915000", "144641.405000", "144642.895000", "144644.385000", "144645.875000", "144647.365000", "144648.855000", "144650.345000", "144651.835000", "144653.325000", "144654.815000", "144656.305000", "144657.795000", "144659.285000", "144700.775000", "144702.265000", "144703.755000", "144705.245000", "144706.735000", "144708.225000", "144709.715000", "144711.205000", "144712.695000", "144714.185000", "144715.675000", "144717.165000", "144718.655000", "144720.145000", "144721.635000", "144723.125000", "144724.615000", "144726.105000", "144727.595000", "144729.085000", "144730.575000", "144732.065000", "144733.555000", "144735.045000", "144736.535000", "144738.025000", "144739.515000", "144741.005000", "144742.495000", "144743.985000", "144745.475000", "144746.965000", "144748.455000", "144749.945000", "144751.435000", "144752.925000", "144754.415000", "144755.905000", "144757.395000", "144758.885000", "144800.375000", "144801.865000", "144803.355000", "144804.845000", "144806.335000", "144807.825000", "144809.315000", "144810.805000", "144812.295000", "144813.785000", "144815.275000", "144816.765000", "144818.255000", "144819.745000", "144821.235000", "144822.725000", "144824.215000", "144825.705000", "144827.195000", "144828.685000", "144830.175000", "144831.665000", "144833.155000", "144834.645000", "144836.135000", "144837.625000", "144839.115000", "144840.605000", "144842.095000", "144843.585000", "144845.075000", "144846.565000", "144848.055000", "144849.545000", "144851.035000", "144852.525000", "144854.015000", "144855.505000", "144856.995000", "144858.485000", "144859.975000", "144901.465000", "144902.955000", "144904.445000", "144905.935000", "144907.425000", "144908.915000", "144910.405000", "144911.895000", "144913.385000", "144914.875000", "144916.365000", "144917.855000", "144919.345000", "144920.835000", "144922.325000", "144923.815000", "144925.305000", "144926.795000", "144928.285000", "144929.775000", "144931.265000", "144932.755000", "144934.245000", "144935.735000"],
      "ContentTime": ["143901.093000", "143901.096000", "143901.099000", "143901.102000", "143901.105000", "143901.108000", "143901.111000", "143901.124000", "143901.126000", "143901.129000", "143901.134000", "143901.137000", "143901.140000", "143921.055000", "143921.058000", "143921.061000", "143921.064000", "143921.067000", "143921.070000", "143921.073000", "143921.076000", "143921.079000", "143921.082000", "143921.084000", "143921.087000", "143921.090000", "143921.093000", "143921.096000", "143921.099000", "143921.102000", "143921.105000", "143921.108000", "143921.111000", "143941.055000", "143941.068000", "143941.071000", "143941.074000", "143941.077000", "143941.080000", "143941.083000", "143941.086000", "143941.089000", "143941.092000", "143941.095000", "143941.098000", "143941.101000", "143941.104000", "143941.106000", "143941.110000", "143941.122000", "143941.125000", "143941.128000", "143941.131000", "144001.054000", "144001.057000", "144001.060000", "144001.063000", "144001.076000", "144001.079000", "144001.082000", "144001.085000", "144001.088000", "144001.091000", "144001.094000", "144001.097000", "144001.100000", "144001.103000", "144001.106000", "144001.109000", "144001.112000", "144001.115000", "144001.117000", "144001.120000", "144021.054000", "144021.057000", "144021.060000", "144021.063000", "144021.066000", "144021.069000", "144021.072000", "144021.075000", "144021.077000", "144021.080000", "144021.083000", "144021.086000", "144021.089000", "144021.092000", "144021.095000", "144021.098000", "144021.101000", "144021.104000", "144021.107000", "144021.110000", "144021.113000", "144101.055000", "144101.058000", "144101.061000", "144101.064000", "144101.067000", "144101.070000", "144101.073000", "144101.076000", "144101.079000", "144101.082000", "144101.085000", "144101.088000", "144101.090000", "144101.093000", "144101.104000", "144101.107000", "144101.110000", "144101.113000", "144101.116000", "144101.119000", "144101.122000", "144101.125000", "144101.128000", "144101.136000", "144101.139000", "144101.141000", "144101.144000", "144101.147000", "144101.150000", "144101.153000", "144141.055000", "144141.058000", "144141.061000", "144141.064000", "144141.067000", "144141.070000", "144141.073000", "144141.076000", "144141.079000", "144141.082000", "144141.085000", "144141.088000", "144141.091000", "144141.094000", "144141.097000", "144141.100000", "144141.103000", "144141.106000", "144141.109000", "144141.112000", "144141.114000", "144141.119000", "144141.122000", "144141.125000", "144141.128000", "144141.131000", "144221.054000", "144221.058000", "144221.061000", "144221.064000", "144221.066000", "144221.069000", "144221.072000", "144221.086000", "144221.089000", "144221.092000", "144221.095000", "144221.098000", "144221.101000", "144221.104000", "144221.107000", "144221.110000", "144221.113000", "144221.116000", "144221.119000", "144221.122000", "144221.125000", "144221.128000", "144221.131000", "144221.134000", "144221.137000", "144221.140000", "144221.143000", "144301.055000", "144301.058000", "144301.061000", "144301.064000", "144301.067000", "144301.071000", "144301.074000", "144301.077000", "144301.080000", "144301.083000", "144301.086000", "144301.089000", "144301.092000", "144301.094000", "144301.097000", "144301.103000", "144301.106000", "144301.109000", "144301.112000", "144301.115000", "144301.118000", "144301.121000", "144301.124000", "144301.127000", "144301.130000", "144301.133000", "144301.136000", "144341.055000", "144341.058000", "144341.061000", "144341.064000", "144341.067000", "144341.070000", "144341.073000", "144341.076000", "144341.079000", "144341.082000", "144341.085000", "144341.088000", "144341.091000", "144341.094000", "144341.097000", "144341.100000", "144341.103000", "144341.106000", "144341.109000", "144341.112000", "144341.115000", "144341.118000", "144341.121000", "144341.124000", "144341.127000", "144341.130000", "144341.132000", "144421.055000", "144421.058000", "144421.061000", "144421.064000", "144421.067000", "144421.070000", "144421.073000", "144421.076000", "144421.079000", "144421.082000", "144421.085000", "144421.088000", "144421.091000", "144421.094000", "144421.097000", "144421.100000", "144421.103000", "144421.106000", "144421.109000", "144421.112000", "144421.115000", "144421.118000", "144421.121000", "144421.124000", "144421.127000", "144421.130000", "144421.133000", "144501.054000", "144501.057000", "144501.060000", "144501.063000", "144501.066000", "144501.069000", "144501.072000", "144501.075000", "144501.078000", "144501.081000", "144501.084000", "144501.087000", "144501.090000", "144501.093000", "144501.096000", "144501.099000", "144501.102000", "144501.105000", "144501.108000", "144501.111000", "144501.114000", "144501.117000", "144501.120000", "144501.122000", "144501.125000", "144501.128000", "144501.131000", "144541.055000", "144541.058000", "144541.061000", "144541.064000", "144541.067000", "144541.070000", "144541.073000", "144541.076000", "144541.079000", "144541.082000", "144541.085000", "144541.088000", "144541.091000", "144541.094000", "144541.097000", "144541.100000", "144541.103000", "144541.106000", "144541.109000", "144541.112000", "144541.115000", "144541.118000", "144541.121000", "144541.124000", "144541.126000", "144541.129000", "144541.132000", "144621.055000", "144621.068000", "144621.071000", "144621.074000", "144621.077000", "144621.080000", "144621.083000", "144621.086000", "144621.089000", "144621.092000", "144621.095000", "144621.098000", "144621.101000", "144621.104000", "144621.107000", "144621.110000", "144621.113000", "144621.116000", "144621.120000", "144621.123000", "144621.126000", "144621.129000", "144621.132000", "144621.135000", "144621.137000", "144621.140000", "144701.054000", "144701.057000", "144701.060000", "144701.063000", "144701.066000", "144701.069000", "144701.072000", "144701.075000", "144701.078000", "144701.090000", "144701.093000", "144701.096000", "144701.099000", "144701.102000", "144701.105000", "144701.108000", "144701.111000", "144701.114000", "144701.117000", "144701.120000", "144701.123000", "144701.126000", "144701.129000", "144701.132000", "144701.135000", "144701.138000", "144701.141000", "144741.055000", "144741.058000", "144741.061000", "144741.064000", "144741.067000", "144741.070000", "144741.073000", "144741.076000", "144741.079000", "144741.082000", "144741.085000", "144741.088000", "144741.091000", "144741.094000", "144741.097000", "144741.100000", "144741.103000", "144741.106000", "144741.109000", "144741.112000", "144741.115000", "144741.118000", "144741.120000", "144741.123000", "144741.126000", "144741.129000", "144741.132000", "144821.055000", "144821.058000", "144821.061000", "144821.071000", "144821.074000", "144821.077000", "144821.080000", "144821.083000", "144821.086000", "144821.089000", "144821.092000", "144821.095000", "144821.098000", "144821.101000", "144821.104000", "144821.107000", "144821.110000", "144821.113000", "144821.116000", "144821.119000", "144821.122000", "144821.125000", "144821.128000", "144821.131000", "144821.134000", "144821.137000", "144821.140000", "144901.055000", "144901.058000", "144901.061000", "144901.064000", "144901.067000", "144901.070000", "144901.073000", "144901.076000", "144901.079000", "144901.082000", "144901.085000", "144901.088000", "144901.091000", "144901.094000", "144901.097000", "144901.100000", "144901.103000", "144901.106000", "144901.109000", "144901.112000", "144901.115000", "144901.118000", "144901.121000", "144901.124000", "144901.127000", "144901.130000", "144901.133000", "144937.992000", "144937.995000", "144937.998000", "144938.002000", "144938.005000", "144938.008000", "144938.011000", "144938.014000", "144938.017000", "144938.020000", "144938.024000", "144938.028000", "144938.031000", "144938.034000", "144938.037000", "144938.040000", "144938.043000", "144938.046000", "144938.049000", "144938.052000", "144938.055000", "144938.058000", "144938.061000", "144938.064000", "144938.067000"],
