{
  "AcquisitionMatrixPE": 104,
  "AcquisitionNumber": 1,
  "AcquisitionTime": "14:03:52.325000",
  "BandwidthPerPixelPhaseEncode": 17.17,
  "BaseResolution": 104,
  "BodyPartExamined": "BRAIN",
  "CoilString": "HC1-7;NC1_2",
  "ConsistencyInfo": "N4_VE11C_LATEST_20160120",
  "ConversionSoftware": "dcm2niix",
  "ConversionSoftwareVersion": "v1.0.20190720  (JP2:OpenJPEG) GCC7.3.0",
  "DerivedVendorReportedEchoSpacing": 0.000560011,
  "DeviceSerialNumber": "167006",
  "DwellTime": 2.1e-06,
  "EchoTime": 0.037,
  "EchoTrainLength": 104,
  "EffectiveEchoSpacing": 0.000560011,
  "FlipAngle": 52,
  "ImageComments": "Unaliased_MB4_PE3_LB",
  "ImageOrientationPatientDICOM": [0.998815, -0.0478861, -0.00867942, 0.0415135, 0.931426, -0.361555],
  "ImageType": [
    "ORIGINAL",
    "PRIMARY",
    "M",
    "MB",
    "ND",
    "MOSAIC"
],
  "ImagingFrequency": 123.259,
  "InPlanePhaseEncodingDirectionDICOM": "COL",
  "InstitutionAddress": "Chemin_Queen-Mary_4565_Montreal_District_CA_H3W_1W5",
  "InstitutionName": "IUGM",
  "InstitutionalDepartmentName": "Department",
  "MRAcquisitionType": "2D",
  "MagneticFieldStrength": 3,
  "Manufacturer": "Siemens",
  "ManufacturersModelName": "Prisma_fit",
  "Modality": "MR",
  "MultibandAccelerationFactor": 4,
  "PartialFourier": 1,
  "PatientPosition": "HFS",
  "PercentPhaseFOV": 100,
  "PhaseEncodingDirection": "j",
  "PhaseEncodingSteps": 104,
  "PhaseResolution": 1,
  "PixelBandwidth": 2290,
  "ProcedureStepDescription": "video_friends",
  "ProtocolName": "func_task-s01e11b",
  "PulseSequenceDetails": "%CustomerSeq%_cmrr_mbep2d_bold",
  "ReceiveCoilActiveElements": "HC1-7;NC1,2",
  "ReceiveCoilName": "HeadNeck_64",
  "ReconMatrixPE": 104,
  "RepetitionTime": 1.49,
  "SAR": 0.0271719,
  "ScanOptions": "FS",
  "ScanningSequence": "EP",
  "SequenceName": "epfid2d1_104",
  "SequenceVariant": "SK_SS",
  "SeriesDescription": "func_task-s01e11b",
  "SeriesNumber": 14,
  "ShimSetting": [636, -7253, -8877, 601, 31, -267, -117, -6],
  "SliceThickness": 2,
  "SliceTiming": [0, 0.785, 0.1, 0.8825, 0.1975, 0.98, 0.295, 1.08, 0.3925, 1.1775, 0.49, 1.275, 0.59, 1.3725, 0.6875, 0, 0.785, 0.1, 0.8825, 0.1975, 0.98, 0.295, 1.08, 0.3925, 1.1775, 0.49, 1.275, 0.59, 1.3725, 0.6875, 0, 0.785, 0.1, 0.8825, 0.1975, 0.98, 0.295, 1.08, 0.3925, 1.1775, 0.49, 1.275, 0.59, 1.3725, 0.6875, 0, 0.785, 0.1, 0.8825, 0.1975, 0.98, 0.295, 1.08, 0.3925, 1.1775, 0.49, 1.275, 0.59, 1.3725, 0.6875],
  "SoftwareVersions": "syngo_MR_E11",
  "SpacingBetweenSlices": 2,
  "StationName": "MRC35049",
  "TaskName": "friends",
  "TotalReadoutTime": 0.0576811,
  "TxRefAmp": 221.844,
  "WipMemBlock": "bdd4a12a-12f0-4b8c-9733-f78fd8901eb5||Sequence: R016 ve11c/master r/e634e98; Dec 19 2017 11:00:25 by eja",
  "dcmmeta_affine": [
    [-1.99763023853302, 0.0830269604921341, -0.050795428454875946, 98.60503387451172],
    [0.09577224403619766, 1.8628520965576172, -0.7215328216552734, -77.10309600830078],
    [-0.017358848825097084, 0.7231102585792542, 1.8646206855773926, -80.33577728271484],
    [0.0, 0.0, 0.0, 1.0]
],
  "dcmmeta_reorient_transform": [
    [0.0, -1.0, 0.0, 103.0],
    [1.0, 0.0, 0.0, 0.0],
    [0.0, 0.0, 1.0, 0.0],
    [0.0, 0.0, 0.0, 1.0]
],
  "dcmmeta_shape": [104, 104, 60, 477],
  "dcmmeta_slice_dim": 2,
  "dcmmeta_version": 0.6,
  "global": {
    "const": {
      "AcquisitionMatrix": [104, 0, 0, 104],
      "AngioFlag": "N",
      "BitsAllocated": 16,
      "BitsStored": 16,
      "BodyPartExamined": "BRAIN",
      "Columns": 832,
      "EchoNumbers": 1,
      "EchoTime": 37.0,
      "EchoTrainLength": 104,
      "FlipAngle": 52.0,
      "HighBit": 15,
      "ImageOrientationPatient": [0.99881509153514, -0.0478861203397, -0.0086794239711, 0.04151348036032, 0.93142607018839, -0.3615551226601],
      "ImagePositionPatient": [-864.51600924149, -757.98775894981, 263.67532529233],
      "ImageType": [
        "ORIGINAL",
        "PRIMARY",
        "M",
        "MB",
        "ND",
        "MOSAIC"
],
      "ImagedNucleus": "1H",
      "ImagingFrequency": 123.259197,
      "InPlanePhaseEncodingDirection": "COL",
      "MRAcquisitionType": "2D",
      "MagneticFieldStrength": 3.0,
      "Manufacturer": "SIEMENS",
      "ManufacturerModelName": "Prisma_fit",
      "Modality": "MR",
      "NumberOfAverages": 1.0,
      "NumberOfPhaseEncodingSteps": 104,
      "PercentPhaseFieldOfView": 100.0,
      "PercentSampling": 100.0,
      "PerformedProcedureStepStartTime": "130812.820000",
      "PhotometricInterpretation": "MONOCHROME2",
      "PixelBandwidth": 2290.0,
      "PixelRepresentation": 0,
      "PixelSpacing": [2.0, 2.0],
      "ProtocolName": "func_task-s01e11b",
      "RepetitionTime": 1490.0,
      "Rows": 832,
      "SAR": 0.02717189276553,
      "SamplesPerPixel": 1,
      "ScanOptions": "FS",
      "ScanningSequence": "EP",
      "SequenceName": "epfid2d1_104",
      "SequenceVariant": [
        "SK",
        "SS"
],
      "SeriesDescription": "func_task-s01e11b",
      "SeriesNumber": 14,
      "SeriesTime": "140513.913000",
      "SliceLocation": -49.586014287111,
      "SliceThickness": 2.0,
      "SmallestImagePixelValue": 0,
      "SoftwareVersions": "syngo MR E11",
      "SpacingBetweenSlices": 1.9999999875947,
      "SpecificCharacterSet": "ISO_IR 100",
      "StudyID": "1",
      "StudyTime": "130812.669000",
      "TransmitCoilName": "Body",
      "VariableFlipAngleFlag": "N",
      "WindowCenterWidthExplanation": "Algo1",
      "dBdt": 0.0},
    "slices": {}
  },
  "time": {
    "samples": {
      "AcquisitionNumber": [1, 2, 3, 4, 5, 6, 7, 8, 9, 10, 11, 12, 13, 14, 15, 16, 17, 18, 19, 20, 21, 22, 23, 24, 25, 26, 27, 28, 29, 30, 31, 32, 33, 34, 35, 36, 37, 38, 39, 40, 41, 42, 43, 44, 45, 46, 47, 48, 49, 50, 51, 52, 53, 54, 55, 56, 57, 58, 59, 60, 61, 62, 63, 64, 65, 66, 67, 68, 69, 70, 71, 72, 73, 74, 75, 76, 77, 78, 79, 80, 81, 82, 83, 84, 85, 86, 87, 88, 89, 90, 91, 92, 93, 94, 95, 96, 97, 98, 99, 100, 101, 102, 103, 104, 105, 106, 107, 108, 109, 110, 111, 112, 113, 114, 115, 116, 117, 118, 119, 120, 121, 122, 123, 124, 125, 126, 127, 128, 129, 130, 131, 132, 133, 134, 135, 136, 137, 138, 139, 140, 141, 142, 143, 144, 145, 146, 147, 148, 149, 150, 151, 152, 153, 154, 155, 156, 157, 158, 159, 160, 161, 162, 163, 164, 165, 166, 167, 168, 169, 170, 171, 172, 173, 174, 175, 176, 177, 178, 179, 180, 181, 182, 183, 184, 185, 186, 187, 188, 189, 190, 191, 192, 193, 194, 195, 196, 197, 198, 199, 200, 201, 202, 203, 204, 205, 206, 207, 208, 209, 210, 211, 212, 213, 214, 215, 216, 217, 218, 219, 220, 221, 222, 223, 224, 225, 226, 227, 228, 229, 230, 231, 232, 233, 234, 235, 236, 237, 238, 239, 240, 241, 242, 243, 244, 245, 246, 247, 248, 249, 250, 251, 252, 253, 254, 255, 256, 257, 258, 259, 260, 261, 262, 263, 264, 265, 266, 267, 268, 269, 270, 271, 272, 273, 274, 275, 276, 277, 278, 279, 280, 281, 282, 283, 284, 285, 286, 287, 288, 289, 290, 291, 292, 293, 294, 295, 296, 297, 298, 299, 300, 301, 302, 303, 304, 305, 306, 307, 308, 309, 310, 311, 312, 313, 314, 315, 316, 317, 318, 319, 320, 321, 322, 323, 324, 325, 326, 327, 328, 329, 330, 331, 332, 333, 334, 335, 336, 337, 338, 339, 340, 341, 342, 343, 344, 345, 346, 347, 348, 349, 350, 351, 352, 353, 354, 355, 356, 357, 358, 359, 360, 361, 362, 363, 364, 365, 366, 367, 368, 369, 370, 371, 372, 373, 374, 375, 376, 377, 378, 379, 380, 381, 382, 383, 384, 385, 386, 387, 388, 389, 390, 391, 392, 393, 394, 395, 396, 397, 398, 399, 400, 401, 402, 403, 404, 405, 406, 407, 408, 409, 410, 411, 412, 413, 414, 415, 416, 417, 418, 419, 420, 421, 422, 423, 424, 425, 426, 427, 428, 429, 430, 431, 432, 433, 434, 435, 436, 437, 438, 439, 440, 441, 442, 443, 444, 445, 446, 447, 448, 449, 450, 451, 452, 453, 454, 455, 456, 457, 458, 459, 460, 461, 462, 463, 464, 465, 466, 467, 468, 469, 470, 471, 472, 473, 474, 475, 476, 477],
      "AcquisitionTime": ["140352.325000", "140353.815000", "140355.305000", "140356.795000", "140358.285000", "140359.775000", "140401.265000", "140402.755000", "140404.245000", "140405.735000", "140407.225000", "140408.715000", "140410.205000", "140411.695000", "140413.185000", "140414.675000", "140416.165000", "140417.655000", "140419.145000", "140420.635000", "140422.125000", "140423.615000", "140425.105000", "140426.595000", "140428.085000", "140429.575000", "140431.065000", "140432.555000", "140434.045000", "140435.535000", "140437.025000", "140438.515000", "140440.005000", "140441.495000", "140442.985000", "140444.475000", "140445.965000", "140447.455000", "140448.945000", "140450.435000", "140451.925000", "140453.415000", "140454.905000", "140456.395000", "140457.885000", "140459.375000", "140500.865000", "140502.355000", "140503.845000", "140505.335000", "140506.825000", "140508.315000", "140509.805000", "140511.295000", "140512.785000", "140514.275000", "140515.765000", "140517.255000", "140518.745000", "140520.235000", "140521.725000", "140523.215000", "140524.705000", "140526.195000", "140527.685000", "140529.175000", "140530.665000", "140532.155000", "140533.645000", "140535.135000", "140536.625000", "140538.115000", "140539.605000", "140541.095000", "140542.585000", "140544.075000", "140545.565000", "140547.055000", "140548.545000", "140550.035000", "140551.525000", "140553.015000", "140554.505000", "140555.995000", "140557.485000", "140558.975000", "140600.465000", "140601.955000", "140603.445000", "140604.935000", "140606.425000", "140607.915000", "140609.405000", "140610.895000", "140612.385000", "140613.875000", "140615.365000", "140616.855000", "140618.345000", "140619.835000", "140621.325000", "140622.815000", "140624.305000", "140625.795000", "140627.285000", "140628.775000", "140630.265000", "140631.755000", "140633.245000", "140634.735000", "140636.225000", "140637.715000", "140639.205000", "140640.695000", "140642.185000", "140643.675000", "140645.165000", "140646.655000", "140648.145000", "140649.635000", "140651.125000", "140652.615000", "140654.105000", "140655.595000", "140657.085000", "140658.575000", "140700.065000", "140701.555000", "140703.045000", "140704.535000", "140706.025000", "140707.515000", "140709.005000", "140710.495000", "140711.985000", "140713.475000", "140714.965000", "140716.455000", "140717.945000", "140719.435000", "140720.925000", "140722.415000", "140723.905000", "140725.395000", "140726.885000", "140728.375000", "140729.865000", "140731.355000", "140732.845000", "140734.335000", "140735.825000", "140737.315000", "140738.805000", "140740.295000", "140741.785000", "140743.275000", "140744.765000", "140746.255000", "140747.745000", "140749.235000", "140750.725000", "140752.215000", "140753.705000", "140755.195000", "140756.685000", "140758.175000", "140759.665000", "140801.155000", "140802.645000", "140804.135000", "140805.625000", "140807.115000", "140808.605000", "140810.095000", "140811.585000", "140813.075000", "140814.565000", "140816.055000", "140817.545000", "140819.035000", "140820.525000", "140822.015000", "140823.505000", "140824.995000", "140826.485000", "140827.975000", "140829.465000", "140830.955000", "140832.445000", "140833.935000", "140835.425000", "140836.915000", "140838.405000", "140839.895000", "140841.385000", "140842.875000", "140844.365000", "140845.855000", "140847.345000", "140848.835000", "140850.325000", "140851.815000", "140853.305000", "140854.795000", "140856.285000", "140857.775000", "140859.265000", "140900.755000", "140902.245000", "140903.735000", "140905.225000", "140906.715000", "140908.205000", "140909.695000", "140911.185000", "140912.675000", "140914.165000", "140915.655000", "140917.145000", "140918.635000", "140920.125000", "140921.615000", "140923.105000", "140924.595000", "140926.085000", "140927.575000", "140929.065000", "140930.555000", "140932.045000", "140933.535000", "140935.025000", "140936.515000", "140938.005000", "140939.495000", "140940.985000", "140942.475000", "140943.965000", "140945.455000", "140946.945000", "140948.435000", "140949.925000", "140951.415000", "140952.905000", "140954.395000", "140955.885000", "140957.375000", "140958.865000", "141000.355000", "141001.845000", "141003.335000", "141004.825000", "141006.315000", "141007.805000", "141009.295000", "141010.785000", "141012.275000", "141013.765000", "141015.255000", "141016.745000", "141018.235000", "141019.725000", "141021.215000", "141022.705000", "141024.195000", "141025.685000", "141027.175000", "141028.665000", "141030.155000", "141031.645000", "141033.135000", "141034.625000", "141036.115000", "141037.605000", "141039.095000", "141040.585000", "141042.075000", "141043.565000", "141045.055000", "141046.545000", "141048.035000", "141049.525000", "141051.015000", "141052.505000", "141053.995000", "141055.485000", "141056.975000", "141058.465000", "141059.955000", "141101.445000", "141102.935000", "141104.425000", "141105.915000", "141107.405000", "141108.895000", "141110.385000", "141111.875000", "141113.365000", "141114.855000", "141116.345000", "141117.835000", "141119.325000", "141120.815000", "141122.305000", "141123.795000", "141125.285000", "141126.775000", "141128.265000", "141129.755000", "141131.245000", "141132.735000", "141134.225000", "141135.715000", "141137.205000", "141138.695000", "141140.185000", "141141.675000", "141143.165000", "141144.655000", "141146.145000", "141147.635000", "141149.125000", "141150.615000", "141152.105000", "141153.595000", "141155.085000", "141156.575000", "141158.065000", "141159.555000", "141201.045000", "141202.535000", "141204.025000", "141205.515000", "141207.005000", "141208.495000", "141209.985000", "141211.475000", "141212.965000", "141214.455000", "141215.945000", "141217.435000", "141218.925000", "141220.415000", "141221.905000", "141223.395000", "141224.885000", "141226.375000", "141227.865000", "141229.355000", "141230.845000", "141232.335000", "141233.825000", "141235.315000", "141236.805000", "141238.295000", "141239.785000", "141241.275000", "141242.765000", "141244.255000", "141245.745000", "141247.235000", "141248.725000", "141250.215000", "141251.705000", "141253.195000", "141254.685000", "141256.175000", "141257.665000", "141259.155000", "141300.645000", "141302.135000", "141303.625000", "141305.115000", "141306.605000", "141308.095000", "141309.585000", "141311.075000", "141312.565000", "141314.055000", "141315.545000", "141317.035000", "141318.525000", "141320.015000", "141321.505000", "141322.995000", "141324.485000", "141325.975000", "141327.465000", "141328.955000", "141330.445000", "141331.935000", "141333.425000", "141334.915000", "141336.405000", "141337.895000", "141339.385000", "141340.875000", "141342.365000", "141343.855000", "141345.345000", "141346.835000", "141348.325000", "141349.815000", "141351.305000", "141352.795000", "141354.285000", "141355.775000", "141357.265000", "141358.755000", "141400.245000", "141401.735000", "141403.225000", "141404.715000", "141406.205000", "141407.695000", "141409.185000", "141410.675000", "141412.165000", "141413.655000", "141415.145000", "141416.635000", "141418.125000", "141419.615000", "141421.105000", "141422.595000", "141424.085000", "141425.575000", "141427.065000", "141428.555000", "141430.045000", "141431.535000", "141433.025000", "141434.515000", "141436.005000", "141437.495000", "141438.985000", "141440.475000", "141441.965000", "141443.455000", "141444.945000", "141446.435000", "141447.925000", "141449.415000", "141450.905000", "141452.395000", "141453.885000", "141455.375000", "141456.865000", "141458.355000", "141459.845000", "141501.335000", "141502.825000", "141504.315000", "141505.805000", "141507.295000", "141508.785000", "141510.275000", "141511.765000", "141513.255000", "141514.745000", "141516.235000", "141517.725000", "141519.215000", "141520.705000", "141522.195000", "141523.685000", "141525.175000", "141526.665000", "141528.155000", "141529.645000", "141531.135000", "141532.625000", "141534.115000", "141535.605000", "141537.095000", "141538.585000", "141540.075000", "141541.565000"],
      "ContentTime": ["140513.915000", "140513.919000", "140513.922000", "140513.925000", "140513.928000", "140513.931000", "140513.941000", "140513.944000", "140513.947000", "140513.950000", "140513.959000", "140513.962000", "140513.965000", "140513.968000", "140513.971000", "140513.974000", "140513.977000", "140513.980000", "140513.983000", "140513.986000", "140513.988000", "140513.991000", "140513.994000", "140513.997000", "140514.001000", "140514.014000", "140514.017000", "140533.886000", "140533.889000", "140533.892000", "140533.895000", "140533.898000", "140533.901000", "140533.904000", "140533.915000", "140533.918000", "140533.920000", "140533.923000", "140533.926000", "140533.929000", "140533.932000", "140533.935000", "140533.938000", "140533.941000", "140533.944000", "140533.947000", "140533.950000", "140553.886000", "140553.889000", "140553.892000", "140553.895000", "140553.911000", "140553.914000", "140553.917000", "140553.920000", "140553.923000", "140553.926000", "140553.929000", "140553.932000", "140553.935000", "140553.938000", "140553.941000", "140553.944000", "140553.947000", "140553.950000", "140553.953000", "140553.955000", "140613.886000", "140613.889000", "140613.892000", "140613.895000", "140613.898000", "140613.901000", "140613.904000", "140613.907000", "140613.909000", "140613.912000", "140613.915000", "140613.918000", "140613.921000", "140613.924000", "140613.927000", "140613.930000", "140613.940000", "140613.943000", "140613.946000", "140613.949000", "140613.952000", "140633.886000", "140633.914000", "140633.917000", "140633.920000", "140633.922000", "140633.934000", "140633.937000", "140633.940000", "140633.943000", "140633.946000", "140633.949000", "140633.952000", "140633.955000", "140633.966000", "140633.969000", "140633.972000", "140633.975000", "140633.978000", "140633.981000", "140633.984000", "140713.886000", "140713.889000", "140713.892000", "140713.895000", "140713.900000", "140713.903000", "140713.906000", "140713.909000", "140713.912000", "140713.915000", "140713.918000", "140713.921000", "140713.923000", "140713.926000", "140713.929000", "140713.932000", "140713.935000", "140713.938000", "140713.941000", "140713.944000", "140713.947000", "140713.950000", "140713.953000", "140713.956000", "140713.959000", "140713.962000", "140713.965000", "140753.886000", "140753.889000", "140753.892000", "140753.895000", "140753.898000", "140753.901000", "140753.904000", "140753.907000", "140753.910000", "140753.913000", "140753.916000", "140753.919000", "140753.921000", "140753.924000", "140753.927000", "140753.930000", "140753.933000", "140753.936000", "140753.939000", "140753.942000", "140753.945000", "140753.948000", "140753.951000", "140753.954000", "140753.957000", "140753.960000", "140753.963000", "140833.886000", "140833.889000", "140833.892000", "140833.895000", "140833.898000", "140833.901000", "140833.904000", "140833.907000", "140833.910000", "140833.913000", "140833.915000", "140833.918000", "140833.921000", "140833.924000", "140833.933000", "140833.936000", "140833.939000", "140833.942000", "140833.945000", "140833.948000", "140833.951000", "140833.954000", "140833.957000", "140833.960000", "140833.963000", "140833.966000", "140913.886000", "140913.889000", "140913.892000", "140913.895000", "140913.898000", "140913.901000", "140913.904000", "140913.907000", "140913.910000", "140913.913000", "140913.916000", "140913.919000", "140913.922000", "140913.925000", "140913.928000", "140913.931000", "140913.934000", "140913.937000", "140913.940000", "140913.943000", "140913.946000", "140913.949000", "140913.952000", "140913.955000", "140913.958000", "140913.961000", "140913.964000", "140953.886000", "140953.889000", "140953.892000", "140953.896000", "140953.899000", "140953.902000", "140953.906000", "140953.909000", "140953.912000", "140953.915000", "140953.918000", "140953.921000", "140953.924000", "140953.927000", "140953.930000", "140953.933000", "140953.936000", "140953.939000", "140953.942000", "140953.945000", "140953.948000", "140953.951000", "140953.954000", "140953.958000", "140953.961000", "140953.964000", "140953.967000", "141033.886000", "141033.962000", "141033.965000", "141033.967000", "141033.970000", "141033.973000", "141033.976000", "141033.979000", "141033.982000", "141033.985000", "141033.988000", "141033.991000", "141033.994000", "141033.997000", "141034.000000", "141034.003000", "141034.006000", "141034.009000", "141034.012000", "141034.015000", "141034.018000", "141034.021000", "141034.024000", "141034.027000", "141034.030000", "141034.033000", "141034.036000", "141113.886000", "141113.889000", "141113.892000", "141113.895000", "141113.898000", "141113.901000", "141113.904000", "141113.907000", "141113.910000", "141113.913000", "141113.916000", "141113.919000", "141113.922000", "141113.925000", "141113.928000", "141113.931000", "141113.934000", "141113.937000", "141113.940000", "141113.943000", "141113.946000", "141113.949000", "141113.952000", "141113.955000", "141113.958000", "141113.960000", "141113.963000", "141153.886000", "141153.889000", "141153.892000", "141153.895000", "141153.898000", "141153.901000", "141153.904000", "141153.907000", "141153.910000", "141153.913000", "141153.916000", "141153.919000", "141153.922000", "141153.925000", "141153.928000", "141153.931000", "141153.934000", "141153.937000", "141153.941000", "141153.944000", "141153.947000", "141153.950000", "141153.953000", "141153.956000", "141153.958000", "141153.961000", "141153.964000", "141233.886000", "141233.889000", "141233.892000", "141233.895000", "141233.898000", "141233.901000", "141233.904000", "141233.907000", "141233.910000", "141233.913000", "141233.916000", "141233.919000", "141233.922000", "141233.925000", "141233.928000", "141233.931000", "141233.934000", "141233.937000", "141233.940000", "141233.943000", "141233.946000", "141233.949000", "141233.952000", "141233.956000", "141233.959000", "141233.962000", "141313.886000", "141313.889000", "141313.892000", "141313.895000", "141313.898000", "141313.901000", "141313.904000", "141313.907000", "141313.910000", "141313.913000", "141313.916000", "141313.919000", "141313.922000", "141313.925000", "141313.928000", "141313.931000", "141313.934000", "141313.937000", "141313.940000", "141313.943000", "141313.946000", "141313.949000", "141313.952000", "141313.955000", "141313.958000", "141313.961000", "141313.964000", "141353.886000", "141353.889000", "141353.892000", "141353.895000", "141353.898000", "141353.901000", "141353.905000", "141353.908000", "141353.910000", "141353.913000", "141353.917000", "141353.920000", "141353.923000", "141353.926000", "141353.929000", "141353.931000", "141353.935000", "141353.937000", "141353.941000", "141353.944000", "141353.947000", "141353.950000", "141353.953000", "141353.956000", "141353.959000", "141353.962000", "141353.965000", "141433.886000", "141433.889000", "141433.892000", "141433.895000", "141433.898000", "141433.901000", "141433.904000", "141433.907000", "141433.910000", "141433.913000", "141433.916000", "141433.919000", "141433.922000", "141433.925000", "141433.928000", "141433.944000", "141433.947000", "141433.950000", "141433.953000", "141433.956000", "141433.959000", "141433.962000", "141433.965000", "141433.967000", "141433.970000", "141433.973000", "141433.976000", "141513.886000", "141513.927000", "141513.930000", "141513.933000", "141513.936000", "141513.939000", "141513.942000", "141513.945000", "141513.949000", "141513.952000", "141513.955000", "141513.958000", "141513.961000", "141513.964000", "141513.967000", "141513.970000", "141513.973000", "141513.976000", "141513.979000", "141513.982000", "141513.985000", "141513.988000", "141513.991000", "141513.994000", "141513.997000", "141514.001000", "141514.004000", "141543.242000", "141543.246000", "141543.249000", "141543.252000", "141543.255000", "141543.258000", "141543.261000", "141543.264000", "141543.267000", "141543.270000", "141543.273000", "141543.277000", "141543.279000", "141543.290000", "141543.293000", "141543.296000", "141543.299000", "141543.302000", "141543.305000", "141543.308000"],
