{
  "AcquisitionMatrixPE": 104,
  "AcquisitionNumber": 1,
  "AcquisitionTime": "14:51:19.995000",
  "BandwidthPerPixelPhaseEncode": 17.17,
  "BaseResolution": 104,
  "BodyPartExamined": "BRAIN",
  "CoilString": "HC1-7;NC1_2",
  "ConsistencyInfo": "N4_VE11C_LATEST_20160120",
  "ConversionSoftware": "dcm2niix",
  "ConversionSoftwareVersion": "v1.0.20190720  (JP2:OpenJPEG) GCC7.3.0",
  "DerivedVendorReportedEchoSpacing": 0.000560011,
  "DeviceSerialNumber": "167006",
  "DwellTime": 2.1e-06,
  "EchoTime": 0.037,
  "EchoTrainLength": 104,
  "EffectiveEchoSpacing": 0.000560011,
  "FlipAngle": 52,
  "ImageComments": "Unaliased_MB4_PE3_LB",
  "ImageOrientationPatientDICOM": [0.997457, -0.0617672, 0.0355483, 0.0706237, 0.92354, -0.376943],
  "ImageType": [
    "ORIGINAL",
    "PRIMARY",
    "M",
    "MB",
    "ND",
    "MOSAIC"
],
  "ImagingFrequency": 123.259,
  "InPlanePhaseEncodingDirectionDICOM": "COL",
  "InstitutionAddress": "Chemin_Queen-Mary_4565_Montreal_District_CA_H3W_1W5",
  "InstitutionName": "IUGM",
  "InstitutionalDepartmentName": "Department",
  "MRAcquisitionType": "2D",
  "MagneticFieldStrength": 3,
  "Manufacturer": "Siemens",
  "ManufacturersModelName": "Prisma_fit",
  "Modality": "MR",
  "MultibandAccelerationFactor": 4,
  "PartialFourier": 1,
  "PatientPosition": "HFS",
  "PercentPhaseFOV": 100,
  "PhaseEncodingDirection": "j",
  "PhaseEncodingSteps": 104,
  "PhaseResolution": 1,
  "PixelBandwidth": 2290,
  "ProcedureStepDescription": "video_friends",
  "ProtocolName": "func_task-s01e13a",
  "PulseSequenceDetails": "%CustomerSeq%_cmrr_mbep2d_bold",
  "ReceiveCoilActiveElements": "HC1-7;NC1,2",
  "ReceiveCoilName": "HeadNeck_64",
  "ReconMatrixPE": 104,
  "RepetitionTime": 1.49,
  "SAR": 0.0290755,
  "ScanOptions": "FS",
  "ScanningSequence": "EP",
  "SequenceName": "epfid2d1_104",
  "SequenceVariant": "SK_SS",
  "SeriesDescription": "func_task-s01e13a",
  "SeriesNumber": 26,
  "ShimSetting": [634, -7270, -8862, 601, 38, -253, -86, -29],
  "SliceThickness": 2,
  "SliceTiming": [0, 0.7825, 0.0975, 0.8825, 0.195, 0.98, 0.2925, 1.0775, 0.3925, 1.175, 0.49, 1.2725, 0.5875, 1.3725, 0.685, 0, 0.7825, 0.0975, 0.8825, 0.195, 0.98, 0.2925, 1.0775, 0.3925, 1.175, 0.49, 1.2725, 0.5875, 1.3725, 0.685, 0, 0.7825, 0.0975, 0.8825, 0.195, 0.98, 0.2925, 1.0775, 0.3925, 1.175, 0.49, 1.2725, 0.5875, 1.3725, 0.685, 0, 0.7825, 0.0975, 0.8825, 0.195, 0.98, 0.2925, 1.0775, 0.3925, 1.175, 0.49, 1.2725, 0.5875, 1.3725, 0.685],
  "SoftwareVersions": "syngo_MR_E11",
  "SpacingBetweenSlices": 2,
  "StationName": "MRC35049",
  "TaskName": "friends",
  "TotalReadoutTime": 0.0576811,
  "TxRefAmp": 227.089,
  "WipMemBlock": "8773ef5f-bd24-46a2-b660-b946ac42f930||Sequence: R016 ve11c/master r/e634e98; Dec 19 2017 11:00:25 by eja",
  "dcmmeta_affine": [
    [-1.9949146509170532, 0.1412474513053894, 0.01909506320953369, 94.76681518554688],
    [0.12353438138961792, 1.847079873085022, -0.7569907903671265, -76.59394836425781],
    [0.07109656184911728, 0.7538865804672241, 1.8511078357696533, -79.37273406982422],
    [0.0, 0.0, 0.0, 1.0]
],
  "dcmmeta_reorient_transform": [
    [0.0, -1.0, 0.0, 103.0],
    [1.0, 0.0, 0.0, 0.0],
    [0.0, 0.0, 1.0, 0.0],
    [0.0, 0.0, 0.0, 1.0]
],
  "dcmmeta_shape": [104, 104, 60, 468],
  "dcmmeta_slice_dim": 2,
  "dcmmeta_version": 0.6,
  "global": {
    "const": {
      "AcquisitionMatrix": [104, 0, 0, 104],
      "AngioFlag": "N",
      "BitsAllocated": 16,
      "BitsStored": 16,
      "BodyPartExamined": "BRAIN",
      "Columns": 832,
      "EchoNumbers": 1,
      "EchoTime": 37.0,
      "EchoTrainLength": 104,
      "FlipAngle": 52.0,
      "HighBit": 15,
      "ImageOrientationPatient": [0.99745733438108, -0.0617671896754, 0.03554828222269, 0.07062372638689, 0.92353995566068, -0.3769432842876],
      "ImagePositionPatient": [-886.87831358881, -741.02585751372, 246.81314080245],
      "ImageType": [
        "ORIGINAL",
        "PRIMARY",
        "M",
        "MB",
        "ND",
        "MOSAIC"
],
      "ImagedNucleus": "1H",
      "ImagingFrequency": 123.259194,
      "InPlanePhaseEncodingDirection": "COL",
      "MRAcquisitionType": "2D",
      "MagneticFieldStrength": 3.0,
      "Manufacturer": "SIEMENS",
      "ManufacturerModelName": "Prisma_fit",
      "Modality": "MR",
      "NumberOfAverages": 1.0,
      "NumberOfPhaseEncodingSteps": 104,
      "PercentPhaseFieldOfView": 100.0,
      "PercentSampling": 100.0,
      "PerformedProcedureStepStartTime": "130812.820000",
      "PhotometricInterpretation": "MONOCHROME2",
      "PixelBandwidth": 2290.0,
      "PixelRepresentation": 0,
      "PixelSpacing": [2.0, 2.0],
      "ProtocolName": "func_task-s01e13a",
      "RepetitionTime": 1490.0,
      "Rows": 832,
      "SAR": 0.02907548757971,
      "SamplesPerPixel": 1,
      "ScanOptions": "FS",
      "ScanningSequence": "EP",
      "SequenceName": "epfid2d1_104",
      "SequenceVariant": [
        "SK",
        "SS"
],
      "SeriesDescription": "func_task-s01e13a",
      "SeriesNumber": 26,
      "SeriesTime": "145233.931000",
      "SliceLocation": -43.568503597739,
      "SliceThickness": 2.0,
      "SmallestImagePixelValue": 0,
      "SoftwareVersions": "syngo MR E11",
      "SpacingBetweenSlices": 1.9999999651284,
      "SpecificCharacterSet": "ISO_IR 100",
      "StudyID": "1",
      "StudyTime": "130812.669000",
      "TransmitCoilName": "Body",
      "VariableFlipAngleFlag": "N",
      "WindowCenterWidthExplanation": "Algo1",
      "dBdt": 0.0},
    "slices": {}
  },
  "time": {
    "samples": {
      "AcquisitionNumber": [1, 2, 3, 4, 5, 6, 7, 8, 9, 10, 11, 12, 13, 14, 15, 16, 17, 18, 19, 20, 21, 22, 23, 24, 25, 26, 27, 28, 29, 30, 31, 32, 33, 34, 35, 36, 37, 38, 39, 40, 41, 42, 43, 44, 45, 46, 47, 48, 49, 50, 51, 52, 53, 54, 55, 56, 57, 58, 59, 60, 61, 62, 63, 64, 65, 66, 67, 68, 69, 70, 71, 72, 73, 74, 75, 76, 77, 78, 79, 80, 81, 82, 83, 84, 85, 86, 87, 88, 89, 90, 91, 92, 93, 94, 95, 96, 97, 98, 99, 100, 101, 102, 103, 104, 105, 106, 107, 108, 109, 110, 111, 112, 113, 114, 115, 116, 117, 118, 119, 120, 121, 122, 123, 124, 125, 126, 127, 128, 129, 130, 131, 132, 133, 134, 135, 136, 137, 138, 139, 140, 141, 142, 143, 144, 145, 146, 147, 148, 149, 150, 151, 152, 153, 154, 155, 156, 157, 158, 159, 160, 161, 162, 163, 164, 165, 166, 167, 168, 169, 170, 171, 172, 173, 174, 175, 176, 177, 178, 179, 180, 181, 182, 183, 184, 185, 186, 187, 188, 189, 190, 191, 192, 193, 194, 195, 196, 197, 198, 199, 200, 201, 202, 203, 204, 205, 206, 207, 208, 209, 210, 211, 212, 213, 214, 215, 216, 217, 218, 219, 220, 221, 222, 223, 224, 225, 226, 227, 228, 229, 230, 231, 232, 233, 234, 235, 236, 237, 238, 239, 240, 241, 242, 243, 244, 245, 246, 247, 248, 249, 250, 251, 252, 253, 254, 255, 256, 257, 258, 259, 260, 261, 262, 263, 264, 265, 266, 267, 268, 269, 270, 271, 272, 273, 274, 275, 276, 277, 278, 279, 280, 281, 282, 283, 284, 285, 286, 287, 288, 289, 290, 291, 292, 293, 294, 295, 296, 297, 298, 299, 300, 301, 302, 303, 304, 305, 306, 307, 308, 309, 310, 311, 312, 313, 314, 315, 316, 317, 318, 319, 320, 321, 322, 323, 324, 325, 326, 327, 328, 329, 330, 331, 332, 333, 334, 335, 336, 337, 338, 339, 340, 341, 342, 343, 344, 345, 346, 347, 348, 349, 350, 351, 352, 353, 354, 355, 356, 357, 358, 359, 360, 361, 362, 363, 364, 365, 366, 367, 368, 369, 370, 371, 372, 373, 374, 375, 376, 377, 378, 379, 380, 381, 382, 383, 384, 385, 386, 387, 388, 389, 390, 391, 392, 393, 394, 395, 396, 397, 398, 399, 400, 401, 402, 403, 404, 405, 406, 407, 408, 409, 410, 411, 412, 413, 414, 415, 416, 417, 418, 419, 420, 421, 422, 423, 424, 425, 426, 427, 428, 429, 430, 431, 432, 433, 434, 435, 436, 437, 438, 439, 440, 441, 442, 443, 444, 445, 446, 447, 448, 449, 450, 451, 452, 453, 454, 455, 456, 457, 458, 459, 460, 461, 462, 463, 464, 465, 466, 467, 468],
      "AcquisitionTime": ["145119.995000", "145121.485000", "145122.975000", "145124.465000", "145125.955000", "145127.445000", "145128.935000", "145130.425000", "145131.915000", "145133.405000", "145134.895000", "145136.385000", "145137.875000", "145139.365000", "145140.855000", "145142.345000", "145143.835000", "145145.325000", "145146.815000", "145148.305000", "145149.795000", "145151.285000", "145152.775000", "145154.265000", "145155.755000", "145157.245000", "145158.735000", "145200.225000", "145201.715000", "145203.205000", "145204.695000", "145206.185000", "145207.675000", "145209.165000", "145210.655000", "145212.145000", "145213.635000", "145215.125000", "145216.615000", "145218.105000", "145219.595000", "145221.085000", "145222.575000", "145224.065000", "145225.555000", "145227.045000", "145228.535000", "145230.025000", "145231.515000", "145233.005000", "145234.495000", "145235.985000", "145237.475000", "145238.965000", "145240.455000", "145241.945000", "145243.435000", "145244.925000", "145246.415000", "145247.905000", "145249.395000", "145250.885000", "145252.375000", "145253.865000", "145255.355000", "145256.845000", "145258.335000", "145259.825000", "145301.315000", "145302.805000", "145304.295000", "145305.785000", "145307.275000", "145308.765000", "145310.255000", "145311.745000", "145313.235000", "145314.725000", "145316.215000", "145317.705000", "145319.195000", "145320.685000", "145322.175000", "145323.665000", "145325.155000", "145326.645000", "145328.135000", "145329.625000", "145331.115000", "145332.605000", "145334.095000", "145335.585000", "145337.075000", "145338.565000", "145340.055000", "145341.545000", "145343.035000", "145344.525000", "145346.015000", "145347.505000", "145348.995000", "145350.485000", "145351.975000", "145353.465000", "145354.955000", "145356.445000", "145357.935000", "145359.425000", "145400.915000", "145402.405000", "145403.895000", "145405.385000", "145406.875000", "145408.365000", "145409.855000", "145411.345000", "145412.835000", "145414.325000", "145415.815000", "145417.305000", "145418.795000", "145420.285000", "145421.775000", "145423.265000", "145424.755000", "145426.245000", "145427.735000", "145429.225000", "145430.715000", "145432.205000", "145433.695000", "145435.185000", "145436.675000", "145438.165000", "145439.655000", "145441.145000", "145442.635000", "145444.125000", "145445.615000", "145447.105000", "145448.595000", "145450.085000", "145451.575000", "145453.065000", "145454.555000", "145456.045000", "145457.535000", "145459.025000", "145500.515000", "145502.005000", "145503.495000", "145504.985000", "145506.475000", "145507.965000", "145509.455000", "145510.945000", "145512.435000", "145513.925000", "145515.415000", "145516.905000", "145518.395000", "145519.885000", "145521.375000", "145522.865000", "145524.355000", "145525.845000", "145527.335000", "145528.825000", "145530.315000", "145531.805000", "145533.295000", "145534.785000", "145536.275000", "145537.765000", "145539.255000", "145540.745000", "145542.235000", "145543.725000", "145545.215000", "145546.705000", "145548.195000", "145549.685000", "145551.175000", "145552.665000", "145554.155000", "145555.645000", "145557.135000", "145558.625000", "145600.115000", "145601.605000", "145603.095000", "145604.585000", "145606.075000", "145607.565000", "145609.055000", "145610.545000", "145612.035000", "145613.525000", "145615.015000", "145616.505000", "145617.995000", "145619.485000", "145620.975000", "145622.465000", "145623.955000", "145625.445000", "145626.935000", "145628.425000", "145629.915000", "145631.405000", "145632.895000", "145634.385000", "145635.875000", "145637.365000", "145638.855000", "145640.345000", "145641.835000", "145643.325000", "145644.815000", "145646.305000", "145647.795000", "145649.285000", "145650.775000", "145652.265000", "145653.755000", "145655.245000", "145656.735000", "145658.225000", "145659.715000", "145701.205000", "145702.695000", "145704.185000", "145705.675000", "145707.165000", "145708.655000", "145710.145000", "145711.635000", "145713.125000", "145714.615000", "145716.105000", "145717.595000", "145719.085000", "145720.575000", "145722.065000", "145723.555000", "145725.045000", "145726.535000", "145728.025000", "145729.515000", "145731.005000", "145732.495000", "145733.985000", "145735.475000", "145736.965000", "145738.455000", "145739.945000", "145741.435000", "145742.925000", "145744.415000", "145745.905000", "145747.395000", "145748.885000", "145750.375000", "145751.865000", "145753.355000", "145754.845000", "145756.335000", "145757.825000", "145759.315000", "145800.805000", "145802.295000", "145803.785000", "145805.275000", "145806.765000", "145808.255000", "145809.745000", "145811.235000", "145812.725000", "145814.215000", "145815.705000", "145817.195000", "145818.685000", "145820.175000", "145821.665000", "145823.155000", "145824.645000", "145826.135000", "145827.625000", "145829.115000", "145830.605000", "145832.095000", "145833.585000", "145835.075000", "145836.565000", "145838.055000", "145839.545000", "145841.035000", "145842.525000", "145844.015000", "145845.505000", "145846.995000", "145848.485000", "145849.975000", "145851.465000", "145852.955000", "145854.445000", "145855.935000", "145857.425000", "145858.915000", "145900.405000", "145901.895000", "145903.385000", "145904.875000", "145906.365000", "145907.855000", "145909.345000", "145910.835000", "145912.325000", "145913.815000", "145915.305000", "145916.795000", "145918.285000", "145919.775000", "145921.265000", "145922.755000", "145924.245000", "145925.735000", "145927.225000", "145928.715000", "145930.205000", "145931.695000", "145933.185000", "145934.675000", "145936.165000", "145937.655000", "145939.145000", "145940.635000", "145942.125000", "145943.615000", "145945.105000", "145946.595000", "145948.085000", "145949.575000", "145951.065000", "145952.555000", "145954.045000", "145955.535000", "145957.025000", "145958.515000", "150000.005000", "150001.495000", "150002.985000", "150004.475000", "150005.965000", "150007.455000", "150008.945000", "150010.435000", "150011.925000", "150013.415000", "150014.905000", "150016.395000", "150017.885000", "150019.375000", "150020.865000", "150022.355000", "150023.845000", "150025.335000", "150026.825000", "150028.315000", "150029.805000", "150031.295000", "150032.785000", "150034.275000", "150035.765000", "150037.255000", "150038.745000", "150040.235000", "150041.725000", "150043.215000", "150044.705000", "150046.195000", "150047.685000", "150049.175000", "150050.665000", "150052.155000", "150053.645000", "150055.135000", "150056.625000", "150058.115000", "150059.605000", "150101.095000", "150102.585000", "150104.075000", "150105.565000", "150107.055000", "150108.545000", "150110.035000", "150111.525000", "150113.015000", "150114.505000", "150115.995000", "150117.485000", "150118.975000", "150120.465000", "150121.955000", "150123.445000", "150124.935000", "150126.425000", "150127.915000", "150129.405000", "150130.895000", "150132.385000", "150133.875000", "150135.365000", "150136.855000", "150138.345000", "150139.835000", "150141.325000", "150142.815000", "150144.305000", "150145.795000", "150147.285000", "150148.775000", "150150.265000", "150151.755000", "150153.245000", "150154.735000", "150156.225000", "150157.715000", "150159.205000", "150200.695000", "150202.185000", "150203.675000", "150205.165000", "150206.655000", "150208.145000", "150209.635000", "150211.125000", "150212.615000", "150214.105000", "150215.595000", "150217.085000", "150218.575000", "150220.065000", "150221.555000", "150223.045000", "150224.535000", "150226.025000", "150227.515000", "150229.005000", "150230.495000", "150231.985000", "150233.475000", "150234.965000", "150236.455000", "150237.945000", "150239.435000", "150240.925000", "150242.415000", "150243.905000", "150245.395000", "150246.885000", "150248.375000", "150249.865000", "150251.355000", "150252.845000", "150254.335000", "150255.825000"],
      "ContentTime": ["145233.934000", "145233.937000", "145233.940000", "145233.943000", "145233.946000", "145233.949000", "145233.952000", "145233.955000", "145233.958000", "145233.961000", "145233.963000", "145233.985000", "145233.988000", "145233.991000", "145233.994000", "145233.996000", "145234.000000", "145234.003000", "145234.006000", "145234.009000", "145253.886000", "145253.889000", "145253.892000", "145253.895000", "145253.898000", "145253.910000", "145253.913000", "145253.916000", "145253.919000", "145253.922000", "145253.925000", "145253.928000", "145253.931000", "145253.934000", "145253.937000", "145253.939000", "145253.942000", "145253.945000", "145253.948000", "145253.951000", "145313.886000", "145313.889000", "145313.892000", "145313.895000", "145313.898000", "145313.901000", "145313.904000", "145313.907000", "145313.910000", "145313.913000", "145313.916000", "145313.919000", "145313.922000", "145313.925000", "145313.928000", "145313.931000", "145313.935000", "145313.938000", "145313.941000", "145313.944000", "145333.886000", "145333.889000", "145333.899000", "145333.902000", "145333.904000", "145333.907000", "145333.910000", "145333.913000", "145333.916000", "145333.919000", "145333.922000", "145333.925000", "145333.933000", "145333.936000", "145333.939000", "145333.941000", "145333.944000", "145333.947000", "145333.950000", "145333.953000", "145333.956000", "145353.886000", "145353.889000", "145353.892000", "145353.895000", "145353.898000", "145353.901000", "145353.904000", "145353.907000", "145353.909000", "145353.912000", "145353.915000", "145353.918000", "145353.921000", "145353.924000", "145353.927000", "145353.932000", "145353.935000", "145353.938000", "145353.941000", "145353.944000", "145433.886000", "145433.889000", "145433.892000", "145433.895000", "145433.898000", "145433.901000", "145433.904000", "145433.907000", "145433.910000", "145433.913000", "145433.915000", "145433.918000", "145433.921000", "145433.924000", "145433.927000", "145433.930000", "145433.933000", "145433.936000", "145433.939000", "145433.942000", "145433.945000", "145433.948000", "145433.951000", "145433.954000", "145433.957000", "145433.959000", "145433.962000", "145433.970000", "145513.886000", "145513.889000", "145513.892000", "145513.895000", "145513.898000", "145513.901000", "145513.904000", "145513.907000", "145513.910000", "145513.913000", "145513.916000", "145513.919000", "145513.922000", "145513.937000", "145513.940000", "145513.943000", "145513.945000", "145513.948000", "145513.951000", "145513.954000", "145513.957000", "145513.960000", "145513.963000", "145513.966000", "145513.969000", "145513.972000", "145513.975000", "145553.886000", "145553.969000", "145553.971000", "145553.974000", "145553.977000", "145553.980000", "145553.983000", "145553.986000", "145553.989000", "145553.992000", "145553.995000", "145553.998000", "145554.002000", "145554.005000", "145554.008000", "145554.011000", "145554.014000", "145554.017000", "145554.020000", "145554.023000", "145554.026000", "145554.029000", "145554.032000", "145554.035000", "145554.038000", "145554.041000", "145554.044000", "145633.886000", "145633.889000", "145633.892000", "145633.895000", "145633.898000", "145633.901000", "145633.904000", "145633.907000", "145633.910000", "145633.913000", "145633.916000", "145633.919000", "145633.922000", "145633.925000", "145633.928000", "145633.931000", "145633.934000", "145633.937000", "145633.940000", "145633.943000", "145633.946000", "145633.949000", "145633.952000", "145633.955000", "145633.958000", "145633.961000", "145633.964000", "145713.886000", "145713.889000", "145713.892000", "145713.895000", "145713.898000", "145713.901000", "145713.904000", "145713.907000", "145713.910000", "145713.913000", "145713.915000", "145713.918000", "145713.921000", "145713.924000", "145713.927000", "145713.930000", "145713.933000", "145713.936000", "145713.940000", "145713.943000", "145713.946000", "145713.949000", "145713.952000", "145713.955000", "145713.958000", "145713.961000", "145753.886000", "145753.889000", "145753.892000", "145753.895000", "145753.898000", "145753.901000", "145753.904000", "145753.907000", "145753.909000", "145753.912000", "145753.915000", "145753.918000", "145753.921000", "145753.924000", "145753.927000", "145753.930000", "145753.933000", "145753.942000", "145753.945000", "145753.948000", "145753.951000", "145753.953000", "145753.956000", "145753.959000", "145753.962000", "145753.965000", "145753.968000", "145833.886000", "145833.889000", "145833.892000", "145833.895000", "145833.898000", "145833.901000", "145833.904000", "145833.907000", "145833.910000", "145833.912000", "145833.915000", "145833.918000", "145833.921000", "145833.924000", "145833.927000", "145833.930000", "145833.933000", "145833.936000", "145833.939000", "145833.942000", "145833.945000", "145833.948000", "145833.951000", "145833.954000", "145833.957000", "145833.960000", "145833.963000", "145913.886000", "145913.889000", "145913.892000", "145913.895000", "145913.898000", "145913.901000", "145913.904000", "145913.907000", "145913.910000", "145913.913000", "145913.916000", "145913.919000", "145913.922000", "145913.925000", "145913.928000", "145913.931000", "145913.934000", "145913.937000", "145913.940000", "145913.942000", "145913.945000", "145913.948000", "145913.951000", "145913.954000", "145913.957000", "145913.960000", "145913.963000", "145953.886000", "145953.889000", "145953.892000", "145953.903000", "145953.906000", "145953.908000", "145953.911000", "145953.914000", "145953.917000", "145953.930000", "145953.933000", "145953.936000", "145953.939000", "145953.942000", "145953.945000", "145953.948000", "145953.950000", "145953.953000", "145953.956000", "145953.959000", "145953.962000", "145953.965000", "145953.968000", "145953.971000", "145953.974000", "145953.977000", "145953.980000", "150033.886000", "150033.889000", "150033.892000", "150033.895000", "150033.898000", "150033.901000", "150033.904000", "150033.907000", "150033.910000", "150033.913000", "150033.916000", "150033.919000", "150033.922000", "150033.925000", "150033.928000", "150033.930000", "150033.933000", "150033.936000", "150033.939000", "150033.942000", "150033.945000", "150033.948000", "150033.951000", "150033.958000", "150033.961000", "150033.964000", "150033.967000", "150113.886000", "150113.889000", "150113.892000", "150113.895000", "150113.898000", "150113.901000", "150113.904000", "150113.907000", "150113.910000", "150113.913000", "150113.916000", "150113.919000", "150113.922000", "150113.925000", "150113.928000", "150113.931000", "150113.934000", "150113.936000", "150113.939000", "150113.942000", "150113.945000", "150113.949000", "150113.951000", "150113.954000", "150113.957000", "150113.961000", "150153.886000", "150153.889000", "150153.892000", "150153.895000", "150153.898000", "150153.901000", "150153.904000", "150153.907000", "150153.910000", "150153.913000", "150153.916000", "150153.919000", "150153.922000", "150153.924000", "150153.927000", "150153.930000", "150153.933000", "150153.936000", "150153.939000", "150153.942000", "150153.945000", "150153.948000", "150153.951000", "150153.954000", "150153.957000", "150153.960000", "150153.963000", "150233.886000", "150233.889000", "150233.892000", "150233.895000", "150233.898000", "150233.901000", "150233.904000", "150233.907000", "150233.910000", "150233.913000", "150233.916000", "150233.919000", "150233.922000", "150233.925000", "150233.928000", "150233.931000", "150233.934000", "150233.936000", "150233.939000", "150233.942000", "150233.945000", "150233.948000", "150233.951000", "150233.954000", "150233.957000", "150233.960000", "150233.963000", "150258.303000", "150258.306000", "150258.309000", "150258.312000", "150258.315000", "150258.318000", "150258.321000", "150258.324000", "150258.327000", "150258.330000", "150258.341000", "150258.344000", "150258.347000", "150258.350000", "150258.352000", "150258.355000", "150258.358000"],
