{
  "AcquisitionMatrixPE": 104,
  "AcquisitionNumber": 1,
  "AcquisitionTime": "16:22:5.160000",
  "BandwidthPerPixelPhaseEncode": 17.17,
  "BaseResolution": 104,
  "BodyPartExamined": "BRAIN",
  "CoilCombinationMethod": "Sum of Squares",
  "ConsistencyInfo": "N4_VE11C_LATEST_20160120",
  "ConversionSoftware": "dcm2niix",
  "ConversionSoftwareVersion": "v1.0.20230411",
  "DerivedVendorReportedEchoSpacing": 0.000560011,
  "DeviceSerialNumber": "167006",
  "DwellTime": 2.1e-06,
  "EchoTime": 0.037,
  "EchoTrainLength": 104,
  "EffectiveEchoSpacing": 0.000560011,
  "FlipAngle": 52,
  "HeudiconvVersion": "0.5.3.post861+ge7d3c7f",
  "ImageComments": "Unaliased MB4/PE3/LB",
  "ImageOrientationPatientDICOM": [0.999686, 0.0146301, -0.0203484, -0.0193695, 0.96625, -0.256878],
  "ImageOrientationText": "Tra>Cor(-14.9)>Sag(-0.9)",
  "ImageType": [
    "ORIGINAL",
    "PRIMARY",
    "M",
    "MB",
    "ND",
    "MOSAIC"
],
  "ImagingFrequency": 123.249765,
  "InPlanePhaseEncodingDirectionDICOM": "COL",
  "InstitutionAddress": "Chemin Queen-Mary 4565,Montreal,District,CA,H3W 1W5",
  "InstitutionName": "IUGM",
  "InstitutionalDepartmentName": "Department",
  "MRAcquisitionType": "2D",
  "MagneticFieldStrength": 3,
  "Manufacturer": "Siemens",
  "ManufacturersModelName": "Prisma_fit",
  "MatrixCoilMode": "SENSE",
  "Modality": "MR",
  "MultibandAccelerationFactor": 4,
  "NonlinearGradientCorrection": false,
  "PartialFourier": 1,
  "PatientPosition": "HFS",
  "PercentPhaseFOV": 100,
  "PercentSampling": 100,
  "PhaseEncodingDirection": "j",
  "PhaseEncodingSteps": 104,
  "PhaseResolution": 1,
  "PixelBandwidth": 2290,
  "ProcedureStepDescription": "video^friends",
  "ProtocolName": "func_task-friends-s07e08b",
  "PulseSequenceDetails": "%CustomerSeq%\\cmrr_mbep2d_bold",
  "ReceiveCoilActiveElements": "HC1-7;NC1,2",
  "ReceiveCoilName": "HeadNeck_64",
  "ReconMatrixPE": 104,
  "RepetitionTime": 1.49,
  "SAR": 0.0649226,
  "ScanOptions": "FS",
  "ScanningSequence": "EP",
  "SequenceName": "epfid2d1_104",
  "SequenceVariant": "SK\\SS",
  "SeriesDescription": "func_task-friends-s07e08b",
  "SeriesNumber": 12,
  "ShimSetting": [598, -7238, -8720, 701, 46, 10, 22, 35],
  "SliceThickness": 2,
  "SliceTiming": [0, 0.785, 0.1, 0.8825, 0.1975, 0.98, 0.295, 1.08, 0.3925, 1.1775, 0.49, 1.275, 0.59, 1.3725, 0.6875, 0, 0.785, 0.1, 0.8825, 0.1975, 0.98, 0.295, 1.08, 0.3925, 1.1775, 0.49, 1.275, 0.59, 1.3725, 0.6875, 0, 0.785, 0.1, 0.8825, 0.1975, 0.98, 0.295, 1.08, 0.3925, 1.1775, 0.49, 1.275, 0.59, 1.3725, 0.6875, 0, 0.785, 0.1, 0.8825, 0.1975, 0.98, 0.295, 1.08, 0.3925, 1.1775, 0.49, 1.275, 0.59, 1.3725, 0.6875],
  "SoftwareVersions": "syngo MR E11",
  "SpacingBetweenSlices": 2,
  "StationName": "MRC35049",
  "TaskName": "s07e08b",
  "TotalReadoutTime": 0.0576811,
  "TxRefAmp": 234.069,
  "WipMemBlock": "6dcc64ce-312a-40d2-b69e-a9a7a55145b4||Sequence: R017 ve11c/master r/75a17815+; Jun 28 2022 16:32:11 by eja",
  "dcmmeta_affine": [
    [-1.9993717670440674, -0.03873905539512634, -0.031806979328393936, 108.28133392333984],
    [-0.029260288923978806, 1.9324991703033447, -0.5143837928771973, -74.36160278320312],
    [-0.040696851909160614, 0.5137568712234497, 1.9324589967727661, -39.39290237426758],
    [0.0, 0.0, 0.0, 1.0]
],
  "dcmmeta_reorient_transform": [
    [0.0, -1.0, 0.0, 103.0],
    [1.0, 0.0, 0.0, 0.0],
    [0.0, 0.0, 1.0, 0.0],
    [0.0, 0.0, 0.0, 1.0]
],
  "dcmmeta_shape": [104, 104, 60, 509],
  "dcmmeta_slice_dim": 2,
  "dcmmeta_version": 0.6,
  "global": {
    "const": {
      "AcquisitionMatrix": [104, 0, 0, 104],
      "AngioFlag": "N",
      "BitsAllocated": 16,
      "BitsStored": 16,
      "BodyPartExamined": "BRAIN",
      "Columns": 832,
      "EchoNumbers": 1,
      "EchoTime": 37.0,
      "EchoTrainLength": 104,
      "FlipAngle": 52.0,
      "HighBit": 15,
      "ImageOrientationPatient": [0.99968590088562, 0.01463014447405, -0.0203484260612, -0.0193695269783, 0.96624960197034, -0.2568784306181],
      "ImagePositionPatient": [-817.96152951793, -838.76627117003, 215.34520577097],
      "ImageType": [
        "ORIGINAL",
        "PRIMARY",
        "M",
        "MB",
        "ND",
        "MOSAIC"
],
      "ImagedNucleus": "1H",
      "ImagingFrequency": 123.249765,
      "InPlanePhaseEncodingDirection": "COL",
      "MRAcquisitionType": "2D",
      "MagneticFieldStrength": 3.0,
      "Manufacturer": "SIEMENS",
      "ManufacturerModelName": "Prisma_fit",
      "Modality": "MR",
      "NumberOfAverages": 1.0,
      "NumberOfPhaseEncodingSteps": 104,
      "PercentPhaseFieldOfView": 100.0,
      "PercentSampling": 100.0,
      "PerformedProcedureStepStartTime": "154117.366000",
      "PhotometricInterpretation": "MONOCHROME2",
      "PixelBandwidth": 2290.0,
      "PixelRepresentation": 0,
      "PixelSpacing": [2.0, 2.0],
      "ProtocolName": "func_task-friends-s07e08b",
      "RepetitionTime": 1490.0,
      "Rows": 832,
      "SAR": 0.06492263758796,
      "SamplesPerPixel": 1,
      "ScanOptions": "FS",
      "ScanningSequence": "EP",
      "SequenceName": "epfid2d1_104",
      "SequenceVariant": [
        "SK",
        "SS"
],
      "SeriesDescription": "func_task-friends-s07e08b",
      "SeriesNumber": 12,
      "SeriesTime": "162255.307000",
      "SliceLocation": -20.659434353477,
      "SliceThickness": 2.0,
      "SmallestImagePixelValue": 0,
      "SoftwareVersions": "syngo MR E11",
      "SpacingBetweenSlices": 2.0000000461606,
      "SpecificCharacterSet": "ISO_IR 100",
      "StudyID": "1",
      "StudyTime": "154117.282000",
      "TransmitCoilName": "Body",
      "VariableFlipAngleFlag": "N",
      "WindowCenterWidthExplanation": "Algo1",
      "dBdt": 0.0},
    "slices": {}
  },
  "time": {
    "samples": {
      "AcquisitionNumber": [1, 2, 3, 4, 5, 6, 7, 8, 9, 10, 11, 12, 13, 14, 15, 16, 17, 18, 19, 20, 21, 22, 23, 24, 25, 26, 27, 28, 29, 30, 31, 32, 33, 34, 35, 36, 37, 38, 39, 40, 41, 42, 43, 44, 45, 46, 47, 48, 49, 50, 51, 52, 53, 54, 55, 56, 57, 58, 59, 60, 61, 62, 63, 64, 65, 66, 67, 68, 69, 70, 71, 72, 73, 74, 75, 76, 77, 78, 79, 80, 81, 82, 83, 84, 85, 86, 87, 88, 89, 90, 91, 92, 93, 94, 95, 96, 97, 98, 99, 100, 101, 102, 103, 104, 105, 106, 107, 108, 109, 110, 111, 112, 113, 114, 115, 116, 117, 118, 119, 120, 121, 122, 123, 124, 125, 126, 127, 128, 129, 130, 131, 132, 133, 134, 135, 136, 137, 138, 139, 140, 141, 142, 143, 144, 145, 146, 147, 148, 149, 150, 151, 152, 153, 154, 155, 156, 157, 158, 159, 160, 161, 162, 163, 164, 165, 166, 167, 168, 169, 170, 171, 172, 173, 174, 175, 176, 177, 178, 179, 180, 181, 182, 183, 184, 185, 186, 187, 188, 189, 190, 191, 192, 193, 194, 195, 196, 197, 198, 199, 200, 201, 202, 203, 204, 205, 206, 207, 208, 209, 210, 211, 212, 213, 214, 215, 216, 217, 218, 219, 220, 221, 222, 223, 224, 225, 226, 227, 228, 229, 230, 231, 232, 233, 234, 235, 236, 237, 238, 239, 240, 241, 242, 243, 244, 245, 246, 247, 248, 249, 250, 251, 252, 253, 254, 255, 256, 257, 258, 259, 260, 261, 262, 263, 264, 265, 266, 267, 268, 269, 270, 271, 272, 273, 274, 275, 276, 277, 278, 279, 280, 281, 282, 283, 284, 285, 286, 287, 288, 289, 290, 291, 292, 293, 294, 295, 296, 297, 298, 299, 300, 301, 302, 303, 304, 305, 306, 307, 308, 309, 310, 311, 312, 313, 314, 315, 316, 317, 318, 319, 320, 321, 322, 323, 324, 325, 326, 327, 328, 329, 330, 331, 332, 333, 334, 335, 336, 337, 338, 339, 340, 341, 342, 343, 344, 345, 346, 347, 348, 349, 350, 351, 352, 353, 354, 355, 356, 357, 358, 359, 360, 361, 362, 363, 364, 365, 366, 367, 368, 369, 370, 371, 372, 373, 374, 375, 376, 377, 378, 379, 380, 381, 382, 383, 384, 385, 386, 387, 388, 389, 390, 391, 392, 393, 394, 395, 396, 397, 398, 399, 400, 401, 402, 403, 404, 405, 406, 407, 408, 409, 410, 411, 412, 413, 414, 415, 416, 417, 418, 419, 420, 421, 422, 423, 424, 425, 426, 427, 428, 429, 430, 431, 432, 433, 434, 435, 436, 437, 438, 439, 440, 441, 442, 443, 444, 445, 446, 447, 448, 449, 450, 451, 452, 453, 454, 455, 456, 457, 458, 459, 460, 461, 462, 463, 464, 465, 466, 467, 468, 469, 470, 471, 472, 473, 474, 475, 476, 477, 478, 479, 480, 481, 482, 483, 484, 485, 486, 487, 488, 489, 490, 491, 492, 493, 494, 495, 496, 497, 498, 499, 500, 501, 502, 503, 504, 505, 506, 507, 508, 509],
      "AcquisitionTime": ["162205.160000", "162206.650000", "162208.140000", "162209.630000", "162211.120000", "162212.610000", "162214.100000", "162215.590000", "162217.080000", "162218.570000", "162220.060000", "162221.550000", "162223.040000", "162224.530000", "162226.020000", "162227.510000", "162229.000000", "162230.490000", "162231.980000", "162233.470000", "162234.960000", "162236.450000", "162237.940000", "162239.430000", "162240.920000", "162242.410000", "162243.900000", "162245.390000", "162246.880000", "162248.370000", "162249.860000", "162251.350000", "162252.840000", "162254.330000", "162255.820000", "162257.310000", "162258.800000", "162300.290000", "162301.780000", "162303.270000", "162304.760000", "162306.250000", "162307.740000", "162309.230000", "162310.720000", "162312.210000", "162313.700000", "162315.190000", "162316.680000", "162318.170000", "162319.660000", "162321.150000", "162322.640000", "162324.130000", "162325.620000", "162327.110000", "162328.600000", "162330.090000", "162331.580000", "162333.070000", "162334.560000", "162336.050000", "162337.540000", "162339.030000", "162340.520000", "162342.010000", "162343.500000", "162344.990000", "162346.480000", "162347.970000", "162349.460000", "162350.950000", "162352.440000", "162353.930000", "162355.420000", "162356.910000", "162358.400000", "162359.890000", "162401.380000", "162402.870000", "162404.360000", "162405.850000", "162407.340000", "162408.830000", "162410.320000", "162411.810000", "162413.300000", "162414.790000", "162416.280000", "162417.770000", "162419.260000", "162420.750000", "162422.240000", "162423.730000", "162425.220000", "162426.710000", "162428.200000", "162429.690000", "162431.180000", "162432.670000", "162434.160000", "162435.650000", "162437.140000", "162438.630000", "162440.120000", "162441.610000", "162443.100000", "162444.590000", "162446.080000", "162447.570000", "162449.060000", "162450.550000", "162452.040000", "162453.530000", "162455.020000", "162456.510000", "162458.000000", "162459.490000", "162500.980000", "162502.470000", "162503.960000", "162505.450000", "162506.940000", "162508.430000", "162509.920000", "162511.410000", "162512.900000", "162514.390000", "162515.880000", "162517.370000", "162518.860000", "162520.350000", "162521.840000", "162523.330000", "162524.820000", "162526.310000", "162527.800000", "162529.290000", "162530.780000", "162532.270000", "162533.760000", "162535.250000", "162536.740000", "162538.230000", "162539.720000", "162541.210000", "162542.700000", "162544.190000", "162545.680000", "162547.170000", "162548.660000", "162550.150000", "162551.640000", "162553.130000", "162554.620000", "162556.110000", "162557.600000", "162559.090000", "162600.580000", "162602.070000", "162603.560000", "162605.050000", "162606.540000", "162608.030000", "162609.520000", "162611.010000", "162612.500000", "162613.990000", "162615.480000", "162616.970000", "162618.460000", "162619.950000", "162621.440000", "162622.930000", "162624.420000", "162625.910000", "162627.400000", "162628.890000", "162630.380000", "162631.870000", "162633.360000", "162634.850000", "162636.340000", "162637.830000", "162639.320000", "162640.810000", "162642.300000", "162643.790000", "162645.280000", "162646.770000", "162648.260000", "162649.750000", "162651.240000", "162652.730000", "162654.220000", "162655.710000", "162657.200000", "162658.690000", "162700.180000", "162701.670000", "162703.160000", "162704.650000", "162706.140000", "162707.630000", "162709.120000", "162710.610000", "162712.100000", "162713.590000", "162715.080000", "162716.570000", "162718.060000", "162719.550000", "162721.040000", "162722.530000", "162724.020000", "162725.510000", "162727.000000", "162728.490000", "162729.980000", "162731.470000", "162732.960000", "162734.450000", "162735.940000", "162737.430000", "162738.920000", "162740.410000", "162741.900000", "162743.390000", "162744.880000", "162746.370000", "162747.860000", "162749.350000", "162750.840000", "162752.330000", "162753.820000", "162755.310000", "162756.800000", "162758.290000", "162759.780000", "162801.270000", "162802.760000", "162804.250000", "162805.740000", "162807.230000", "162808.720000", "162810.210000", "162811.700000", "162813.190000", "162814.680000", "162816.170000", "162817.660000", "162819.150000", "162820.640000", "162822.130000", "162823.620000", "162825.110000", "162826.600000", "162828.090000", "162829.580000", "162831.070000", "162832.560000", "162834.050000", "162835.540000", "162837.030000", "162838.520000", "162840.010000", "162841.500000", "162842.990000", "162844.480000", "162845.970000", "162847.460000", "162848.950000", "162850.440000", "162851.930000", "162853.420000", "162854.910000", "162856.400000", "162857.890000", "162859.380000", "162900.870000", "162902.360000", "162903.850000", "162905.340000", "162906.830000", "162908.320000", "162909.810000", "162911.300000", "162912.790000", "162914.280000", "162915.770000", "162917.260000", "162918.750000", "162920.240000", "162921.730000", "162923.220000", "162924.710000", "162926.200000", "162927.690000", "162929.180000", "162930.670000", "162932.160000", "162933.650000", "162935.140000", "162936.630000", "162938.120000", "162939.610000", "162941.100000", "162942.590000", "162944.080000", "162945.570000", "162947.060000", "162948.550000", "162950.040000", "162951.530000", "162953.020000", "162954.510000", "162956.000000", "162957.490000", "162958.980000", "163000.470000", "163001.960000", "163003.450000", "163004.940000", "163006.430000", "163007.920000", "163009.410000", "163010.900000", "163012.390000", "163013.880000", "163015.370000", "163016.860000", "163018.350000", "163019.840000", "163021.330000", "163022.820000", "163024.310000", "163025.800000", "163027.290000", "163028.780000", "163030.270000", "163031.760000", "163033.250000", "163034.740000", "163036.230000", "163037.720000", "163039.210000", "163040.700000", "163042.190000", "163043.680000", "163045.170000", "163046.660000", "163048.150000", "163049.640000", "163051.130000", "163052.620000", "163054.110000", "163055.600000", "163057.090000", "163058.580000", "163100.070000", "163101.560000", "163103.050000", "163104.540000", "163106.030000", "163107.520000", "163109.010000", "163110.500000", "163111.990000", "163113.480000", "163114.970000", "163116.460000", "163117.950000", "163119.440000", "163120.930000", "163122.420000", "163123.910000", "163125.400000", "163126.890000", "163128.380000", "163129.870000", "163131.360000", "163132.850000", "163134.340000", "163135.830000", "163137.320000", "163138.810000", "163140.300000", "163141.790000", "163143.280000", "163144.770000", "163146.260000", "163147.750000", "163149.240000", "163150.730000", "163152.220000", "163153.710000", "163155.200000", "163156.690000", "163158.180000", "163159.670000", "163201.160000", "163202.650000", "163204.140000", "163205.630000", "163207.120000", "163208.610000", "163210.100000", "163211.590000", "163213.080000", "163214.570000", "163216.060000", "163217.550000", "163219.040000", "163220.530000", "163222.020000", "163223.510000", "163225.000000", "163226.490000", "163227.980000", "163229.470000", "163230.960000", "163232.450000", "163233.940000", "163235.430000", "163236.920000", "163238.410000", "163239.900000", "163241.390000", "163242.880000", "163244.370000", "163245.860000", "163247.350000", "163248.840000", "163250.330000", "163251.820000", "163253.310000", "163254.800000", "163256.290000", "163257.780000", "163259.270000", "163300.760000", "163302.250000", "163303.740000", "163305.230000", "163306.720000", "163308.210000", "163309.700000", "163311.190000", "163312.680000", "163314.170000", "163315.660000", "163317.150000", "163318.640000", "163320.130000", "163321.620000", "163323.110000", "163324.600000", "163326.090000", "163327.580000", "163329.070000", "163330.560000", "163332.050000", "163333.540000", "163335.030000", "163336.520000", "163338.010000", "163339.500000", "163340.990000", "163342.480000", "163343.970000", "163345.460000", "163346.950000", "163348.440000", "163349.930000", "163351.420000", "163352.910000", "163354.400000", "163355.890000", "163357.380000", "163358.870000", "163400.360000", "163401.850000", "163403.340000", "163404.830000", "163406.320000", "163407.810000", "163409.300000", "163410.790000", "163412.280000", "163413.770000", "163415.260000", "163416.750000", "163418.240000", "163419.730000", "163421.220000", "163422.710000", "163424.200000", "163425.690000", "163427.180000", "163428.670000", "163430.160000", "163431.650000", "163433.140000", "163434.630000", "163436.120000", "163437.610000", "163439.100000", "163440.590000", "163442.080000"],
      "ContentTime": ["162255.310000", "162315.279000", "162315.291000", "162315.294000", "162315.296000", "162315.299000", "162315.302000", "162315.305000", "162315.314000", "162315.317000", "162315.319000", "162315.322000", "162315.325000", "162315.328000", "162315.331000", "162315.334000", "162315.337000", "162315.340000", "162315.342000", "162315.345000", "162315.348000", "162335.279000", "162335.282000", "162335.285000", "162335.288000", "162335.290000", "162335.293000", "162335.296000", "162335.299000", "162335.302000", "162335.305000", "162335.308000", "162335.310000", "162335.313000", "162335.316000", "162335.319000", "162335.322000", "162335.325000", "162335.328000", "162335.330000", "162335.339000", "162335.342000", "162355.279000", "162355.282000", "162355.285000", "162355.287000", "162355.290000", "162355.293000", "162355.296000", "162355.299000", "162355.302000", "162355.305000", "162355.308000", "162355.311000", "162355.313000", "162355.316000", "162355.319000", "162355.322000", "162355.325000", "162355.328000", "162355.331000", "162355.334000", "162415.278000", "162415.281000", "162415.284000", "162415.287000", "162415.290000", "162415.292000", "162415.295000", "162415.298000", "162415.301000", "162415.304000", "162415.307000", "162415.310000", "162415.312000", "162415.315000", "162415.318000", "162415.321000", "162415.324000", "162415.327000", "162415.330000", "162415.333000", "162455.278000", "162455.281000", "162455.284000", "162455.286000", "162455.289000", "162455.292000", "162455.295000", "162455.298000", "162455.301000", "162455.304000", "162455.307000", "162455.310000", "162455.313000", "162455.315000", "162455.318000", "162455.321000", "162455.324000", "162455.327000", "162455.330000", "162455.333000", "162455.336000", "162455.338000", "162455.341000", "162455.344000", "162455.347000", "162455.350000", "162455.353000", "162455.356000", "162455.359000", "162455.361000", "162455.364000", "162535.279000", "162535.282000", "162535.285000", "162535.288000", "162535.291000", "162535.294000", "162535.297000", "162535.300000", "162535.303000", "162535.306000", "162535.308000", "162535.311000", "162535.314000", "162535.317000", "162535.320000", "162535.323000", "162535.338000", "162535.341000", "162535.344000", "162535.347000", "162535.350000", "162535.353000", "162535.356000", "162535.359000", "162535.362000", "162535.365000", "162535.368000", "162615.279000", "162615.282000", "162615.285000", "162615.288000", "162615.291000", "162615.294000", "162615.296000", "162615.299000", "162615.302000", "162615.305000", "162615.308000", "162615.311000", "162615.314000", "162615.316000", "162615.319000", "162615.322000", "162615.325000", "162615.328000", "162615.331000", "162615.334000", "162615.336000", "162615.339000", "162615.342000", "162615.345000", "162615.348000", "162615.351000", "162615.354000", "162655.278000", "162655.281000", "162655.284000", "162655.287000", "162655.290000", "162655.293000", "162655.296000", "162655.298000", "162655.301000", "162655.304000", "162655.307000", "162655.310000", "162655.313000", "162655.316000", "162655.318000", "162655.321000", "162655.324000", "162655.327000", "162655.330000", "162655.333000", "162655.336000", "162655.339000", "162655.341000", "162655.344000", "162655.347000", "162655.350000", "162655.353000", "162735.279000", "162735.282000", "162735.285000", "162735.288000", "162735.291000", "162735.294000", "162735.297000", "162735.299000", "162735.302000", "162735.305000", "162735.308000", "162735.311000", "162735.314000", "162735.317000", "162735.320000", "162735.323000", "162735.326000", "162735.329000", "162735.332000", "162735.344000", "162735.346000", "162735.349000", "162735.352000", "162735.355000", "162735.358000", "162735.361000", "162815.279000", "162815.282000", "162815.285000", "162815.288000", "162815.291000", "162815.294000", "162815.296000", "162815.299000", "162815.302000", "162815.305000", "162815.308000", "162815.311000", "162815.314000", "162815.316000", "162815.319000", "162815.322000", "162815.325000", "162815.328000", "162815.331000", "162815.334000", "162815.337000", "162815.340000", "162815.342000", "162815.345000", "162815.348000", "162815.351000", "162815.354000", "162855.278000", "162855.281000", "162855.284000", "162855.287000", "162855.290000", "162855.293000", "162855.295000", "162855.298000", "162855.301000", "162855.304000", "162855.307000", "162855.319000", "162855.322000", "162855.325000", "162855.328000", "162855.330000", "162855.333000", "162855.336000", "162855.339000", "162855.342000", "162855.345000", "162855.348000", "162855.351000", "162855.354000", "162855.357000", "162855.360000", "162855.363000", "162935.278000", "162935.281000", "162935.284000", "162935.287000", "162935.290000", "162935.292000", "162935.295000", "162935.298000", "162935.301000", "162935.304000", "162935.307000", "162935.310000", "162935.313000", "162935.316000", "162935.319000", "162935.321000", "162935.324000", "162935.327000", "162935.330000", "162935.333000", "162935.336000", "162935.339000", "162935.342000", "162935.344000", "162935.347000", "162935.350000", "162935.353000", "163015.279000", "163015.282000", "163015.285000", "163015.288000", "163015.291000", "163015.294000", "163015.297000", "163015.299000", "163015.302000", "163015.305000", "163015.308000", "163015.311000", "163015.314000", "163015.317000", "163015.320000", "163015.323000", "163015.325000", "163015.328000", "163015.331000", "163015.334000", "163015.337000", "163015.340000", "163015.343000", "163015.346000", "163015.349000", "163015.360000", "163015.363000", "163055.279000", "163055.282000", "163055.285000", "163055.288000", "163055.291000", "163055.294000", "163055.297000", "163055.299000", "163055.302000", "163055.305000", "163055.308000", "163055.311000", "163055.314000", "163055.317000", "163055.320000", "163055.323000", "163055.326000", "163055.329000", "163055.332000", "163055.334000", "163055.337000", "163055.340000", "163055.343000", "163055.346000", "163055.349000", "163055.352000", "163055.355000", "163135.278000", "163135.281000", "163135.284000", "163135.287000", "163135.290000", "163135.293000", "163135.296000", "163135.298000", "163135.301000", "163135.304000", "163135.307000", "163135.310000", "163135.313000", "163135.316000", "163135.319000", "163135.322000", "163135.325000", "163135.327000", "163135.330000", "163135.334000", "163135.338000", "163135.340000", "163135.343000", "163135.346000", "163135.349000", "163135.352000", "163155.278000", "163155.281000", "163155.284000", "163155.287000", "163155.290000", "163155.293000", "163155.295000", "163155.298000", "163155.301000", "163155.304000", "163155.308000", "163155.311000", "163155.314000", "163155.317000", "163235.279000", "163235.282000", "163235.285000", "163235.288000", "163235.290000", "163235.293000", "163235.296000", "163235.299000", "163235.302000", "163235.305000", "163235.308000", "163235.311000", "163235.314000", "163235.317000", "163235.320000", "163235.323000", "163235.325000", "163235.328000", "163235.331000", "163235.334000", "163235.337000", "163235.340000", "163235.343000", "163235.346000", "163235.349000", "163235.351000", "163235.354000", "163315.279000", "163315.282000", "163315.285000", "163315.288000", "163315.290000", "163315.293000", "163315.296000", "163315.299000", "163315.302000", "163315.305000", "163315.308000", "163315.311000", "163315.314000", "163315.316000", "163315.319000", "163315.322000", "163315.325000", "163315.328000", "163315.331000", "163315.334000", "163315.337000", "163315.339000", "163315.342000", "163315.345000", "163315.348000", "163315.351000", "163315.354000", "163355.278000", "163355.281000", "163355.284000", "163355.287000", "163355.290000", "163355.301000", "163355.304000", "163355.307000", "163355.310000", "163355.312000", "163355.315000", "163355.318000", "163355.321000", "163355.324000", "163355.327000", "163355.330000", "163355.333000", "163355.336000", "163355.339000", "163355.342000", "163355.345000", "163355.348000", "163355.351000", "163355.353000", "163355.356000", "163355.359000", "163435.279000", "163435.282000", "163435.285000", "163435.288000", "163435.291000", "163435.294000", "163435.296000", "163435.299000", "163435.302000", "163435.305000", "163435.308000", "163435.311000", "163435.314000", "163435.317000", "163435.319000", "163435.322000", "163435.325000", "163435.328000", "163435.331000", "163435.334000", "163435.337000", "163435.347000", "163435.350000", "163435.353000", "163435.356000", "163435.359000", "163435.362000", "163444.626000", "163444.629000", "163444.632000", "163444.635000", "163444.638000", "163444.641000", "163444.644000"],
