{
  "AcquisitionMatrixPE": 104,
  "AcquisitionNumber": 1,
  "AcquisitionTime": "13:50:17.447500",
  "BandwidthPerPixelPhaseEncode": 17.17,
  "BaseResolution": 104,
  "BodyPartExamined": "BRAIN",
  "CoilString": "HC1-7;NC1_2",
  "ConsistencyInfo": "N4_VE11C_LATEST_20160120",
  "ConversionSoftware": "dcm2niix",
  "ConversionSoftwareVersion": "v1.0.20190902",
  "DerivedVendorReportedEchoSpacing": 0.000560011,
  "DeviceSerialNumber": "167006",
  "DwellTime": 2.1e-06,
  "EchoTime": 0.037,
  "EchoTrainLength": 104,
  "EffectiveEchoSpacing": 0.000560011,
  "FlipAngle": 52,
  "ImageComments": "Unaliased_MB4_PE3_LB",
  "ImageOrientationPatientDICOM": [0.999871, 0.0160767, 1.80238e-05, -0.0137872, 0.858054, -0.513375],
  "ImageType": [
    "ORIGINAL",
    "PRIMARY",
    "M",
    "MB",
    "ND",
    "MOSAIC"
],
  "ImagingFrequency": 123.259,
  "InPlanePhaseEncodingDirectionDICOM": "COL",
  "InstitutionAddress": "Chemin_Queen-Mary_4565_Montreal_District_CA_H3W_1W5",
  "InstitutionName": "IUGM",
  "InstitutionalDepartmentName": "Department",
  "MRAcquisitionType": "2D",
  "MagneticFieldStrength": 3,
  "Manufacturer": "Siemens",
  "ManufacturersModelName": "Prisma_fit",
  "Modality": "MR",
  "MultibandAccelerationFactor": 4,
  "PartialFourier": 1,
  "PatientPosition": "HFS",
  "PercentPhaseFOV": 100,
  "PhaseEncodingDirection": "j",
  "PhaseEncodingSteps": 104,
  "PhaseResolution": 1,
  "PixelBandwidth": 2290,
  "ProcedureStepDescription": "video_friends",
  "ProtocolName": "func_task-friends-s05e11a",
  "PulseSequenceDetails": "%CustomerSeq%_cmrr_mbep2d_bold",
  "ReceiveCoilActiveElements": "HC1-7;NC1,2",
  "ReceiveCoilName": "HeadNeck_64",
  "ReconMatrixPE": 104,
  "RepetitionTime": 1.49,
  "SAR": 0.0345136,
  "ScanOptions": "FS",
  "ScanningSequence": "EP",
  "SequenceName": "epfid2d1_104",
  "SequenceVariant": "SK_SS",
  "SeriesDescription": "func_task-friends-s05e11a",
  "SeriesNumber": 15,
  "ShimSetting": [621, -7197, -8855, 361, -18, -171, -11, -29],
  "SliceThickness": 2,
  "SliceTiming": [0, 0.7825, 0.0975, 0.8825, 0.195, 0.98, 0.2925, 1.0775, 0.3925, 1.175, 0.49, 1.2725, 0.5875, 1.37, 0.685, 0, 0.7825, 0.0975, 0.8825, 0.195, 0.98, 0.2925, 1.0775, 0.3925, 1.175, 0.49, 1.2725, 0.5875, 1.37, 0.685, 0, 0.7825, 0.0975, 0.8825, 0.195, 0.98, 0.2925, 1.0775, 0.3925, 1.175, 0.49, 1.2725, 0.5875, 1.37, 0.685, 0, 0.7825, 0.0975, 0.8825, 0.195, 0.98, 0.2925, 1.0775, 0.3925, 1.175, 0.49, 1.2725, 0.5875, 1.37, 0.685],
  "SoftwareVersions": "syngo_MR_E11",
  "SpacingBetweenSlices": 2,
  "StationName": "MRC35049",
  "TaskName": "s05e11a",
  "TotalReadoutTime": 0.0576811,
  "TxRefAmp": 245.258,
  "WipMemBlock": "c0fd8bb6-7787-47de-b54f-41947028987a||Sequence: R016 ve11c/master r/e634e98; Dec 19 2017 11:00:25 by eja",
  "dcmmeta_affine": [
    [-1.999741554260254, -0.027574362233281136, 0.016537640243768692, 104.30799865722656],
    [-0.03215334936976433, 1.7161078453063965, -1.026615858078003, -57.843624114990234],
    [3.604766970966011e-05, 1.0267491340637207, 1.7163293361663818, -92.4167251586914],
    [0.0, 0.0, 0.0, 1.0]
],
  "dcmmeta_reorient_transform": [
    [0.0, -1.0, 0.0, 103.0],
    [1.0, 0.0, 0.0, 0.0],
    [0.0, 0.0, 1.0, 0.0],
    [0.0, 0.0, 0.0, 1.0]
],
  "dcmmeta_shape": [104, 104, 60, 476],
  "dcmmeta_slice_dim": 2,
  "dcmmeta_version": 0.6,
  "global": {
    "const": {
      "AcquisitionMatrix": [104, 0, 0, 104],
      "AngioFlag": "N",
      "BitsAllocated": 16,
      "BitsStored": 16,
      "BodyPartExamined": "BRAIN",
      "Columns": 832,
      "EchoNumbers": 1,
      "EchoTime": 37.0,
      "EchoTrainLength": 104,
      "FlipAngle": 52.0,
      "HighBit": 15,
      "ImageOrientationPatient": [0.99987076176669, 0.01607667376194, 1.802383423e-05, -0.0137871813642, 0.85805389319198, -0.5133745513834],
      "ImagePositionPatient": [-819.33668536498, -755.28252922763, 387.06198318533],
      "ImageType": [
        "ORIGINAL",
        "PRIMARY",
        "M",
        "MB",
        "ND",
        "MOSAIC"
],
      "ImagedNucleus": "1H",
      "ImagingFrequency": 123.258979,
      "InPlanePhaseEncodingDirection": "COL",
      "MRAcquisitionType": "2D",
      "MagneticFieldStrength": 3.0,
      "Manufacturer": "SIEMENS",
      "ManufacturerModelName": "Prisma_fit",
      "Modality": "MR",
      "NumberOfAverages": 1.0,
      "NumberOfPhaseEncodingSteps": 104,
      "PercentPhaseFieldOfView": 100.0,
      "PercentSampling": 100.0,
      "PerformedProcedureStepStartTime": "130236.001000",
      "PhotometricInterpretation": "MONOCHROME2",
      "PixelBandwidth": 2290.0,
      "PixelRepresentation": 0,
      "PixelSpacing": [2.0, 2.0],
      "ProtocolName": "func_task-friends-s05e11a",
      "RepetitionTime": 1490.0,
      "Rows": 832,
      "SAR": 0.03451358603181,
      "SamplesPerPixel": 1,
      "ScanOptions": "FS",
      "ScanningSequence": "EP",
      "SequenceName": "epfid2d1_104",
      "SequenceVariant": [
        "SK",
        "SS"
],
      "SeriesDescription": "func_task-friends-s05e11a",
      "SeriesNumber": 15,
      "SeriesTime": "135132.485000",
      "SliceLocation": -48.754670621565,
      "SliceThickness": 2.0,
      "SmallestImagePixelValue": 0,
      "SoftwareVersions": "syngo MR E11",
      "SpacingBetweenSlices": 1.9999999871571,
      "SpecificCharacterSet": "ISO_IR 100",
      "StudyID": "1",
      "StudyTime": "130235.916000",
      "TransmitCoilName": "Body",
      "VariableFlipAngleFlag": "N",
      "WindowCenterWidthExplanation": "Algo1",
      "dBdt": 0.0},
    "slices": {}
  },
  "time": {
    "samples": {
      "AcquisitionNumber": [1, 2, 3, 4, 5, 6, 7, 8, 9, 10, 11, 12, 13, 14, 15, 16, 17, 18, 19, 20, 21, 22, 23, 24, 25, 26, 27, 28, 29, 30, 31, 32, 33, 34, 35, 36, 37, 38, 39, 40, 41, 42, 43, 44, 45, 46, 47, 48, 49, 50, 51, 52, 53, 54, 55, 56, 57, 58, 59, 60, 61, 62, 63, 64, 65, 66, 67, 68, 69, 70, 71, 72, 73, 74, 75, 76, 77, 78, 79, 80, 81, 82, 83, 84, 85, 86, 87, 88, 89, 90, 91, 92, 93, 94, 95, 96, 97, 98, 99, 100, 101, 102, 103, 104, 105, 106, 107, 108, 109, 110, 111, 112, 113, 114, 115, 116, 117, 118, 119, 120, 121, 122, 123, 124, 125, 126, 127, 128, 129, 130, 131, 132, 133, 134, 135, 136, 137, 138, 139, 140, 141, 142, 143, 144, 145, 146, 147, 148, 149, 150, 151, 152, 153, 154, 155, 156, 157, 158, 159, 160, 161, 162, 163, 164, 165, 166, 167, 168, 169, 170, 171, 172, 173, 174, 175, 176, 177, 178, 179, 180, 181, 182, 183, 184, 185, 186, 187, 188, 189, 190, 191, 192, 193, 194, 195, 196, 197, 198, 199, 200, 201, 202, 203, 204, 205, 206, 207, 208, 209, 210, 211, 212, 213, 214, 215, 216, 217, 218, 219, 220, 221, 222, 223, 224, 225, 226, 227, 228, 229, 230, 231, 232, 233, 234, 235, 236, 237, 238, 239, 240, 241, 242, 243, 244, 245, 246, 247, 248, 249, 250, 251, 252, 253, 254, 255, 256, 257, 258, 259, 260, 261, 262, 263, 264, 265, 266, 267, 268, 269, 270, 271, 272, 273, 274, 275, 276, 277, 278, 279, 280, 281, 282, 283, 284, 285, 286, 287, 288, 289, 290, 291, 292, 293, 294, 295, 296, 297, 298, 299, 300, 301, 302, 303, 304, 305, 306, 307, 308, 309, 310, 311, 312, 313, 314, 315, 316, 317, 318, 319, 320, 321, 322, 323, 324, 325, 326, 327, 328, 329, 330, 331, 332, 333, 334, 335, 336, 337, 338, 339, 340, 341, 342, 343, 344, 345, 346, 347, 348, 349, 350, 351, 352, 353, 354, 355, 356, 357, 358, 359, 360, 361, 362, 363, 364, 365, 366, 367, 368, 369, 370, 371, 372, 373, 374, 375, 376, 377, 378, 379, 380, 381, 382, 383, 384, 385, 386, 387, 388, 389, 390, 391, 392, 393, 394, 395, 396, 397, 398, 399, 400, 401, 402, 403, 404, 405, 406, 407, 408, 409, 410, 411, 412, 413, 414, 415, 416, 417, 418, 419, 420, 421, 422, 423, 424, 425, 426, 427, 428, 429, 430, 431, 432, 433, 434, 435, 436, 437, 438, 439, 440, 441, 442, 443, 444, 445, 446, 447, 448, 449, 450, 451, 452, 453, 454, 455, 456, 457, 458, 459, 460, 461, 462, 463, 464, 465, 466, 467, 468, 469, 470, 471, 472, 473, 474, 475, 476],
      "AcquisitionTime": ["135017.447500", "135018.937500", "135020.427500", "135021.917500", "135023.407500", "135024.897500", "135026.387500", "135027.877500", "135029.367500", "135030.857500", "135032.347500", "135033.837500", "135035.327500", "135036.817500", "135038.307500", "135039.797500", "135041.287500", "135042.777500", "135044.267500", "135045.757500", "135047.247500", "135048.737500", "135050.227500", "135051.717500", "135053.207500", "135054.697500", "135056.187500", "135057.677500", "135059.167500", "135100.657500", "135102.147500", "135103.637500", "135105.127500", "135106.617500", "135108.107500", "135109.597500", "135111.087500", "135112.577500", "135114.067500", "135115.557500", "135117.047500", "135118.537500", "135120.027500", "135121.517500", "135123.007500", "135124.497500", "135125.987500", "135127.477500", "135128.967500", "135130.457500", "135131.947500", "135133.437500", "135134.927500", "135136.417500", "135137.907500", "135139.397500", "135140.887500", "135142.377500", "135143.867500", "135145.357500", "135146.847500", "135148.337500", "135149.827500", "135151.317500", "135152.807500", "135154.297500", "135155.787500", "135157.277500", "135158.767500", "135200.257500", "135201.747500", "135203.237500", "135204.727500", "135206.217500", "135207.707500", "135209.197500", "135210.687500", "135212.177500", "135213.667500", "135215.157500", "135216.647500", "135218.137500", "135219.627500", "135221.117500", "135222.607500", "135224.097500", "135225.587500", "135227.077500", "135228.567500", "135230.057500", "135231.547500", "135233.037500", "135234.527500", "135236.017500", "135237.507500", "135238.997500", "135240.487500", "135241.977500", "135243.467500", "135244.957500", "135246.447500", "135247.937500", "135249.427500", "135250.917500", "135252.407500", "135253.897500", "135255.387500", "135256.877500", "135258.367500", "135259.857500", "135301.347500", "135302.837500", "135304.327500", "135305.817500", "135307.307500", "135308.797500", "135310.287500", "135311.777500", "135313.267500", "135314.757500", "135316.247500", "135317.737500", "135319.227500", "135320.717500", "135322.207500", "135323.697500", "135325.187500", "135326.677500", "135328.167500", "135329.657500", "135331.147500", "135332.637500", "135334.127500", "135335.617500", "135337.107500", "135338.597500", "135340.087500", "135341.577500", "135343.067500", "135344.557500", "135346.047500", "135347.537500", "135349.027500", "135350.517500", "135352.007500", "135353.497500", "135354.987500", "135356.477500", "135357.967500", "135359.457500", "135400.947500", "135402.437500", "135403.927500", "135405.417500", "135406.907500", "135408.397500", "135409.887500", "135411.377500", "135412.867500", "135414.357500", "135415.847500", "135417.337500", "135418.827500", "135420.317500", "135421.807500", "135423.297500", "135424.787500", "135426.277500", "135427.767500", "135429.257500", "135430.747500", "135432.237500", "135433.727500", "135435.217500", "135436.707500", "135438.197500", "135439.687500", "135441.177500", "135442.667500", "135444.157500", "135445.647500", "135447.137500", "135448.627500", "135450.117500", "135451.607500", "135453.097500", "135454.587500", "135456.077500", "135457.567500", "135459.057500", "135500.547500", "135502.037500", "135503.527500", "135505.017500", "135506.507500", "135507.997500", "135509.487500", "135510.977500", "135512.467500", "135513.957500", "135515.447500", "135516.937500", "135518.427500", "135519.917500", "135521.407500", "135522.897500", "135524.387500", "135525.877500", "135527.367500", "135528.857500", "135530.347500", "135531.837500", "135533.327500", "135534.817500", "135536.307500", "135537.797500", "135539.287500", "135540.777500", "135542.267500", "135543.757500", "135545.247500", "135546.737500", "135548.227500", "135549.717500", "135551.207500", "135552.697500", "135554.187500", "135555.677500", "135557.167500", "135558.657500", "135600.147500", "135601.637500", "135603.127500", "135604.617500", "135606.107500", "135607.597500", "135609.087500", "135610.577500", "135612.067500", "135613.557500", "135615.047500", "135616.537500", "135618.027500", "135619.517500", "135621.007500", "135622.497500", "135623.987500", "135625.477500", "135626.967500", "135628.457500", "135629.947500", "135631.437500", "135632.927500", "135634.417500", "135635.907500", "135637.397500", "135638.887500", "135640.377500", "135641.867500", "135643.357500", "135644.847500", "135646.337500", "135647.827500", "135649.317500", "135650.807500", "135652.297500", "135653.787500", "135655.277500", "135656.767500", "135658.257500", "135659.747500", "135701.237500", "135702.727500", "135704.217500", "135705.707500", "135707.197500", "135708.687500", "135710.177500", "135711.667500", "135713.157500", "135714.647500", "135716.137500", "135717.627500", "135719.117500", "135720.607500", "135722.097500", "135723.587500", "135725.077500", "135726.567500", "135728.057500", "135729.547500", "135731.037500", "135732.527500", "135734.017500", "135735.507500", "135736.997500", "135738.487500", "135739.977500", "135741.467500", "135742.957500", "135744.447500", "135745.937500", "135747.427500", "135748.917500", "135750.407500", "135751.897500", "135753.387500", "135754.877500", "135756.367500", "135757.857500", "135759.347500", "135800.837500", "135802.327500", "135803.817500", "135805.307500", "135806.797500", "135808.287500", "135809.777500", "135811.267500", "135812.757500", "135814.247500", "135815.737500", "135817.227500", "135818.717500", "135820.207500", "135821.697500", "135823.187500", "135824.677500", "135826.167500", "135827.657500", "135829.147500", "135830.637500", "135832.127500", "135833.617500", "135835.107500", "135836.597500", "135838.087500", "135839.577500", "135841.067500", "135842.557500", "135844.047500", "135845.537500", "135847.027500", "135848.517500", "135850.007500", "135851.497500", "135852.987500", "135854.477500", "135855.967500", "135857.457500", "135858.947500", "135900.437500", "135901.927500", "135903.417500", "135904.907500", "135906.397500", "135907.887500", "135909.377500", "135910.867500", "135912.357500", "135913.847500", "135915.337500", "135916.827500", "135918.317500", "135919.807500", "135921.297500", "135922.787500", "135924.277500", "135925.767500", "135927.257500", "135928.747500", "135930.237500", "135931.727500", "135933.217500", "135934.707500", "135936.197500", "135937.687500", "135939.177500", "135940.667500", "135942.157500", "135943.647500", "135945.137500", "135946.627500", "135948.117500", "135949.607500", "135951.097500", "135952.587500", "135954.077500", "135955.567500", "135957.057500", "135958.547500", "140000.037500", "140001.527500", "140003.017500", "140004.507500", "140005.997500", "140007.487500", "140008.977500", "140010.467500", "140011.957500", "140013.447500", "140014.937500", "140016.427500", "140017.917500", "140019.407500", "140020.897500", "140022.387500", "140023.877500", "140025.367500", "140026.857500", "140028.347500", "140029.837500", "140031.327500", "140032.817500", "140034.307500", "140035.797500", "140037.287500", "140038.777500", "140040.267500", "140041.757500", "140043.247500", "140044.737500", "140046.227500", "140047.717500", "140049.207500", "140050.697500", "140052.187500", "140053.677500", "140055.167500", "140056.657500", "140058.147500", "140059.637500", "140101.127500", "140102.617500", "140104.107500", "140105.597500", "140107.087500", "140108.577500", "140110.067500", "140111.557500", "140113.047500", "140114.537500", "140116.027500", "140117.517500", "140119.007500", "140120.497500", "140121.987500", "140123.477500", "140124.967500", "140126.457500", "140127.947500", "140129.437500", "140130.927500", "140132.417500", "140133.907500", "140135.397500", "140136.887500", "140138.377500", "140139.867500", "140141.357500", "140142.847500", "140144.337500", "140145.827500", "140147.317500", "140148.807500", "140150.297500", "140151.787500", "140153.277500", "140154.767500", "140156.257500", "140157.747500", "140159.237500", "140200.727500", "140202.217500", "140203.707500", "140205.197500"],
      "ContentTime": ["135132.488000", "135132.491000", "135132.494000", "135132.497000", "135132.500000", "135132.503000", "135132.506000", "135132.509000", "135132.512000", "135132.515000", "135132.527000", "135132.534000", "135132.537000", "135132.540000", "135132.543000", "135132.545000", "135132.549000", "135132.551000", "135132.560000", "135132.563000", "135152.449000", "135152.452000", "135152.455000", "135152.458000", "135152.461000", "135152.464000", "135152.467000", "135152.470000", "135152.473000", "135152.483000", "135152.486000", "135152.489000", "135152.492000", "135152.495000", "135152.498000", "135152.501000", "135152.504000", "135152.506000", "135152.509000", "135152.512000", "135212.449000", "135212.452000", "135212.455000", "135212.458000", "135212.461000", "135212.464000", "135212.467000", "135212.470000", "135212.477000", "135212.480000", "135212.483000", "135212.485000", "135212.488000", "135212.492000", "135212.494000", "135212.497000", "135212.500000", "135212.503000", "135212.506000", "135212.509000", "135212.512000", "135232.449000", "135232.452000", "135232.455000", "135232.458000", "135232.461000", "135232.464000", "135232.467000", "135232.470000", "135232.473000", "135232.476000", "135232.479000", "135232.482000", "135232.485000", "135232.487000", "135232.507000", "135232.510000", "135232.513000", "135232.516000", "135232.519000", "135232.522000", "135252.450000", "135252.453000", "135252.456000", "135252.459000", "135252.462000", "135252.465000", "135252.468000", "135252.471000", "135252.474000", "135252.477000", "135252.479000", "135252.494000", "135252.497000", "135252.500000", "135252.503000", "135252.505000", "135252.508000", "135252.511000", "135252.514000", "135252.517000", "135332.450000", "135332.453000", "135332.456000", "135332.459000", "135332.462000", "135332.465000", "135332.468000", "135332.471000", "135332.474000", "135332.477000", "135332.480000", "135332.483000", "135332.486000", "135332.489000", "135332.492000", "135332.495000", "135332.498000", "135332.501000", "135332.504000", "135332.507000", "135332.517000", "135332.520000", "135332.530000", "135332.533000", "135332.535000", "135332.538000", "135332.542000", "135332.544000", "135332.547000", "135412.449000", "135412.452000", "135412.455000", "135412.458000", "135412.461000", "135412.464000", "135412.467000", "135412.470000", "135412.473000", "135412.476000", "135412.479000", "135412.481000", "135412.484000", "135412.487000", "135412.490000", "135412.493000", "135412.496000", "135412.499000", "135412.502000", "135412.505000", "135412.508000", "135412.511000", "135412.514000", "135412.517000", "135412.520000", "135412.523000", "135412.526000", "135452.450000", "135452.453000", "135452.456000", "135452.459000", "135452.462000", "135452.465000", "135452.468000", "135452.471000", "135452.474000", "135452.477000", "135452.480000", "135452.483000", "135452.486000", "135452.489000", "135452.492000", "135452.495000", "135452.498000", "135452.501000", "135452.504000", "135452.513000", "135452.516000", "135452.519000", "135452.522000", "135452.525000", "135452.528000", "135452.531000", "135452.534000", "135532.450000", "135532.453000", "135532.456000", "135532.459000", "135532.462000", "135532.465000", "135532.468000", "135532.471000", "135532.474000", "135532.477000", "135532.480000", "135532.483000", "135532.486000", "135532.489000", "135532.492000", "135532.497000", "135532.500000", "135532.503000", "135532.506000", "135532.509000", "135532.512000", "135532.515000", "135532.518000", "135532.521000", "135532.524000", "135532.527000", "135612.450000", "135612.453000", "135612.456000", "135612.459000", "135612.462000", "135612.465000", "135612.468000", "135612.471000", "135612.474000", "135612.477000", "135612.480000", "135612.483000", "135612.486000", "135612.489000", "135612.492000", "135612.495000", "135612.498000", "135612.501000", "135612.504000", "135612.507000", "135612.510000", "135612.513000", "135612.516000", "135612.519000", "135612.522000", "135612.525000", "135612.528000", "135652.449000", "135652.452000", "135652.455000", "135652.458000", "135652.472000", "135652.474000", "135652.478000", "135652.481000", "135652.483000", "135652.486000", "135652.490000", "135652.492000", "135652.495000", "135652.498000", "135652.501000", "135652.504000", "135652.507000", "135652.510000", "135652.513000", "135652.516000", "135652.519000", "135652.523000", "135652.526000", "135652.529000", "135652.531000", "135652.534000", "135652.537000", "135732.450000", "135732.453000", "135732.456000", "135732.459000", "135732.462000", "135732.465000", "135732.468000", "135732.471000", "135732.474000", "135732.477000", "135732.480000", "135732.483000", "135732.486000", "135732.489000", "135732.492000", "135732.495000", "135732.498000", "135732.501000", "135732.504000", "135732.507000", "135732.510000", "135732.513000", "135732.516000", "135732.518000", "135732.521000", "135732.525000", "135732.528000", "135812.450000", "135812.453000", "135812.456000", "135812.469000", "135812.472000", "135812.475000", "135812.478000", "135812.481000", "135812.484000", "135812.487000", "135812.490000", "135812.493000", "135812.496000", "135812.499000", "135812.502000", "135812.505000", "135812.508000", "135812.511000", "135812.514000", "135812.517000", "135812.520000", "135812.523000", "135812.525000", "135812.528000", "135812.532000", "135812.534000", "135812.537000", "135852.449000", "135852.452000", "135852.455000", "135852.458000", "135852.461000", "135852.464000", "135852.467000", "135852.470000", "135852.473000", "135852.476000", "135852.479000", "135852.482000", "135852.485000", "135852.488000", "135852.491000", "135852.494000", "135852.497000", "135852.500000", "135852.503000", "135852.506000", "135852.509000", "135852.512000", "135852.515000", "135852.518000", "135852.521000", "135852.524000", "135852.527000", "135932.450000", "135932.453000", "135932.456000", "135932.459000", "135932.462000", "135932.465000", "135932.468000", "135932.471000", "135932.474000", "135932.477000", "135932.480000", "135932.483000", "135932.486000", "135932.489000", "135932.492000", "135932.494000", "135932.498000", "135932.501000", "135932.504000", "135932.507000", "135932.523000", "135932.526000", "135932.529000", "135932.532000", "135932.535000", "135932.538000", "140012.450000", "140012.453000", "140012.460000", "140012.463000", "140012.466000", "140012.469000", "140012.472000", "140012.474000", "140012.478000", "140012.480000", "140012.483000", "140012.486000", "140012.489000", "140012.492000", "140012.495000", "140012.498000", "140012.501000", "140012.504000", "140012.507000", "140012.510000", "140012.513000", "140012.516000", "140012.519000", "140012.522000", "140012.525000", "140012.527000", "140012.530000", "140052.450000", "140052.453000", "140052.456000", "140052.459000", "140052.462000", "140052.465000", "140052.468000", "140052.471000", "140052.474000", "140052.477000", "140052.480000", "140052.483000", "140052.486000", "140052.489000", "140052.492000", "140052.495000", "140052.498000", "140052.501000", "140052.504000", "140052.507000", "140052.510000", "140052.512000", "140052.515000", "140052.518000", "140052.521000", "140052.524000", "140052.527000", "140132.449000", "140132.452000", "140132.455000", "140132.458000", "140132.461000", "140132.464000", "140132.467000", "140132.470000", "140132.473000", "140132.476000", "140132.479000", "140132.482000", "140132.485000", "140132.488000", "140132.491000", "140132.494000", "140132.497000", "140132.500000", "140132.502000", "140132.505000", "140132.508000", "140132.511000", "140132.514000", "140132.517000", "140132.520000", "140132.523000", "140132.526000", "140207.528000", "140207.531000", "140207.534000", "140207.537000", "140207.547000", "140207.550000", "140207.553000", "140207.556000", "140207.559000", "140207.562000", "140207.565000", "140207.568000", "140207.571000", "140207.574000", "140207.577000", "140207.580000", "140207.583000", "140207.604000", "140207.608000", "140207.611000", "140207.614000", "140207.617000", "140207.620000", "140207.623000"],
