{
  "AcquisitionMatrixPE": 104,
  "AcquisitionNumber": 1,
  "AcquisitionTime": "10:34:54.567500",
  "BandwidthPerPixelPhaseEncode": 17.17,
  "BaseResolution": 104,
  "BodyPartExamined": "BRAIN",
  "CoilString": "HC1-7;NC1_2",
  "ConsistencyInfo": "N4_VE11C_LATEST_20160120",
  "ConversionSoftware": "dcm2niix",
  "ConversionSoftwareVersion": "v1.0.20190902",
  "DerivedVendorReportedEchoSpacing": 0.000560011,
  "DeviceSerialNumber": "167006",
  "DwellTime": 2.1e-06,
  "EchoTime": 0.037,
  "EchoTrainLength": 104,
  "EffectiveEchoSpacing": 0.000560011,
  "FlipAngle": 52,
  "ImageComments": "Unaliased_MB4_PE3_LB",
  "ImageOrientationPatientDICOM": [0.999513, 0.0107008, 0.0293064, 0.0010467, 0.92731, -0.374293],
  "ImageType": [
    "ORIGINAL",
    "PRIMARY",
    "M",
    "MB",
    "ND",
    "MOSAIC"
],
  "ImagingFrequency": 123.259,
  "InPlanePhaseEncodingDirectionDICOM": "COL",
  "InstitutionAddress": "Chemin_Queen-Mary_4565_Montreal_District_CA_H3W_1W5",
  "InstitutionName": "IUGM",
  "InstitutionalDepartmentName": "Department",
  "MRAcquisitionType": "2D",
  "MagneticFieldStrength": 3,
  "Manufacturer": "Siemens",
  "ManufacturersModelName": "Prisma_fit",
  "Modality": "MR",
  "MultibandAccelerationFactor": 4,
  "PartialFourier": 1,
  "PatientPosition": "HFS",
  "PercentPhaseFOV": 100,
  "PhaseEncodingDirection": "j",
  "PhaseEncodingSteps": 104,
  "PhaseResolution": 1,
  "PixelBandwidth": 2290,
  "ProcedureStepDescription": "video_friends",
  "ProtocolName": "func_task-friends-s04e17b",
  "PulseSequenceDetails": "%CustomerSeq%_cmrr_mbep2d_bold",
  "ReceiveCoilActiveElements": "HC1-7;NC1,2",
  "ReceiveCoilName": "HeadNeck_64",
  "ReconMatrixPE": 104,
  "RepetitionTime": 1.49,
  "SAR": 0.0399835,
  "ScanOptions": "FS",
  "ScanningSequence": "EP",
  "SequenceName": "epfid2d1_104",
  "SequenceVariant": "SK_SS",
  "SeriesDescription": "func_task-friends-s04e17b",
  "SeriesNumber": 19,
  "ShimSetting": [636, -7174, -8839, 628, 77, 31, 34, -3],
  "SliceThickness": 2,
  "SliceTiming": [0, 0.785, 0.1, 0.8825, 0.1975, 0.98, 0.295, 1.08, 0.3925, 1.1775, 0.49, 1.275, 0.59, 1.3725, 0.6875, 0, 0.785, 0.1, 0.8825, 0.1975, 0.98, 0.295, 1.08, 0.3925, 1.1775, 0.49, 1.275, 0.59, 1.3725, 0.6875, 0, 0.785, 0.1, 0.8825, 0.1975, 0.98, 0.295, 1.08, 0.3925, 1.1775, 0.49, 1.275, 0.59, 1.3725, 0.6875, 0, 0.785, 0.1, 0.8825, 0.1975, 0.98, 0.295, 1.08, 0.3925, 1.1775, 0.49, 1.275, 0.59, 1.3725, 0.6875],
  "SoftwareVersions": "syngo_MR_E11",
  "SpacingBetweenSlices": 2,
  "StationName": "MRC35049",
  "TaskName": "s04e17b",
  "TotalReadoutTime": 0.0576811,
  "TxRefAmp": 249.243,
  "WipMemBlock": "3d4c7d01-12ad-46f9-bdf4-847d1e20f780||Sequence: R016 ve11c/master r/e634e98; Dec 19 2017 11:00:25 by eja",
  "dcmmeta_affine": [
    [-1.9990264177322388, 0.0020934008061885834, 0.062362778931856155, 101.51598358154297],
    [-0.02140168473124504, 1.8546198606491089, -0.7482829093933105, -66.1766586303711],
    [0.058612849563360214, 0.7485859394073486, 1.8536946773529053, -65.18729400634766],
    [0.0, 0.0, 0.0, 1.0]
],
  "dcmmeta_reorient_transform": [
    [0.0, -1.0, 0.0, 103.0],
    [1.0, 0.0, 0.0, 0.0],
    [0.0, 0.0, 1.0, 0.0],
    [0.0, 0.0, 0.0, 1.0]
],
  "dcmmeta_shape": [104, 104, 60, 478],
  "dcmmeta_slice_dim": 2,
  "dcmmeta_version": 0.6,
  "global": {
    "const": {
      "AcquisitionMatrix": [104, 0, 0, 104],
      "AngioFlag": "N",
      "BitsAllocated": 16,
      "BitsStored": 16,
      "BodyPartExamined": "BRAIN",
      "Columns": 832,
      "EchoNumbers": 1,
      "EchoTime": 37.0,
      "EchoTrainLength": 104,
      "FlipAngle": 52.0,
      "HighBit": 15,
      "ImageOrientationPatient": [0.99951319423135, 0.0107008426841, 0.02930642460787, 0.0010467004481, 0.92730991767016, -0.3742929614737],
      "ImagePositionPatient": [-830.1392048804, -807.72102080628, 263.06725463549],
      "ImageType": [
        "ORIGINAL",
        "PRIMARY",
        "M",
        "MB",
        "ND",
        "MOSAIC"
],
      "ImagedNucleus": "1H",
      "ImagingFrequency": 123.259008,
      "InPlanePhaseEncodingDirection": "COL",
      "MRAcquisitionType": "2D",
      "MagneticFieldStrength": 3.0,
      "Manufacturer": "SIEMENS",
      "ManufacturerModelName": "Prisma_fit",
      "Modality": "MR",
      "NumberOfAverages": 1.0,
      "NumberOfPhaseEncodingSteps": 104,
      "PercentPhaseFieldOfView": 100.0,
      "PercentSampling": 100.0,
      "PerformedProcedureStepStartTime": "091017.305000",
      "PhotometricInterpretation": "MONOCHROME2",
      "PixelBandwidth": 2290.0,
      "PixelRepresentation": 0,
      "PixelSpacing": [2.0, 2.0],
      "ProtocolName": "func_task-friends-s04e17b",
      "RepetitionTime": 1490.0,
      "Rows": 832,
      "SAR": 0.03998353336182,
      "SamplesPerPixel": 1,
      "ScanOptions": "FS",
      "ScanningSequence": "EP",
      "SequenceName": "epfid2d1_104",
      "SequenceVariant": [
        "SK",
        "SS"
],
      "SeriesDescription": "func_task-friends-s04e17b",
      "SeriesNumber": 19,
      "SeriesTime": "103612.722000",
      "SliceLocation": -32.493829751329,
      "SliceThickness": 2.0,
      "SmallestImagePixelValue": 0,
      "SoftwareVersions": "syngo MR E11",
      "SpacingBetweenSlices": 2.0000000624447,
      "SpecificCharacterSet": "ISO_IR 100",
      "StudyID": "1",
      "StudyTime": "091017.145000",
      "TransmitCoilName": "Body",
      "VariableFlipAngleFlag": "N",
      "WindowCenterWidthExplanation": "Algo1",
      "dBdt": 0.0},
    "slices": {}
  },
  "time": {
    "samples": {
      "AcquisitionNumber": [1, 2, 3, 4, 5, 6, 7, 8, 9, 10, 11, 12, 13, 14, 15, 16, 17, 18, 19, 20, 21, 22, 23, 24, 25, 26, 27, 28, 29, 30, 31, 32, 33, 34, 35, 36, 37, 38, 39, 40, 41, 42, 43, 44, 45, 46, 47, 48, 49, 50, 51, 52, 53, 54, 55, 56, 57, 58, 59, 60, 61, 62, 63, 64, 65, 66, 67, 68, 69, 70, 71, 72, 73, 74, 75, 76, 77, 78, 79, 80, 81, 82, 83, 84, 85, 86, 87, 88, 89, 90, 91, 92, 93, 94, 95, 96, 97, 98, 99, 100, 101, 102, 103, 104, 105, 106, 107, 108, 109, 110, 111, 112, 113, 114, 115, 116, 117, 118, 119, 120, 121, 122, 123, 124, 125, 126, 127, 128, 129, 130, 131, 132, 133, 134, 135, 136, 137, 138, 139, 140, 141, 142, 143, 144, 145, 146, 147, 148, 149, 150, 151, 152, 153, 154, 155, 156, 157, 158, 159, 160, 161, 162, 163, 164, 165, 166, 167, 168, 169, 170, 171, 172, 173, 174, 175, 176, 177, 178, 179, 180, 181, 182, 183, 184, 185, 186, 187, 188, 189, 190, 191, 192, 193, 194, 195, 196, 197, 198, 199, 200, 201, 202, 203, 204, 205, 206, 207, 208, 209, 210, 211, 212, 213, 214, 215, 216, 217, 218, 219, 220, 221, 222, 223, 224, 225, 226, 227, 228, 229, 230, 231, 232, 233, 234, 235, 236, 237, 238, 239, 240, 241, 242, 243, 244, 245, 246, 247, 248, 249, 250, 251, 252, 253, 254, 255, 256, 257, 258, 259, 260, 261, 262, 263, 264, 265, 266, 267, 268, 269, 270, 271, 272, 273, 274, 275, 276, 277, 278, 279, 280, 281, 282, 283, 284, 285, 286, 287, 288, 289, 290, 291, 292, 293, 294, 295, 296, 297, 298, 299, 300, 301, 302, 303, 304, 305, 306, 307, 308, 309, 310, 311, 312, 313, 314, 315, 316, 317, 318, 319, 320, 321, 322, 323, 324, 325, 326, 327, 328, 329, 330, 331, 332, 333, 334, 335, 336, 337, 338, 339, 340, 341, 342, 343, 344, 345, 346, 347, 348, 349, 350, 351, 352, 353, 354, 355, 356, 357, 358, 359, 360, 361, 362, 363, 364, 365, 366, 367, 368, 369, 370, 371, 372, 373, 374, 375, 376, 377, 378, 379, 380, 381, 382, 383, 384, 385, 386, 387, 388, 389, 390, 391, 392, 393, 394, 395, 396, 397, 398, 399, 400, 401, 402, 403, 404, 405, 406, 407, 408, 409, 410, 411, 412, 413, 414, 415, 416, 417, 418, 419, 420, 421, 422, 423, 424, 425, 426, 427, 428, 429, 430, 431, 432, 433, 434, 435, 436, 437, 438, 439, 440, 441, 442, 443, 444, 445, 446, 447, 448, 449, 450, 451, 452, 453, 454, 455, 456, 457, 458, 459, 460, 461, 462, 463, 464, 465, 466, 467, 468, 469, 470, 471, 472, 473, 474, 475, 476, 477, 478],
      "AcquisitionTime": ["103454.567500", "103456.057500", "103457.547500", "103459.037500", "103500.527500", "103502.017500", "103503.507500", "103504.997500", "103506.487500", "103507.977500", "103509.467500", "103510.957500", "103512.447500", "103513.937500", "103515.427500", "103516.917500", "103518.407500", "103519.897500", "103521.387500", "103522.877500", "103524.367500", "103525.857500", "103527.347500", "103528.837500", "103530.327500", "103531.817500", "103533.307500", "103534.797500", "103536.287500", "103537.777500", "103539.267500", "103540.757500", "103542.247500", "103543.737500", "103545.227500", "103546.717500", "103548.207500", "103549.697500", "103551.187500", "103552.677500", "103554.167500", "103555.657500", "103557.147500", "103558.637500", "103600.127500", "103601.617500", "103603.107500", "103604.597500", "103606.087500", "103607.577500", "103609.067500", "103610.557500", "103612.047500", "103613.537500", "103615.027500", "103616.517500", "103618.007500", "103619.497500", "103620.987500", "103622.477500", "103623.967500", "103625.457500", "103626.947500", "103628.437500", "103629.927500", "103631.417500", "103632.907500", "103634.397500", "103635.887500", "103637.377500", "103638.867500", "103640.357500", "103641.847500", "103643.337500", "103644.827500", "103646.317500", "103647.807500", "103649.297500", "103650.787500", "103652.277500", "103653.767500", "103655.257500", "103656.747500", "103658.237500", "103659.727500", "103701.217500", "103702.707500", "103704.197500", "103705.687500", "103707.177500", "103708.667500", "103710.157500", "103711.647500", "103713.137500", "103714.627500", "103716.117500", "103717.607500", "103719.097500", "103720.587500", "103722.077500", "103723.567500", "103725.057500", "103726.547500", "103728.037500", "103729.527500", "103731.017500", "103732.507500", "103733.997500", "103735.487500", "103736.977500", "103738.467500", "103739.957500", "103741.447500", "103742.937500", "103744.427500", "103745.917500", "103747.407500", "103748.897500", "103750.387500", "103751.877500", "103753.367500", "103754.857500", "103756.347500", "103757.837500", "103759.327500", "103800.817500", "103802.307500", "103803.797500", "103805.287500", "103806.777500", "103808.267500", "103809.757500", "103811.247500", "103812.737500", "103814.227500", "103815.717500", "103817.207500", "103818.697500", "103820.187500", "103821.677500", "103823.167500", "103824.657500", "103826.147500", "103827.637500", "103829.127500", "103830.617500", "103832.107500", "103833.597500", "103835.087500", "103836.577500", "103838.067500", "103839.557500", "103841.047500", "103842.537500", "103844.027500", "103845.517500", "103847.007500", "103848.497500", "103849.987500", "103851.477500", "103852.967500", "103854.457500", "103855.947500", "103857.437500", "103858.927500", "103900.417500", "103901.907500", "103903.397500", "103904.887500", "103906.377500", "103907.867500", "103909.357500", "103910.847500", "103912.337500", "103913.827500", "103915.317500", "103916.807500", "103918.297500", "103919.787500", "103921.277500", "103922.767500", "103924.257500", "103925.747500", "103927.237500", "103928.727500", "103930.217500", "103931.707500", "103933.197500", "103934.687500", "103936.177500", "103937.667500", "103939.157500", "103940.647500", "103942.137500", "103943.627500", "103945.117500", "103946.607500", "103948.097500", "103949.587500", "103951.077500", "103952.567500", "103954.057500", "103955.547500", "103957.037500", "103958.527500", "104000.017500", "104001.507500", "104002.997500", "104004.487500", "104005.977500", "104007.467500", "104008.957500", "104010.447500", "104011.937500", "104013.427500", "104014.917500", "104016.407500", "104017.897500", "104019.387500", "104020.877500", "104022.367500", "104023.857500", "104025.347500", "104026.837500", "104028.327500", "104029.817500", "104031.307500", "104032.797500", "104034.287500", "104035.777500", "104037.267500", "104038.757500", "104040.247500", "104041.737500", "104043.227500", "104044.717500", "104046.207500", "104047.697500", "104049.187500", "104050.677500", "104052.167500", "104053.657500", "104055.147500", "104056.637500", "104058.127500", "104059.617500", "104101.107500", "104102.597500", "104104.087500", "104105.577500", "104107.067500", "104108.557500", "104110.047500", "104111.537500", "104113.027500", "104114.517500", "104116.007500", "104117.497500", "104118.987500", "104120.477500", "104121.967500", "104123.457500", "104124.947500", "104126.437500", "104127.927500", "104129.417500", "104130.907500", "104132.397500", "104133.887500", "104135.377500", "104136.867500", "104138.357500", "104139.847500", "104141.337500", "104142.827500", "104144.317500", "104145.807500", "104147.297500", "104148.787500", "104150.277500", "104151.767500", "104153.257500", "104154.747500", "104156.237500", "104157.727500", "104159.217500", "104200.707500", "104202.197500", "104203.687500", "104205.177500", "104206.667500", "104208.157500", "104209.647500", "104211.137500", "104212.627500", "104214.117500", "104215.607500", "104217.097500", "104218.587500", "104220.077500", "104221.567500", "104223.057500", "104224.547500", "104226.037500", "104227.527500", "104229.017500", "104230.507500", "104231.997500", "104233.487500", "104234.977500", "104236.467500", "104237.957500", "104239.447500", "104240.937500", "104242.427500", "104243.917500", "104245.407500", "104246.897500", "104248.387500", "104249.877500", "104251.367500", "104252.857500", "104254.347500", "104255.837500", "104257.327500", "104258.817500", "104300.307500", "104301.797500", "104303.287500", "104304.777500", "104306.267500", "104307.757500", "104309.247500", "104310.737500", "104312.227500", "104313.717500", "104315.207500", "104316.697500", "104318.187500", "104319.677500", "104321.167500", "104322.657500", "104324.147500", "104325.637500", "104327.127500", "104328.617500", "104330.107500", "104331.597500", "104333.087500", "104334.577500", "104336.067500", "104337.557500", "104339.047500", "104340.537500", "104342.027500", "104343.517500", "104345.007500", "104346.497500", "104347.987500", "104349.477500", "104350.967500", "104352.457500", "104353.947500", "104355.437500", "104356.927500", "104358.417500", "104359.907500", "104401.397500", "104402.887500", "104404.377500", "104405.867500", "104407.357500", "104408.847500", "104410.337500", "104411.827500", "104413.317500", "104414.807500", "104416.297500", "104417.787500", "104419.277500", "104420.767500", "104422.257500", "104423.747500", "104425.237500", "104426.727500", "104428.217500", "104429.707500", "104431.197500", "104432.687500", "104434.177500", "104435.667500", "104437.157500", "104438.647500", "104440.137500", "104441.627500", "104443.117500", "104444.607500", "104446.097500", "104447.587500", "104449.077500", "104450.567500", "104452.057500", "104453.547500", "104455.037500", "104456.527500", "104458.017500", "104459.507500", "104500.997500", "104502.487500", "104503.977500", "104505.467500", "104506.957500", "104508.447500", "104509.937500", "104511.427500", "104512.917500", "104514.407500", "104515.897500", "104517.387500", "104518.877500", "104520.367500", "104521.857500", "104523.347500", "104524.837500", "104526.327500", "104527.817500", "104529.307500", "104530.797500", "104532.287500", "104533.777500", "104535.267500", "104536.757500", "104538.247500", "104539.737500", "104541.227500", "104542.717500", "104544.207500", "104545.697500", "104547.187500", "104548.677500", "104550.167500", "104551.657500", "104553.147500", "104554.637500", "104556.127500", "104557.617500", "104559.107500", "104600.597500", "104602.087500", "104603.577500", "104605.067500", "104606.557500", "104608.047500", "104609.537500", "104611.027500", "104612.517500", "104614.007500", "104615.497500", "104616.987500", "104618.477500", "104619.967500", "104621.457500", "104622.947500", "104624.437500", "104625.927500", "104627.417500", "104628.907500", "104630.397500", "104631.887500", "104633.377500", "104634.867500", "104636.357500", "104637.847500", "104639.337500", "104640.827500", "104642.317500", "104643.807500", "104645.297500"],
      "ContentTime": ["103612.725000", "103612.728000", "103612.731000", "103612.734000", "103612.737000", "103612.740000", "103612.743000", "103612.746000", "103612.748000", "103612.751000", "103612.754000", "103612.757000", "103612.760000", "103612.763000", "103612.766000", "103612.769000", "103612.771000", "103612.774000", "103612.777000", "103612.786000", "103612.789000", "103612.792000", "103612.794000", "103612.798000", "103632.694000", "103632.697000", "103632.700000", "103632.703000", "103632.706000", "103632.709000", "103632.711000", "103632.714000", "103632.717000", "103632.720000", "103632.723000", "103632.726000", "103632.729000", "103632.731000", "103632.747000", "103632.749000", "103632.752000", "103632.755000", "103632.758000", "103632.761000", "103652.694000", "103652.697000", "103652.700000", "103652.703000", "103652.706000", "103652.708000", "103652.711000", "103652.714000", "103652.717000", "103652.720000", "103652.723000", "103652.726000", "103652.729000", "103652.732000", "103652.734000", "103652.737000", "103652.740000", "103652.743000", "103652.746000", "103652.749000", "103712.694000", "103712.697000", "103712.700000", "103712.703000", "103712.706000", "103712.708000", "103712.711000", "103712.714000", "103712.717000", "103712.720000", "103712.723000", "103712.726000", "103712.729000", "103712.732000", "103712.734000", "103712.737000", "103712.740000", "103712.743000", "103712.746000", "103712.749000", "103732.695000", "103732.698000", "103732.701000", "103732.704000", "103732.707000", "103732.709000", "103732.712000", "103732.715000", "103732.718000", "103732.721000", "103732.724000", "103732.727000", "103732.730000", "103732.733000", "103732.739000", "103732.741000", "103732.744000", "103732.747000", "103732.750000", "103732.753000", "103812.694000", "103812.697000", "103812.700000", "103812.703000", "103812.706000", "103812.709000", "103812.712000", "103812.715000", "103812.718000", "103812.721000", "103812.724000", "103812.727000", "103812.730000", "103812.733000", "103812.736000", "103812.739000", "103812.742000", "103812.745000", "103812.747000", "103812.750000", "103812.753000", "103812.756000", "103812.759000", "103812.762000", "103812.765000", "103812.768000", "103812.771000", "103812.774000", "103852.694000", "103852.697000", "103852.700000", "103852.703000", "103852.713000", "103852.716000", "103852.719000", "103852.721000", "103852.724000", "103852.727000", "103852.730000", "103852.733000", "103852.736000", "103852.739000", "103852.742000", "103852.745000", "103852.748000", "103852.751000", "103852.754000", "103852.757000", "103852.759000", "103852.762000", "103852.765000", "103852.768000", "103852.771000", "103852.774000", "103852.777000", "103932.694000", "103932.697000", "103932.700000", "103932.703000", "103932.706000", "103932.709000", "103932.711000", "103932.714000", "103932.717000", "103932.720000", "103932.723000", "103932.726000", "103932.729000", "103932.732000", "103932.735000", "103932.738000", "103932.740000", "103932.743000", "103932.746000", "103932.749000", "103932.752000", "103932.755000", "103932.758000", "103932.761000", "103932.764000", "103932.767000", "103932.770000", "104012.694000", "104012.697000", "104012.700000", "104012.703000", "104012.706000", "104012.709000", "104012.712000", "104012.714000", "104012.717000", "104012.720000", "104012.723000", "104012.726000", "104012.729000", "104012.732000", "104012.735000", "104012.738000", "104012.741000", "104012.743000", "104012.746000", "104012.749000", "104012.752000", "104012.755000", "104012.758000", "104012.761000", "104012.764000", "104012.766000", "104012.769000", "104052.694000", "104052.697000", "104052.700000", "104052.703000", "104052.706000", "104052.709000", "104052.712000", "104052.715000", "104052.718000", "104052.721000", "104052.724000", "104052.727000", "104052.730000", "104052.733000", "104052.735000", "104052.738000", "104052.741000", "104052.744000", "104052.747000", "104052.750000", "104052.753000", "104052.764000", "104052.767000", "104052.770000", "104052.772000", "104052.775000", "104052.778000", "104112.694000", "104112.697000", "104112.700000", "104112.703000", "104112.706000", "104112.709000", "104112.711000", "104112.714000", "104112.717000", "104112.720000", "104112.723000", "104112.726000", "104112.729000", "104152.694000", "104152.697000", "104152.700000", "104152.703000", "104152.706000", "104152.709000", "104152.711000", "104152.714000", "104152.717000", "104152.720000", "104152.723000", "104152.726000", "104152.729000", "104152.732000", "104152.735000", "104152.738000", "104152.740000", "104152.743000", "104152.746000", "104152.749000", "104152.752000", "104152.755000", "104152.758000", "104152.761000", "104152.763000", "104152.766000", "104152.769000", "104232.694000", "104232.697000", "104232.700000", "104232.703000", "104232.706000", "104232.709000", "104232.712000", "104232.715000", "104232.717000", "104232.720000", "104232.723000", "104232.726000", "104232.729000", "104232.732000", "104232.735000", "104232.738000", "104232.741000", "104232.743000", "104232.746000", "104232.749000", "104232.752000", "104232.755000", "104232.758000", "104232.761000", "104232.764000", "104232.767000", "104232.770000", "104312.695000", "104312.699000", "104312.702000", "104312.705000", "104312.708000", "104312.711000", "104312.714000", "104312.717000", "104312.720000", "104312.723000", "104312.726000", "104312.729000", "104312.732000", "104312.735000", "104312.737000", "104312.740000", "104312.743000", "104312.746000", "104312.749000", "104312.752000", "104312.755000", "104312.758000", "104312.760000", "104312.763000", "104312.766000", "104312.769000", "104352.694000", "104352.697000", "104352.700000", "104352.703000", "104352.706000", "104352.709000", "104352.712000", "104352.714000", "104352.717000", "104352.720000", "104352.723000", "104352.726000", "104352.729000", "104352.732000", "104352.735000", "104352.738000", "104352.740000", "104352.743000", "104352.746000", "104352.749000", "104352.752000", "104352.761000", "104352.764000", "104352.767000", "104352.770000", "104352.773000", "104352.776000", "104432.695000", "104432.698000", "104432.701000", "104432.704000", "104432.707000", "104432.710000", "104432.713000", "104432.716000", "104432.719000", "104432.722000", "104432.725000", "104432.728000", "104432.731000", "104432.734000", "104432.736000", "104432.739000", "104432.742000", "104432.745000", "104432.748000", "104432.751000", "104432.754000", "104432.757000", "104432.760000", "104432.763000", "104432.766000", "104432.768000", "104432.771000", "104512.694000", "104512.697000", "104512.700000", "104512.703000", "104512.706000", "104512.709000", "104512.712000", "104512.715000", "104512.717000", "104512.720000", "104512.723000", "104512.726000", "104512.729000", "104512.732000", "104512.735000", "104512.738000", "104512.741000", "104512.743000", "104512.746000", "104512.749000", "104512.752000", "104512.755000", "104512.758000", "104512.761000", "104512.764000", "104512.767000", "104512.770000", "104552.695000", "104552.698000", "104552.701000", "104552.704000", "104552.722000", "104552.725000", "104552.728000", "104552.731000", "104552.734000", "104552.737000", "104552.739000", "104552.742000", "104552.745000", "104552.748000", "104552.751000", "104552.754000", "104552.757000", "104552.760000", "104552.763000", "104552.765000", "104552.768000", "104552.771000", "104552.774000", "104552.777000", "104552.780000", "104552.783000", "104552.786000", "104632.694000", "104632.697000", "104632.700000", "104632.703000", "104632.706000", "104632.709000", "104632.712000", "104632.715000", "104632.717000", "104632.720000", "104632.723000", "104632.726000", "104632.729000", "104632.732000", "104632.735000", "104632.738000", "104632.741000", "104632.744000", "104632.747000", "104632.750000", "104632.753000", "104632.756000", "104632.759000", "104632.761000", "104632.764000", "104632.767000", "104632.770000", "104647.328000", "104647.331000", "104647.334000", "104647.337000", "104647.340000", "104647.343000", "104647.346000", "104647.349000", "104647.352000", "104647.355000"],
