{
  "AcquisitionMatrixPE": 104,
  "AcquisitionNumber": 1,
  "AcquisitionTime": "09:56:37.255000",
  "BandwidthPerPixelPhaseEncode": 17.17,
  "BaseResolution": 104,
  "BodyPartExamined": "BRAIN",
  "CoilString": "HC1-7;NC1_2",
  "ConsistencyInfo": "N4_VE11C_LATEST_20160120",
  "ConversionSoftware": "dcm2niix",
  "ConversionSoftwareVersion": "v1.0.20190902",
  "DerivedVendorReportedEchoSpacing": 0.000560011,
  "DeviceSerialNumber": "167006",
  "DwellTime": 2.1e-06,
  "EchoTime": 0.037,
  "EchoTrainLength": 104,
  "EffectiveEchoSpacing": 0.000560011,
  "FlipAngle": 52,
  "ImageComments": "Unaliased_MB4_PE3_LB",
  "ImageOrientationPatientDICOM": [0.999513, 0.0107008, 0.0293064, 0.0010467, 0.92731, -0.374293],
  "ImageType": [
    "ORIGINAL",
    "PRIMARY",
    "M",
    "MB",
    "ND",
    "MOSAIC"
],
  "ImagingFrequency": 123.259,
  "InPlanePhaseEncodingDirectionDICOM": "COL",
  "InstitutionAddress": "Chemin_Queen-Mary_4565_Montreal_District_CA_H3W_1W5",
  "InstitutionName": "IUGM",
  "InstitutionalDepartmentName": "Department",
  "MRAcquisitionType": "2D",
  "MagneticFieldStrength": 3,
  "Manufacturer": "Siemens",
  "ManufacturersModelName": "Prisma_fit",
  "Modality": "MR",
  "MultibandAccelerationFactor": 4,
  "PartialFourier": 1,
  "PatientPosition": "HFS",
  "PercentPhaseFOV": 100,
  "PhaseEncodingDirection": "j",
  "PhaseEncodingSteps": 104,
  "PhaseResolution": 1,
  "PixelBandwidth": 2290,
  "ProcedureStepDescription": "video_friends",
  "ProtocolName": "func_task-friends-s04e16a",
  "PulseSequenceDetails": "%CustomerSeq%_cmrr_mbep2d_bold",
  "ReceiveCoilActiveElements": "HC1-7;NC1,2",
  "ReceiveCoilName": "HeadNeck_64",
  "ReconMatrixPE": 104,
  "RepetitionTime": 1.49,
  "SAR": 0.0399866,
  "ScanOptions": "FS",
  "ScanningSequence": "EP",
  "SequenceName": "epfid2d1_104",
  "SequenceVariant": "SK_SS",
  "SeriesDescription": "func_task-friends-s04e16a",
  "SeriesNumber": 13,
  "ShimSetting": [636, -7174, -8839, 628, 77, 31, 34, -3],
  "SliceThickness": 2,
  "SliceTiming": [0, 0.785, 0.0975, 0.8825, 0.1975, 0.98, 0.295, 1.0775, 0.3925, 1.175, 0.49, 1.275, 0.5875, 1.3725, 0.685, 0, 0.785, 0.0975, 0.8825, 0.1975, 0.98, 0.295, 1.0775, 0.3925, 1.175, 0.49, 1.275, 0.5875, 1.3725, 0.685, 0, 0.785, 0.0975, 0.8825, 0.1975, 0.98, 0.295, 1.0775, 0.3925, 1.175, 0.49, 1.275, 0.5875, 1.3725, 0.685, 0, 0.785, 0.0975, 0.8825, 0.1975, 0.98, 0.295, 1.0775, 0.3925, 1.175, 0.49, 1.275, 0.5875, 1.3725, 0.685],
  "SoftwareVersions": "syngo_MR_E11",
  "SpacingBetweenSlices": 2,
  "StationName": "MRC35049",
  "TaskName": "s04e16a",
  "TotalReadoutTime": 0.0576811,
  "TxRefAmp": 249.243,
  "WipMemBlock": "7143407b-9307-4fb2-8a5b-b9d4ce6706b0||Sequence: R016 ve11c/master r/e634e98; Dec 19 2017 11:00:25 by eja",
  "dcmmeta_affine": [
    [-1.9990264177322388, 0.0020934008061885834, 0.062362778931856155, 101.51598358154297],
    [-0.02140168473124504, 1.8546198606491089, -0.7482829093933105, -66.1766586303711],
    [0.058612849563360214, 0.7485859394073486, 1.8536946773529053, -65.18729400634766],
    [0.0, 0.0, 0.0, 1.0]
],
  "dcmmeta_reorient_transform": [
    [0.0, -1.0, 0.0, 103.0],
    [1.0, 0.0, 0.0, 0.0],
    [0.0, 0.0, 1.0, 0.0],
    [0.0, 0.0, 0.0, 1.0]
],
  "dcmmeta_shape": [104, 104, 60, 487],
  "dcmmeta_slice_dim": 2,
  "dcmmeta_version": 0.6,
  "global": {
    "const": {
      "AcquisitionMatrix": [104, 0, 0, 104],
      "AngioFlag": "N",
      "BitsAllocated": 16,
      "BitsStored": 16,
      "BodyPartExamined": "BRAIN",
      "Columns": 832,
      "EchoNumbers": 1,
      "EchoTime": 37.0,
      "EchoTrainLength": 104,
      "FlipAngle": 52.0,
      "HighBit": 15,
      "ImageOrientationPatient": [0.99951319423135, 0.0107008426841, 0.02930642460787, 0.0010467004481, 0.92730991767016, -0.3742929614737],
      "ImagePositionPatient": [-830.1392048804, -807.72102080628, 263.06725463549],
      "ImageType": [
        "ORIGINAL",
        "PRIMARY",
        "M",
        "MB",
        "ND",
        "MOSAIC"
],
      "ImagedNucleus": "1H",
      "ImagingFrequency": 123.258998,
      "InPlanePhaseEncodingDirection": "COL",
      "MRAcquisitionType": "2D",
      "MagneticFieldStrength": 3.0,
      "Manufacturer": "SIEMENS",
      "ManufacturerModelName": "Prisma_fit",
      "Modality": "MR",
      "NumberOfAverages": 1.0,
      "NumberOfPhaseEncodingSteps": 104,
      "PercentPhaseFieldOfView": 100.0,
      "PercentSampling": 100.0,
      "PerformedProcedureStepStartTime": "091017.305000",
      "PhotometricInterpretation": "MONOCHROME2",
      "PixelBandwidth": 2290.0,
      "PixelRepresentation": 0,
      "PixelSpacing": [2.0, 2.0],
      "ProtocolName": "func_task-friends-s04e16a",
      "RepetitionTime": 1490.0,
      "Rows": 832,
      "SAR": 0.03998659356686,
      "SamplesPerPixel": 1,
      "ScanOptions": "FS",
      "ScanningSequence": "EP",
      "SequenceName": "epfid2d1_104",
      "SequenceVariant": [
        "SK",
        "SS"
],
      "SeriesDescription": "func_task-friends-s04e16a",
      "SeriesNumber": 13,
      "SeriesTime": "095752.727000",
      "SliceLocation": -32.493829751329,
      "SliceThickness": 2.0,
      "SmallestImagePixelValue": 0,
      "SoftwareVersions": "syngo MR E11",
      "SpacingBetweenSlices": 2.0000000624447,
      "SpecificCharacterSet": "ISO_IR 100",
      "StudyID": "1",
      "StudyTime": "091017.145000",
      "TransmitCoilName": "Body",
      "VariableFlipAngleFlag": "N",
      "WindowCenterWidthExplanation": "Algo1",
      "dBdt": 0.0},
    "slices": {}
  },
  "time": {
    "samples": {
      "AcquisitionNumber": [1, 2, 3, 4, 5, 6, 7, 8, 9, 10, 11, 12, 13, 14, 15, 16, 17, 18, 19, 20, 21, 22, 23, 24, 25, 26, 27, 28, 29, 30, 31, 32, 33, 34, 35, 36, 37, 38, 39, 40, 41, 42, 43, 44, 45, 46, 47, 48, 49, 50, 51, 52, 53, 54, 55, 56, 57, 58, 59, 60, 61, 62, 63, 64, 65, 66, 67, 68, 69, 70, 71, 72, 73, 74, 75, 76, 77, 78, 79, 80, 81, 82, 83, 84, 85, 86, 87, 88, 89, 90, 91, 92, 93, 94, 95, 96, 97, 98, 99, 100, 101, 102, 103, 104, 105, 106, 107, 108, 109, 110, 111, 112, 113, 114, 115, 116, 117, 118, 119, 120, 121, 122, 123, 124, 125, 126, 127, 128, 129, 130, 131, 132, 133, 134, 135, 136, 137, 138, 139, 140, 141, 142, 143, 144, 145, 146, 147, 148, 149, 150, 151, 152, 153, 154, 155, 156, 157, 158, 159, 160, 161, 162, 163, 164, 165, 166, 167, 168, 169, 170, 171, 172, 173, 174, 175, 176, 177, 178, 179, 180, 181, 182, 183, 184, 185, 186, 187, 188, 189, 190, 191, 192, 193, 194, 195, 196, 197, 198, 199, 200, 201, 202, 203, 204, 205, 206, 207, 208, 209, 210, 211, 212, 213, 214, 215, 216, 217, 218, 219, 220, 221, 222, 223, 224, 225, 226, 227, 228, 229, 230, 231, 232, 233, 234, 235, 236, 237, 238, 239, 240, 241, 242, 243, 244, 245, 246, 247, 248, 249, 250, 251, 252, 253, 254, 255, 256, 257, 258, 259, 260, 261, 262, 263, 264, 265, 266, 267, 268, 269, 270, 271, 272, 273, 274, 275, 276, 277, 278, 279, 280, 281, 282, 283, 284, 285, 286, 287, 288, 289, 290, 291, 292, 293, 294, 295, 296, 297, 298, 299, 300, 301, 302, 303, 304, 305, 306, 307, 308, 309, 310, 311, 312, 313, 314, 315, 316, 317, 318, 319, 320, 321, 322, 323, 324, 325, 326, 327, 328, 329, 330, 331, 332, 333, 334, 335, 336, 337, 338, 339, 340, 341, 342, 343, 344, 345, 346, 347, 348, 349, 350, 351, 352, 353, 354, 355, 356, 357, 358, 359, 360, 361, 362, 363, 364, 365, 366, 367, 368, 369, 370, 371, 372, 373, 374, 375, 376, 377, 378, 379, 380, 381, 382, 383, 384, 385, 386, 387, 388, 389, 390, 391, 392, 393, 394, 395, 396, 397, 398, 399, 400, 401, 402, 403, 404, 405, 406, 407, 408, 409, 410, 411, 412, 413, 414, 415, 416, 417, 418, 419, 420, 421, 422, 423, 424, 425, 426, 427, 428, 429, 430, 431, 432, 433, 434, 435, 436, 437, 438, 439, 440, 441, 442, 443, 444, 445, 446, 447, 448, 449, 450, 451, 452, 453, 454, 455, 456, 457, 458, 459, 460, 461, 462, 463, 464, 465, 466, 467, 468, 469, 470, 471, 472, 473, 474, 475, 476, 477, 478, 479, 480, 481, 482, 483, 484, 485, 486, 487],
      "AcquisitionTime": ["095637.255000", "095638.745000", "095640.235000", "095641.725000", "095643.215000", "095644.705000", "095646.195000", "095647.685000", "095649.175000", "095650.665000", "095652.155000", "095653.645000", "095655.135000", "095656.625000", "095658.115000", "095659.605000", "095701.095000", "095702.585000", "095704.075000", "095705.565000", "095707.055000", "095708.545000", "095710.035000", "095711.525000", "095713.015000", "095714.505000", "095715.995000", "095717.485000", "095718.975000", "095720.465000", "095721.955000", "095723.445000", "095724.935000", "095726.425000", "095727.915000", "095729.405000", "095730.895000", "095732.385000", "095733.875000", "095735.365000", "095736.855000", "095738.345000", "095739.835000", "095741.325000", "095742.815000", "095744.305000", "095745.795000", "095747.285000", "095748.775000", "095750.265000", "095751.755000", "095753.245000", "095754.735000", "095756.225000", "095757.715000", "095759.205000", "095800.695000", "095802.185000", "095803.675000", "095805.165000", "095806.655000", "095808.145000", "095809.635000", "095811.125000", "095812.615000", "095814.105000", "095815.595000", "095817.085000", "095818.575000", "095820.065000", "095821.555000", "095823.045000", "095824.535000", "095826.025000", "095827.515000", "095829.005000", "095830.495000", "095831.985000", "095833.475000", "095834.965000", "095836.455000", "095837.945000", "095839.435000", "095840.925000", "095842.415000", "095843.905000", "095845.395000", "095846.885000", "095848.375000", "095849.865000", "095851.355000", "095852.845000", "095854.335000", "095855.825000", "095857.315000", "095858.805000", "095900.295000", "095901.785000", "095903.275000", "095904.765000", "095906.255000", "095907.745000", "095909.235000", "095910.725000", "095912.215000", "095913.705000", "095915.195000", "095916.685000", "095918.175000", "095919.665000", "095921.155000", "095922.645000", "095924.135000", "095925.625000", "095927.115000", "095928.605000", "095930.095000", "095931.585000", "095933.075000", "095934.565000", "095936.055000", "095937.545000", "095939.035000", "095940.525000", "095942.015000", "095943.505000", "095944.995000", "095946.485000", "095947.975000", "095949.465000", "095950.955000", "095952.445000", "095953.935000", "095955.425000", "095956.915000", "095958.405000", "095959.895000", "100001.385000", "100002.875000", "100004.365000", "100005.855000", "100007.345000", "100008.835000", "100010.325000", "100011.815000", "100013.305000", "100014.795000", "100016.285000", "100017.775000", "100019.265000", "100020.755000", "100022.245000", "100023.735000", "100025.225000", "100026.715000", "100028.205000", "100029.695000", "100031.185000", "100032.675000", "100034.165000", "100035.655000", "100037.145000", "100038.635000", "100040.125000", "100041.615000", "100043.105000", "100044.595000", "100046.085000", "100047.575000", "100049.065000", "100050.555000", "100052.045000", "100053.535000", "100055.025000", "100056.515000", "100058.005000", "100059.495000", "100100.985000", "100102.475000", "100103.965000", "100105.455000", "100106.945000", "100108.435000", "100109.925000", "100111.415000", "100112.905000", "100114.395000", "100115.885000", "100117.375000", "100118.865000", "100120.355000", "100121.845000", "100123.335000", "100124.825000", "100126.315000", "100127.805000", "100129.295000", "100130.785000", "100132.275000", "100133.765000", "100135.255000", "100136.745000", "100138.235000", "100139.725000", "100141.215000", "100142.705000", "100144.195000", "100145.685000", "100147.175000", "100148.665000", "100150.155000", "100151.645000", "100153.135000", "100154.625000", "100156.115000", "100157.605000", "100159.095000", "100200.585000", "100202.075000", "100203.565000", "100205.055000", "100206.545000", "100208.035000", "100209.525000", "100211.015000", "100212.505000", "100213.995000", "100215.485000", "100216.975000", "100218.465000", "100219.955000", "100221.445000", "100222.935000", "100224.425000", "100225.915000", "100227.405000", "100228.895000", "100230.385000", "100231.875000", "100233.365000", "100234.855000", "100236.345000", "100237.835000", "100239.325000", "100240.815000", "100242.305000", "100243.795000", "100245.285000", "100246.775000", "100248.265000", "100249.755000", "100251.245000", "100252.735000", "100254.225000", "100255.715000", "100257.205000", "100258.695000", "100300.185000", "100301.675000", "100303.165000", "100304.655000", "100306.145000", "100307.635000", "100309.125000", "100310.615000", "100312.105000", "100313.595000", "100315.085000", "100316.575000", "100318.065000", "100319.555000", "100321.045000", "100322.535000", "100324.025000", "100325.515000", "100327.005000", "100328.495000", "100329.985000", "100331.475000", "100332.965000", "100334.455000", "100335.945000", "100337.435000", "100338.925000", "100340.415000", "100341.905000", "100343.395000", "100344.885000", "100346.375000", "100347.865000", "100349.355000", "100350.845000", "100352.335000", "100353.825000", "100355.315000", "100356.805000", "100358.295000", "100359.785000", "100401.275000", "100402.765000", "100404.255000", "100405.745000", "100407.235000", "100408.725000", "100410.215000", "100411.705000", "100413.195000", "100414.685000", "100416.175000", "100417.665000", "100419.155000", "100420.645000", "100422.135000", "100423.625000", "100425.115000", "100426.605000", "100428.095000", "100429.585000", "100431.075000", "100432.565000", "100434.055000", "100435.545000", "100437.035000", "100438.525000", "100440.015000", "100441.505000", "100442.995000", "100444.485000", "100445.975000", "100447.465000", "100448.955000", "100450.445000", "100451.935000", "100453.425000", "100454.915000", "100456.405000", "100457.895000", "100459.385000", "100500.875000", "100502.365000", "100503.855000", "100505.345000", "100506.835000", "100508.325000", "100509.815000", "100511.305000", "100512.795000", "100514.285000", "100515.775000", "100517.265000", "100518.755000", "100520.245000", "100521.735000", "100523.225000", "100524.715000", "100526.205000", "100527.695000", "100529.185000", "100530.675000", "100532.165000", "100533.655000", "100535.145000", "100536.635000", "100538.125000", "100539.615000", "100541.105000", "100542.595000", "100544.085000", "100545.575000", "100547.065000", "100548.555000", "100550.045000", "100551.535000", "100553.025000", "100554.515000", "100556.005000", "100557.495000", "100558.985000", "100600.475000", "100601.965000", "100603.455000", "100604.945000", "100606.435000", "100607.925000", "100609.415000", "100610.905000", "100612.395000", "100613.885000", "100615.375000", "100616.865000", "100618.355000", "100619.845000", "100621.335000", "100622.825000", "100624.315000", "100625.805000", "100627.295000", "100628.785000", "100630.275000", "100631.765000", "100633.255000", "100634.745000", "100636.235000", "100637.725000", "100639.215000", "100640.705000", "100642.195000", "100643.685000", "100645.175000", "100646.665000", "100648.155000", "100649.645000", "100651.135000", "100652.625000", "100654.115000", "100655.605000", "100657.095000", "100658.585000", "100700.075000", "100701.565000", "100703.055000", "100704.545000", "100706.035000", "100707.525000", "100709.015000", "100710.505000", "100711.995000", "100713.485000", "100714.975000", "100716.465000", "100717.955000", "100719.445000", "100720.935000", "100722.425000", "100723.915000", "100725.405000", "100726.895000", "100728.385000", "100729.875000", "100731.365000", "100732.855000", "100734.345000", "100735.835000", "100737.325000", "100738.815000", "100740.305000", "100741.795000", "100743.285000", "100744.775000", "100746.265000", "100747.755000", "100749.245000", "100750.735000", "100752.225000", "100753.715000", "100755.205000", "100756.695000", "100758.185000", "100759.675000", "100801.165000", "100802.655000", "100804.145000", "100805.635000", "100807.125000", "100808.615000", "100810.105000", "100811.595000", "100813.085000", "100814.575000", "100816.065000", "100817.555000", "100819.045000", "100820.535000", "100822.025000", "100823.515000", "100825.005000", "100826.495000", "100827.985000", "100829.475000", "100830.965000", "100832.455000", "100833.945000", "100835.435000", "100836.925000", "100838.415000", "100839.905000", "100841.395000"],
      "ContentTime": ["095752.730000", "095752.733000", "095752.746000", "095752.749000", "095752.758000", "095752.761000", "095752.764000", "095752.767000", "095752.769000", "095752.772000", "095752.775000", "095752.778000", "095752.781000", "095752.784000", "095752.787000", "095752.790000", "095752.793000", "095752.803000", "095752.805000", "095752.808000", "095812.695000", "095812.698000", "095812.701000", "095812.704000", "095812.707000", "095812.710000", "095812.712000", "095812.715000", "095812.718000", "095812.721000", "095812.724000", "095812.735000", "095812.738000", "095812.741000", "095812.744000", "095812.746000", "095812.749000", "095812.752000", "095812.755000", "095812.758000", "095832.694000", "095832.697000", "095832.700000", "095832.703000", "095832.706000", "095832.708000", "095832.711000", "095832.714000", "095832.717000", "095832.720000", "095832.723000", "095832.737000", "095832.740000", "095832.743000", "095832.746000", "095832.749000", "095832.752000", "095832.755000", "095832.757000", "095832.760000", "095852.694000", "095852.697000", "095852.700000", "095852.703000", "095852.706000", "095852.709000", "095852.712000", "095852.715000", "095852.718000", "095852.720000", "095852.724000", "095852.726000", "095852.729000", "095852.732000", "095852.735000", "095852.738000", "095852.741000", "095852.744000", "095852.747000", "095852.750000", "095852.752000", "095912.694000", "095912.697000", "095912.700000", "095912.703000", "095912.706000", "095912.709000", "095912.712000", "095912.715000", "095912.717000", "095912.721000", "095912.723000", "095912.726000", "095912.729000", "095912.732000", "095912.735000", "095912.738000", "095912.741000", "095912.750000", "095912.753000", "095912.756000", "095952.694000", "095952.697000", "095952.700000", "095952.703000", "095952.706000", "095952.709000", "095952.712000", "095952.715000", "095952.718000", "095952.720000", "095952.723000", "095952.726000", "095952.729000", "095952.732000", "095952.735000", "095952.738000", "095952.741000", "095952.744000", "095952.747000", "095952.750000", "095952.753000", "095952.756000", "095952.759000", "095952.762000", "095952.765000", "095952.767000", "095952.770000", "095952.773000", "095952.776000", "100032.695000", "100032.698000", "100032.701000", "100032.704000", "100032.707000", "100032.710000", "100032.713000", "100032.716000", "100032.719000", "100032.722000", "100032.724000", "100032.727000", "100032.730000", "100032.733000", "100032.736000", "100032.739000", "100032.742000", "100032.745000", "100032.748000", "100032.751000", "100032.754000", "100032.757000", "100032.760000", "100032.763000", "100032.766000", "100032.768000", "100032.771000", "100112.694000", "100112.697000", "100112.700000", "100112.703000", "100112.706000", "100112.709000", "100112.711000", "100112.714000", "100112.717000", "100112.720000", "100112.723000", "100112.726000", "100112.729000", "100112.732000", "100112.735000", "100112.738000", "100112.741000", "100112.744000", "100112.747000", "100112.750000", "100112.753000", "100112.756000", "100112.759000", "100112.761000", "100112.764000", "100112.767000", "100112.770000", "100152.694000", "100152.697000", "100152.700000", "100152.703000", "100152.706000", "100152.709000", "100152.712000", "100152.715000", "100152.717000", "100152.720000", "100152.723000", "100152.726000", "100152.729000", "100152.732000", "100152.735000", "100152.738000", "100152.741000", "100152.744000", "100152.746000", "100152.749000", "100152.752000", "100152.761000", "100152.764000", "100152.767000", "100152.770000", "100152.773000", "100152.785000", "100232.694000", "100232.697000", "100232.700000", "100232.703000", "100232.706000", "100232.709000", "100232.712000", "100232.715000", "100232.718000", "100232.721000", "100232.724000", "100232.727000", "100232.730000", "100232.733000", "100232.736000", "100232.739000", "100232.742000", "100232.745000", "100232.748000", "100232.751000", "100232.753000", "100232.757000", "100232.760000", "100232.763000", "100232.766000", "100232.769000", "100232.772000", "100312.694000", "100312.702000", "100312.705000", "100312.708000", "100312.711000", "100312.714000", "100312.716000", "100312.719000", "100312.722000", "100312.731000", "100312.733000", "100312.736000", "100312.739000", "100312.742000", "100312.745000", "100312.748000", "100312.751000", "100312.754000", "100312.757000", "100312.760000", "100312.763000", "100312.766000", "100312.769000", "100312.772000", "100312.775000", "100312.777000", "100312.780000", "100352.694000", "100352.697000", "100352.700000", "100352.703000", "100352.706000", "100352.709000", "100352.712000", "100352.715000", "100352.718000", "100352.721000", "100352.724000", "100352.727000", "100352.729000", "100352.732000", "100352.735000", "100352.738000", "100352.741000", "100352.744000", "100352.747000", "100352.750000", "100352.753000", "100352.756000", "100352.759000", "100352.762000", "100352.765000", "100352.768000", "100432.694000", "100432.697000", "100432.700000", "100432.703000", "100432.706000", "100432.709000", "100432.712000", "100432.715000", "100432.718000", "100432.721000", "100432.724000", "100432.727000", "100432.730000", "100432.732000", "100432.735000", "100432.738000", "100432.741000", "100432.744000", "100432.747000", "100432.750000", "100432.753000", "100432.756000", "100432.759000", "100432.762000", "100432.765000", "100432.768000", "100432.771000", "100512.695000", "100512.698000", "100512.701000", "100512.704000", "100512.707000", "100512.710000", "100512.713000", "100512.716000", "100512.719000", "100512.722000", "100512.725000", "100512.728000", "100512.731000", "100512.734000", "100512.737000", "100512.740000", "100512.743000", "100512.746000", "100512.749000", "100512.752000", "100512.755000", "100512.758000", "100512.761000", "100512.764000", "100512.767000", "100512.770000", "100512.773000", "100552.694000", "100552.697000", "100552.700000", "100552.703000", "100552.706000", "100552.709000", "100552.712000", "100552.715000", "100552.718000", "100552.721000", "100552.724000", "100552.727000", "100552.730000", "100552.733000", "100552.736000", "100552.739000", "100552.742000", "100552.744000", "100552.748000", "100552.750000", "100552.754000", "100552.756000", "100552.760000", "100552.762000", "100552.765000", "100552.768000", "100552.771000", "100632.694000", "100632.697000", "100632.700000", "100632.703000", "100632.706000", "100632.709000", "100632.712000", "100632.715000", "100632.718000", "100632.721000", "100632.724000", "100632.727000", "100632.730000", "100632.733000", "100632.736000", "100632.739000", "100632.742000", "100632.745000", "100632.748000", "100632.751000", "100632.754000", "100632.757000", "100632.759000", "100632.762000", "100632.765000", "100632.768000", "100632.772000", "100712.694000", "100712.697000", "100712.700000", "100712.703000", "100712.706000", "100712.709000", "100712.712000", "100712.715000", "100712.718000", "100712.721000", "100712.724000", "100712.727000", "100712.730000", "100712.733000", "100712.735000", "100712.738000", "100712.741000", "100712.744000", "100712.747000", "100712.771000", "100712.774000", "100712.777000", "100712.780000", "100712.783000", "100712.786000", "100712.788000", "100712.791000", "100752.695000", "100752.699000", "100752.703000", "100752.706000", "100752.710000", "100752.713000", "100752.716000", "100752.719000", "100752.722000", "100752.725000", "100752.728000", "100752.731000", "100752.734000", "100752.737000", "100752.740000", "100752.743000", "100752.746000", "100752.749000", "100752.752000", "100752.755000", "100752.758000", "100752.761000", "100752.764000", "100752.767000", "100752.770000", "100752.773000", "100832.694000", "100832.697000", "100832.700000", "100832.703000", "100832.706000", "100832.709000", "100832.712000", "100832.715000", "100832.718000", "100832.721000", "100832.724000", "100832.727000", "100832.730000", "100832.733000", "100832.736000", "100832.739000", "100832.742000", "100832.745000", "100832.748000", "100832.751000", "100832.754000", "100832.757000", "100832.760000", "100832.763000", "100832.765000", "100832.768000", "100832.771000", "100843.436000", "100843.440000", "100843.454000", "100843.457000", "100843.460000", "100843.463000", "100843.466000", "100843.469000"],
