{
  "AcquisitionMatrixPE": 104,
  "AcquisitionNumber": 1,
  "AcquisitionTime": "09:33:15.587500",
  "BandwidthPerPixelPhaseEncode": 17.17,
  "BaseResolution": 104,
  "BodyPartExamined": "BRAIN",
  "CoilString": "HC1-7;NC1_2",
  "ConsistencyInfo": "N4_VE11C_LATEST_20160120",
  "ConversionSoftware": "dcm2niix",
  "ConversionSoftwareVersion": "v1.0.20190902",
  "DerivedVendorReportedEchoSpacing": 0.000560011,
  "DeviceSerialNumber": "167006",
  "DwellTime": 2.1e-06,
  "EchoTime": 0.037,
  "EchoTrainLength": 104,
  "EffectiveEchoSpacing": 0.000560011,
  "FlipAngle": 52,
  "ImageComments": "Unaliased_MB4_PE3_LB",
  "ImageOrientationPatientDICOM": [0.999513, 0.0107008, 0.0293064, 0.0010467, 0.92731, -0.374293],
  "ImageType": [
    "ORIGINAL",
    "PRIMARY",
    "M",
    "MB",
    "ND",
    "MOSAIC"
],
  "ImagingFrequency": 123.259,
  "InPlanePhaseEncodingDirectionDICOM": "COL",
  "InstitutionAddress": "Chemin_Queen-Mary_4565_Montreal_District_CA_H3W_1W5",
  "InstitutionName": "IUGM",
  "InstitutionalDepartmentName": "Department",
  "MRAcquisitionType": "2D",
  "MagneticFieldStrength": 3,
  "Manufacturer": "Siemens",
  "ManufacturersModelName": "Prisma_fit",
  "Modality": "MR",
  "MultibandAccelerationFactor": 4,
  "PartialFourier": 1,
  "PatientPosition": "HFS",
  "PercentPhaseFOV": 100,
  "PhaseEncodingDirection": "j",
  "PhaseEncodingSteps": 104,
  "PhaseResolution": 1,
  "PixelBandwidth": 2290,
  "ProcedureStepDescription": "video_friends",
  "ProtocolName": "func_task-friends-s04e15a",
  "PulseSequenceDetails": "%CustomerSeq%_cmrr_mbep2d_bold",
  "ReceiveCoilActiveElements": "HC1-7;NC1,2",
  "ReceiveCoilName": "HeadNeck_64",
  "ReconMatrixPE": 104,
  "RepetitionTime": 1.49,
  "SAR": 0.0399709,
  "ScanOptions": "FS",
  "ScanningSequence": "EP",
  "SequenceName": "epfid2d1_104",
  "SequenceVariant": "SK_SS",
  "SeriesDescription": "func_task-friends-s04e15a",
  "SeriesNumber": 9,
  "ShimSetting": [636, -7174, -8839, 628, 77, 31, 34, -3],
  "SliceThickness": 2,
  "SliceTiming": [0, 0.785, 0.0975, 0.8825, 0.195, 0.98, 0.295, 1.0775, 0.3925, 1.175, 0.49, 1.275, 0.5875, 1.3725, 0.685, 0, 0.785, 0.0975, 0.8825, 0.195, 0.98, 0.295, 1.0775, 0.3925, 1.175, 0.49, 1.275, 0.5875, 1.3725, 0.685, 0, 0.785, 0.0975, 0.8825, 0.195, 0.98, 0.295, 1.0775, 0.3925, 1.175, 0.49, 1.275, 0.5875, 1.3725, 0.685, 0, 0.785, 0.0975, 0.8825, 0.195, 0.98, 0.295, 1.0775, 0.3925, 1.175, 0.49, 1.275, 0.5875, 1.3725, 0.685],
  "SoftwareVersions": "syngo_MR_E11",
  "SpacingBetweenSlices": 2,
  "StationName": "MRC35049",
  "TaskName": "s04e15a",
  "TotalReadoutTime": 0.0576811,
  "TxRefAmp": 249.243,
  "WipMemBlock": "48d0111c-f0d6-44c8-8077-42800a3ad2fb||Sequence: R016 ve11c/master r/e634e98; Dec 19 2017 11:00:25 by eja",
  "dcmmeta_affine": [
    [-1.9990264177322388, 0.0020934008061885834, 0.062362778931856155, 101.51598358154297],
    [-0.02140168473124504, 1.8546198606491089, -0.7482829093933105, -66.1766586303711],
    [0.058612849563360214, 0.7485859394073486, 1.8536946773529053, -65.18729400634766],
    [0.0, 0.0, 0.0, 1.0]
],
  "dcmmeta_reorient_transform": [
    [0.0, -1.0, 0.0, 103.0],
    [1.0, 0.0, 0.0, 0.0],
    [0.0, 0.0, 1.0, 0.0],
    [0.0, 0.0, 0.0, 1.0]
],
  "dcmmeta_shape": [104, 104, 60, 444],
  "dcmmeta_slice_dim": 2,
  "dcmmeta_version": 0.6,
  "global": {
    "const": {
      "AcquisitionMatrix": [104, 0, 0, 104],
      "AngioFlag": "N",
      "BitsAllocated": 16,
      "BitsStored": 16,
      "BodyPartExamined": "BRAIN",
      "Columns": 832,
      "EchoNumbers": 1,
      "EchoTime": 37.0,
      "EchoTrainLength": 104,
      "FlipAngle": 52.0,
      "HighBit": 15,
      "ImageOrientationPatient": [0.99951319423135, 0.0107008426841, 0.02930642460787, 0.0010467004481, 0.92730991767016, -0.3742929614737],
      "ImagePositionPatient": [-830.1392048804, -807.72102080628, 263.06725463549],
      "ImageType": [
        "ORIGINAL",
        "PRIMARY",
        "M",
        "MB",
        "ND",
        "MOSAIC"
],
      "ImagedNucleus": "1H",
      "ImagingFrequency": 123.258988,
      "InPlanePhaseEncodingDirection": "COL",
      "MRAcquisitionType": "2D",
      "MagneticFieldStrength": 3.0,
      "Manufacturer": "SIEMENS",
      "ManufacturerModelName": "Prisma_fit",
      "Modality": "MR",
      "NumberOfAverages": 1.0,
      "NumberOfPhaseEncodingSteps": 104,
      "PercentPhaseFieldOfView": 100.0,
      "PercentSampling": 100.0,
      "PerformedProcedureStepStartTime": "091017.305000",
      "PhotometricInterpretation": "MONOCHROME2",
      "PixelBandwidth": 2290.0,
      "PixelRepresentation": 0,
      "PixelSpacing": [2.0, 2.0],
      "ProtocolName": "func_task-friends-s04e15a",
      "RepetitionTime": 1490.0,
      "Rows": 832,
      "SAR": 0.03997088687306,
      "SamplesPerPixel": 1,
      "ScanOptions": "FS",
      "ScanningSequence": "EP",
      "SequenceName": "epfid2d1_104",
      "SequenceVariant": [
        "SK",
        "SS"
],
      "SeriesDescription": "func_task-friends-s04e15a",
      "SeriesNumber": 9,
      "SeriesTime": "093433.802000",
      "SliceLocation": -32.493829751329,
      "SliceThickness": 2.0,
      "SmallestImagePixelValue": 0,
      "SoftwareVersions": "syngo MR E11",
      "SpacingBetweenSlices": 2.0000000624447,
      "SpecificCharacterSet": "ISO_IR 100",
      "StudyID": "1",
      "StudyTime": "091017.145000",
      "TransmitCoilName": "Body",
      "VariableFlipAngleFlag": "N",
      "WindowCenterWidthExplanation": "Algo1",
      "dBdt": 0.0},
    "slices": {}
  },
  "time": {
    "samples": {
      "AcquisitionNumber": [1, 2, 3, 4, 5, 6, 7, 8, 9, 10, 11, 12, 13, 14, 15, 16, 17, 18, 19, 20, 21, 22, 23, 24, 25, 26, 27, 28, 29, 30, 31, 32, 33, 34, 35, 36, 37, 38, 39, 40, 41, 42, 43, 44, 45, 46, 47, 48, 49, 50, 51, 52, 53, 54, 55, 56, 57, 58, 59, 60, 61, 62, 63, 64, 65, 66, 67, 68, 69, 70, 71, 72, 73, 74, 75, 76, 77, 78, 79, 80, 81, 82, 83, 84, 85, 86, 87, 88, 89, 90, 91, 92, 93, 94, 95, 96, 97, 98, 99, 100, 101, 102, 103, 104, 105, 106, 107, 108, 109, 110, 111, 112, 113, 114, 115, 116, 117, 118, 119, 120, 121, 122, 123, 124, 125, 126, 127, 128, 129, 130, 131, 132, 133, 134, 135, 136, 137, 138, 139, 140, 141, 142, 143, 144, 145, 146, 147, 148, 149, 150, 151, 152, 153, 154, 155, 156, 157, 158, 159, 160, 161, 162, 163, 164, 165, 166, 167, 168, 169, 170, 171, 172, 173, 174, 175, 176, 177, 178, 179, 180, 181, 182, 183, 184, 185, 186, 187, 188, 189, 190, 191, 192, 193, 194, 195, 196, 197, 198, 199, 200, 201, 202, 203, 204, 205, 206, 207, 208, 209, 210, 211, 212, 213, 214, 215, 216, 217, 218, 219, 220, 221, 222, 223, 224, 225, 226, 227, 228, 229, 230, 231, 232, 233, 234, 235, 236, 237, 238, 239, 240, 241, 242, 243, 244, 245, 246, 247, 248, 249, 250, 251, 252, 253, 254, 255, 256, 257, 258, 259, 260, 261, 262, 263, 264, 265, 266, 267, 268, 269, 270, 271, 272, 273, 274, 275, 276, 277, 278, 279, 280, 281, 282, 283, 284, 285, 286, 287, 288, 289, 290, 291, 292, 293, 294, 295, 296, 297, 298, 299, 300, 301, 302, 303, 304, 305, 306, 307, 308, 309, 310, 311, 312, 313, 314, 315, 316, 317, 318, 319, 320, 321, 322, 323, 324, 325, 326, 327, 328, 329, 330, 331, 332, 333, 334, 335, 336, 337, 338, 339, 340, 341, 342, 343, 344, 345, 346, 347, 348, 349, 350, 351, 352, 353, 354, 355, 356, 357, 358, 359, 360, 361, 362, 363, 364, 365, 366, 367, 368, 369, 370, 371, 372, 373, 374, 375, 376, 377, 378, 379, 380, 381, 382, 383, 384, 385, 386, 387, 388, 389, 390, 391, 392, 393, 394, 395, 396, 397, 398, 399, 400, 401, 402, 403, 404, 405, 406, 407, 408, 409, 410, 411, 412, 413, 414, 415, 416, 417, 418, 419, 420, 421, 422, 423, 424, 425, 426, 427, 428, 429, 430, 431, 432, 433, 434, 435, 436, 437, 438, 439, 440, 441, 442, 443, 444],
      "AcquisitionTime": ["093315.587500", "093317.077500", "093318.567500", "093320.057500", "093321.547500", "093323.037500", "093324.527500", "093326.017500", "093327.507500", "093328.997500", "093330.487500", "093331.977500", "093333.467500", "093334.957500", "093336.447500", "093337.937500", "093339.427500", "093340.917500", "093342.407500", "093343.897500", "093345.387500", "093346.877500", "093348.367500", "093349.857500", "093351.347500", "093352.837500", "093354.327500", "093355.817500", "093357.307500", "093358.797500", "093400.287500", "093401.777500", "093403.267500", "093404.757500", "093406.247500", "093407.737500", "093409.227500", "093410.717500", "093412.207500", "093413.697500", "093415.187500", "093416.677500", "093418.167500", "093419.657500", "093421.147500", "093422.637500", "093424.127500", "093425.617500", "093427.107500", "093428.597500", "093430.087500", "093431.577500", "093433.067500", "093434.557500", "093436.047500", "093437.537500", "093439.027500", "093440.517500", "093442.007500", "093443.497500", "093444.987500", "093446.477500", "093447.967500", "093449.457500", "093450.947500", "093452.437500", "093453.927500", "093455.417500", "093456.907500", "093458.397500", "093459.887500", "093501.377500", "093502.867500", "093504.357500", "093505.847500", "093507.337500", "093508.827500", "093510.317500", "093511.807500", "093513.297500", "093514.787500", "093516.277500", "093517.767500", "093519.257500", "093520.747500", "093522.237500", "093523.727500", "093525.217500", "093526.707500", "093528.197500", "093529.687500", "093531.177500", "093532.667500", "093534.157500", "093535.647500", "093537.137500", "093538.627500", "093540.117500", "093541.607500", "093543.097500", "093544.587500", "093546.077500", "093547.567500", "093549.057500", "093550.547500", "093552.037500", "093553.527500", "093555.017500", "093556.507500", "093557.997500", "093559.487500", "093600.977500", "093602.467500", "093603.957500", "093605.447500", "093606.937500", "093608.427500", "093609.917500", "093611.407500", "093612.897500", "093614.387500", "093615.877500", "093617.367500", "093618.857500", "093620.347500", "093621.837500", "093623.327500", "093624.817500", "093626.307500", "093627.797500", "093629.287500", "093630.777500", "093632.267500", "093633.757500", "093635.247500", "093636.737500", "093638.227500", "093639.717500", "093641.207500", "093642.697500", "093644.187500", "093645.677500", "093647.167500", "093648.657500", "093650.147500", "093651.637500", "093653.127500", "093654.617500", "093656.107500", "093657.597500", "093659.087500", "093700.577500", "093702.067500", "093703.557500", "093705.047500", "093706.537500", "093708.027500", "093709.517500", "093711.007500", "093712.497500", "093713.987500", "093715.477500", "093716.967500", "093718.457500", "093719.947500", "093721.437500", "093722.927500", "093724.417500", "093725.907500", "093727.397500", "093728.887500", "093730.377500", "093731.867500", "093733.357500", "093734.847500", "093736.337500", "093737.827500", "093739.317500", "093740.807500", "093742.297500", "093743.787500", "093745.277500", "093746.767500", "093748.257500", "093749.747500", "093751.237500", "093752.727500", "093754.217500", "093755.707500", "093757.197500", "093758.687500", "093800.177500", "093801.667500", "093803.157500", "093804.647500", "093806.137500", "093807.627500", "093809.117500", "093810.607500", "093812.097500", "093813.587500", "093815.077500", "093816.567500", "093818.057500", "093819.547500", "093821.037500", "093822.527500", "093824.017500", "093825.507500", "093826.997500", "093828.487500", "093829.977500", "093831.467500", "093832.957500", "093834.447500", "093835.937500", "093837.427500", "093838.917500", "093840.407500", "093841.897500", "093843.387500", "093844.877500", "093846.367500", "093847.857500", "093849.347500", "093850.837500", "093852.327500", "093853.817500", "093855.307500", "093856.797500", "093858.287500", "093859.777500", "093901.267500", "093902.757500", "093904.247500", "093905.737500", "093907.227500", "093908.717500", "093910.207500", "093911.697500", "093913.187500", "093914.677500", "093916.167500", "093917.657500", "093919.147500", "093920.637500", "093922.127500", "093923.617500", "093925.107500", "093926.597500", "093928.087500", "093929.577500", "093931.067500", "093932.557500", "093934.047500", "093935.537500", "093937.027500", "093938.517500", "093940.007500", "093941.497500", "093942.987500", "093944.477500", "093945.967500", "093947.457500", "093948.947500", "093950.437500", "093951.927500", "093953.417500", "093954.907500", "093956.397500", "093957.887500", "093959.377500", "094000.867500", "094002.357500", "094003.847500", "094005.337500", "094006.827500", "094008.317500", "094009.807500", "094011.297500", "094012.787500", "094014.277500", "094015.767500", "094017.257500", "094018.747500", "094020.237500", "094021.727500", "094023.217500", "094024.707500", "094026.197500", "094027.687500", "094029.177500", "094030.667500", "094032.157500", "094033.647500", "094035.137500", "094036.627500", "094038.117500", "094039.607500", "094041.097500", "094042.587500", "094044.077500", "094045.567500", "094047.057500", "094048.547500", "094050.037500", "094051.527500", "094053.017500", "094054.507500", "094055.997500", "094057.487500", "094058.977500", "094100.467500", "094101.957500", "094103.447500", "094104.937500", "094106.427500", "094107.917500", "094109.407500", "094110.897500", "094112.387500", "094113.877500", "094115.367500", "094116.857500", "094118.347500", "094119.837500", "094121.327500", "094122.817500", "094124.307500", "094125.797500", "094127.287500", "094128.777500", "094130.267500", "094131.757500", "094133.247500", "094134.737500", "094136.227500", "094137.717500", "094139.207500", "094140.697500", "094142.187500", "094143.677500", "094145.167500", "094146.657500", "094148.147500", "094149.637500", "094151.127500", "094152.617500", "094154.107500", "094155.597500", "094157.087500", "094158.577500", "094200.067500", "094201.557500", "094203.047500", "094204.537500", "094206.027500", "094207.517500", "094209.007500", "094210.497500", "094211.987500", "094213.477500", "094214.967500", "094216.457500", "094217.947500", "094219.437500", "094220.927500", "094222.417500", "094223.907500", "094225.397500", "094226.887500", "094228.377500", "094229.867500", "094231.357500", "094232.847500", "094234.337500", "094235.827500", "094237.317500", "094238.807500", "094240.297500", "094241.787500", "094243.277500", "094244.767500", "094246.257500", "094247.747500", "094249.237500", "094250.727500", "094252.217500", "094253.707500", "094255.197500", "094256.687500", "094258.177500", "094259.667500", "094301.157500", "094302.647500", "094304.137500", "094305.627500", "094307.117500", "094308.607500", "094310.097500", "094311.587500", "094313.077500", "094314.567500", "094316.057500", "094317.547500", "094319.037500", "094320.527500", "094322.017500", "094323.507500", "094324.997500", "094326.487500", "094327.977500", "094329.467500", "094330.957500", "094332.447500", "094333.937500", "094335.427500", "094336.917500", "094338.407500", "094339.897500", "094341.387500", "094342.877500", "094344.367500", "094345.857500", "094347.347500", "094348.837500", "094350.327500", "094351.817500", "094353.307500", "094354.797500", "094356.287500", "094357.777500", "094359.267500", "094400.757500", "094402.247500", "094403.737500", "094405.227500", "094406.717500", "094408.207500", "094409.697500", "094411.187500", "094412.677500", "094414.167500", "094415.657500"],
      "ContentTime": ["093433.804000", "093433.808000", "093433.811000", "093433.814000", "093433.816000", "093433.819000", "093433.822000", "093433.825000", "093433.828000", "093433.831000", "093433.834000", "093433.837000", "093433.840000", "093433.843000", "093433.845000", "093433.848000", "093433.851000", "093433.860000", "093433.863000", "093433.866000", "093433.869000", "093433.872000", "093513.773000", "093513.777000", "093513.780000", "093513.783000", "093513.786000", "093513.789000", "093513.791000", "093513.794000", "093513.797000", "093513.800000", "093513.803000", "093513.806000", "093513.809000", "093513.812000", "093513.815000", "093513.817000", "093513.820000", "093513.823000", "093513.826000", "093513.829000", "093513.832000", "093513.836000", "093513.839000", "093513.842000", "093513.845000", "093513.848000", "093513.851000", "093513.854000", "093513.857000", "093513.860000", "093513.863000", "093513.866000", "093513.869000", "093513.872000", "093513.875000", "093513.878000", "093513.881000", "093513.884000", "093513.886000", "093533.773000", "093533.776000", "093533.779000", "093533.782000", "093533.785000", "093533.788000", "093533.790000", "093533.793000", "093533.796000", "093533.799000", "093533.802000", "093533.805000", "093533.808000", "093533.811000", "093533.813000", "093533.816000", "093533.819000", "093533.822000", "093533.825000", "093533.828000", "093553.772000", "093553.775000", "093553.778000", "093553.781000", "093553.784000", "093553.786000", "093553.789000", "093553.792000", "093553.795000", "093553.798000", "093553.801000", "093553.804000", "093553.807000", "093553.810000", "093553.813000", "093553.815000", "093553.818000", "093553.821000", "093553.824000", "093553.827000", "093633.772000", "093633.775000", "093633.778000", "093633.781000", "093633.784000", "093633.787000", "093633.790000", "093633.793000", "093633.796000", "093633.799000", "093633.801000", "093633.804000", "093633.807000", "093633.810000", "093633.813000", "093633.816000", "093633.819000", "093633.822000", "093633.825000", "093633.827000", "093633.830000", "093633.833000", "093633.836000", "093633.839000", "093633.842000", "093633.845000", "093633.848000", "093633.851000", "093633.853000", "093633.856000", "093633.859000", "093713.773000", "093713.776000", "093713.779000", "093713.782000", "093713.785000", "093713.788000", "093713.791000", "093713.794000", "093713.798000", "093713.801000", "093713.804000", "093713.807000", "093713.810000", "093713.813000", "093713.816000", "093713.819000", "093713.821000", "093713.824000", "093713.827000", "093713.830000", "093713.833000", "093713.836000", "093713.839000", "093713.842000", "093713.845000", "093713.848000", "093713.851000", "093753.773000", "093753.776000", "093753.779000", "093753.782000", "093753.784000", "093753.787000", "093753.790000", "093753.793000", "093753.796000", "093753.799000", "093753.802000", "093753.805000", "093753.808000", "093753.811000", "093753.814000", "093753.816000", "093753.819000", "093753.822000", "093753.825000", "093753.828000", "093753.831000", "093753.834000", "093753.837000", "093753.840000", "093753.846000", "093753.849000", "093753.852000", "093833.772000", "093833.775000", "093833.778000", "093833.781000", "093833.784000", "093833.787000", "093833.790000", "093833.792000", "093833.795000", "093833.798000", "093833.801000", "093833.804000", "093833.807000", "093833.810000", "093833.813000", "093833.816000", "093833.819000", "093833.822000", "093833.824000", "093833.827000", "093833.830000", "093833.833000", "093833.836000", "093833.839000", "093833.842000", "093833.845000", "093913.772000", "093913.775000", "093913.778000", "093913.781000", "093913.784000", "093913.787000", "093913.790000", "093913.793000", "093913.796000", "093913.813000", "093913.816000", "093913.819000", "093913.822000", "093913.825000", "093913.828000", "093913.831000", "093913.834000", "093913.837000", "093913.840000", "093913.843000", "093913.846000", "093913.849000", "093913.852000", "093913.855000", "093913.857000", "093913.861000", "093913.863000", "093953.773000", "093953.776000", "093953.779000", "093953.782000", "093953.785000", "093953.788000", "093953.790000", "093953.793000", "093953.803000", "093953.806000", "093953.809000", "093953.812000", "093953.815000", "093953.818000", "093953.821000", "093953.824000", "093953.827000", "093953.830000", "093953.832000", "093953.835000", "093953.838000", "093953.841000", "093953.844000", "093953.847000", "093953.850000", "093953.863000", "093953.866000", "094033.772000", "094033.775000", "094033.778000", "094033.781000", "094033.784000", "094033.787000", "094033.790000", "094033.793000", "094033.796000", "094033.799000", "094033.802000", "094033.804000", "094033.807000", "094033.810000", "094033.813000", "094033.816000", "094033.819000", "094033.822000", "094033.825000", "094033.828000", "094033.830000", "094033.833000", "094033.836000", "094033.839000", "094033.842000", "094033.845000", "094033.848000", "094113.772000", "094113.775000", "094113.778000", "094113.781000", "094113.784000", "094113.787000", "094113.790000", "094113.793000", "094113.796000", "094113.798000", "094113.801000", "094113.804000", "094113.807000", "094113.810000", "094113.813000", "094113.816000", "094113.819000", "094113.822000", "094113.825000", "094113.828000", "094113.830000", "094113.833000", "094113.836000", "094113.839000", "094113.842000", "094113.845000", "094113.848000", "094153.774000", "094153.777000", "094153.780000", "094153.782000", "094153.785000", "094153.788000", "094153.791000", "094153.794000", "094153.797000", "094153.800000", "094153.803000", "094153.806000", "094153.809000", "094153.812000", "094153.815000", "094153.817000", "094153.820000", "094153.823000", "094153.828000", "094153.831000", "094153.834000", "094153.837000", "094153.840000", "094153.843000", "094153.846000", "094153.849000", "094153.852000", "094233.773000", "094233.776000", "094233.779000", "094233.782000", "094233.785000", "094233.788000", "094233.791000", "094233.794000", "094233.797000", "094233.800000", "094233.803000", "094233.806000", "094233.809000", "094233.812000", "094233.814000", "094233.817000", "094233.820000", "094233.823000", "094233.826000", "094233.829000", "094233.832000", "094233.835000", "094233.838000", "094233.841000", "094233.844000", "094233.847000", "094313.772000", "094313.775000", "094313.778000", "094313.781000", "094313.784000", "094313.787000", "094313.790000", "094313.793000", "094313.796000", "094313.799000", "094313.802000", "094313.805000", "094313.807000", "094313.810000", "094313.813000", "094313.816000", "094313.819000", "094313.822000", "094313.825000", "094313.839000", "094313.842000", "094313.845000", "094313.854000", "094313.857000", "094313.860000", "094313.863000", "094313.866000", "094353.772000", "094353.775000", "094353.778000", "094353.781000", "094353.784000", "094353.787000", "094353.790000", "094353.793000", "094353.796000", "094353.799000", "094353.802000", "094353.805000", "094353.807000", "094353.810000", "094353.813000", "094353.816000", "094353.819000", "094353.822000", "094353.825000", "094353.828000", "094353.831000", "094353.834000", "094353.836000", "094353.839000", "094353.842000", "094353.845000", "094353.848000", "094418.236000", "094418.240000", "094418.243000", "094418.246000", "094418.249000", "094418.253000", "094418.256000", "094418.259000", "094418.262000", "094418.265000", "094418.268000", "094418.271000", "094418.274000", "094418.277000", "094418.279000", "094418.282000", "094418.285000"],
