{
  "AcquisitionMatrixPE": 104,
  "AcquisitionNumber": 1,
  "AcquisitionTime": "10:22:29.680000",
  "BandwidthPerPixelPhaseEncode": 17.17,
  "BaseResolution": 104,
  "BodyPartExamined": "BRAIN",
  "CoilString": "HC1-7;NC1_2",
  "ConsistencyInfo": "N4_VE11C_LATEST_20160120",
  "ConversionSoftware": "dcm2niix",
  "ConversionSoftwareVersion": "v1.0.20190902",
  "DerivedVendorReportedEchoSpacing": 0.000560011,
  "DeviceSerialNumber": "167006",
  "DwellTime": 2.1e-06,
  "EchoTime": 0.037,
  "EchoTrainLength": 104,
  "EffectiveEchoSpacing": 0.000560011,
  "FlipAngle": 52,
  "ImageComments": "Unaliased_MB4_PE3_LB",
  "ImageOrientationPatientDICOM": [0.999513, 0.0107008, 0.0293064, 0.0010467, 0.92731, -0.374293],
  "ImageType": [
    "ORIGINAL",
    "PRIMARY",
    "M",
    "MB",
    "ND",
    "MOSAIC"
],
  "ImagingFrequency": 123.259,
  "InPlanePhaseEncodingDirectionDICOM": "COL",
  "InstitutionAddress": "Chemin_Queen-Mary_4565_Montreal_District_CA_H3W_1W5",
  "InstitutionName": "IUGM",
  "InstitutionalDepartmentName": "Department",
  "MRAcquisitionType": "2D",
  "MagneticFieldStrength": 3,
  "Manufacturer": "Siemens",
  "ManufacturersModelName": "Prisma_fit",
  "Modality": "MR",
  "MultibandAccelerationFactor": 4,
  "PartialFourier": 1,
  "PatientPosition": "HFS",
  "PercentPhaseFOV": 100,
  "PhaseEncodingDirection": "j",
  "PhaseEncodingSteps": 104,
  "PhaseResolution": 1,
  "PixelBandwidth": 2290,
  "ProcedureStepDescription": "video_friends",
  "ProtocolName": "func_task-friends-s04e17a",
  "PulseSequenceDetails": "%CustomerSeq%_cmrr_mbep2d_bold",
  "ReceiveCoilActiveElements": "HC1-7;NC1,2",
  "ReceiveCoilName": "HeadNeck_64",
  "ReconMatrixPE": 104,
  "RepetitionTime": 1.49,
  "SAR": 0.0399835,
  "ScanOptions": "FS",
  "ScanningSequence": "EP",
  "SequenceName": "epfid2d1_104",
  "SequenceVariant": "SK_SS",
  "SeriesDescription": "func_task-friends-s04e17a",
  "SeriesNumber": 17,
  "ShimSetting": [636, -7174, -8839, 628, 77, 31, 34, -3],
  "SliceThickness": 2,
  "SliceTiming": [0, 0.785, 0.0975, 0.8825, 0.195, 0.98, 0.295, 1.0775, 0.3925, 1.175, 0.49, 1.275, 0.5875, 1.3725, 0.685, 0, 0.785, 0.0975, 0.8825, 0.195, 0.98, 0.295, 1.0775, 0.3925, 1.175, 0.49, 1.275, 0.5875, 1.3725, 0.685, 0, 0.785, 0.0975, 0.8825, 0.195, 0.98, 0.295, 1.0775, 0.3925, 1.175, 0.49, 1.275, 0.5875, 1.3725, 0.685, 0, 0.785, 0.0975, 0.8825, 0.195, 0.98, 0.295, 1.0775, 0.3925, 1.175, 0.49, 1.275, 0.5875, 1.3725, 0.685],
  "SoftwareVersions": "syngo_MR_E11",
  "SpacingBetweenSlices": 2,
  "StationName": "MRC35049",
  "TaskName": "s04e17a",
  "TotalReadoutTime": 0.0576811,
  "TxRefAmp": 249.243,
  "WipMemBlock": "9fd3dbff-6cc6-4fae-b297-a8f5615e0a55||Sequence: R016 ve11c/master r/e634e98; Dec 19 2017 11:00:25 by eja",
  "dcmmeta_affine": [
    [-1.9990264177322388, 0.0020934008061885834, 0.062362778931856155, 101.51598358154297],
    [-0.02140168473124504, 1.8546198606491089, -0.7482829093933105, -66.1766586303711],
    [0.058612849563360214, 0.7485859394073486, 1.8536946773529053, -65.18729400634766],
    [0.0, 0.0, 0.0, 1.0]
],
  "dcmmeta_reorient_transform": [
    [0.0, -1.0, 0.0, 103.0],
    [1.0, 0.0, 0.0, 0.0],
    [0.0, 0.0, 1.0, 0.0],
    [0.0, 0.0, 0.0, 1.0]
],
  "dcmmeta_shape": [104, 104, 60, 478],
  "dcmmeta_slice_dim": 2,
  "dcmmeta_version": 0.6,
  "global": {
    "const": {
      "AcquisitionMatrix": [104, 0, 0, 104],
      "AngioFlag": "N",
      "BitsAllocated": 16,
      "BitsStored": 16,
      "BodyPartExamined": "BRAIN",
      "Columns": 832,
      "EchoNumbers": 1,
      "EchoTime": 37.0,
      "EchoTrainLength": 104,
      "FlipAngle": 52.0,
      "HighBit": 15,
      "ImageOrientationPatient": [0.99951319423135, 0.0107008426841, 0.02930642460787, 0.0010467004481, 0.92730991767016, -0.3742929614737],
      "ImagePositionPatient": [-830.1392048804, -807.72102080628, 263.06725463549],
      "ImageType": [
        "ORIGINAL",
        "PRIMARY",
        "M",
        "MB",
        "ND",
        "MOSAIC"
],
      "ImagedNucleus": "1H",
      "ImagingFrequency": 123.259006,
      "InPlanePhaseEncodingDirection": "COL",
      "MRAcquisitionType": "2D",
      "MagneticFieldStrength": 3.0,
      "Manufacturer": "SIEMENS",
      "ManufacturerModelName": "Prisma_fit",
      "Modality": "MR",
      "NumberOfAverages": 1.0,
      "NumberOfPhaseEncodingSteps": 104,
      "PercentPhaseFieldOfView": 100.0,
      "PercentSampling": 100.0,
      "PerformedProcedureStepStartTime": "091017.305000",
      "PhotometricInterpretation": "MONOCHROME2",
      "PixelBandwidth": 2290.0,
      "PixelRepresentation": 0,
      "PixelSpacing": [2.0, 2.0],
      "ProtocolName": "func_task-friends-s04e17a",
      "RepetitionTime": 1490.0,
      "Rows": 832,
      "SAR": 0.03998353336182,
      "SamplesPerPixel": 1,
      "ScanOptions": "FS",
      "ScanningSequence": "EP",
      "SequenceName": "epfid2d1_104",
      "SequenceVariant": [
        "SK",
        "SS"
],
      "SeriesDescription": "func_task-friends-s04e17a",
      "SeriesNumber": 17,
      "SeriesTime": "102352.863000",
      "SliceLocation": -32.493829751329,
      "SliceThickness": 2.0,
      "SmallestImagePixelValue": 0,
      "SoftwareVersions": "syngo MR E11",
      "SpacingBetweenSlices": 2.0000000624447,
      "SpecificCharacterSet": "ISO_IR 100",
      "StudyID": "1",
      "StudyTime": "091017.145000",
      "TransmitCoilName": "Body",
      "VariableFlipAngleFlag": "N",
      "WindowCenterWidthExplanation": "Algo1",
      "dBdt": 0.0},
    "slices": {}
  },
  "time": {
    "samples": {
      "AcquisitionNumber": [1, 2, 3, 4, 5, 6, 7, 8, 9, 10, 11, 12, 13, 14, 15, 16, 17, 18, 19, 20, 21, 22, 23, 24, 25, 26, 27, 28, 29, 30, 31, 32, 33, 34, 35, 36, 37, 38, 39, 40, 41, 42, 43, 44, 45, 46, 47, 48, 49, 50, 51, 52, 53, 54, 55, 56, 57, 58, 59, 60, 61, 62, 63, 64, 65, 66, 67, 68, 69, 70, 71, 72, 73, 74, 75, 76, 77, 78, 79, 80, 81, 82, 83, 84, 85, 86, 87, 88, 89, 90, 91, 92, 93, 94, 95, 96, 97, 98, 99, 100, 101, 102, 103, 104, 105, 106, 107, 108, 109, 110, 111, 112, 113, 114, 115, 116, 117, 118, 119, 120, 121, 122, 123, 124, 125, 126, 127, 128, 129, 130, 131, 132, 133, 134, 135, 136, 137, 138, 139, 140, 141, 142, 143, 144, 145, 146, 147, 148, 149, 150, 151, 152, 153, 154, 155, 156, 157, 158, 159, 160, 161, 162, 163, 164, 165, 166, 167, 168, 169, 170, 171, 172, 173, 174, 175, 176, 177, 178, 179, 180, 181, 182, 183, 184, 185, 186, 187, 188, 189, 190, 191, 192, 193, 194, 195, 196, 197, 198, 199, 200, 201, 202, 203, 204, 205, 206, 207, 208, 209, 210, 211, 212, 213, 214, 215, 216, 217, 218, 219, 220, 221, 222, 223, 224, 225, 226, 227, 228, 229, 230, 231, 232, 233, 234, 235, 236, 237, 238, 239, 240, 241, 242, 243, 244, 245, 246, 247, 248, 249, 250, 251, 252, 253, 254, 255, 256, 257, 258, 259, 260, 261, 262, 263, 264, 265, 266, 267, 268, 269, 270, 271, 272, 273, 274, 275, 276, 277, 278, 279, 280, 281, 282, 283, 284, 285, 286, 287, 288, 289, 290, 291, 292, 293, 294, 295, 296, 297, 298, 299, 300, 301, 302, 303, 304, 305, 306, 307, 308, 309, 310, 311, 312, 313, 314, 315, 316, 317, 318, 319, 320, 321, 322, 323, 324, 325, 326, 327, 328, 329, 330, 331, 332, 333, 334, 335, 336, 337, 338, 339, 340, 341, 342, 343, 344, 345, 346, 347, 348, 349, 350, 351, 352, 353, 354, 355, 356, 357, 358, 359, 360, 361, 362, 363, 364, 365, 366, 367, 368, 369, 370, 371, 372, 373, 374, 375, 376, 377, 378, 379, 380, 381, 382, 383, 384, 385, 386, 387, 388, 389, 390, 391, 392, 393, 394, 395, 396, 397, 398, 399, 400, 401, 402, 403, 404, 405, 406, 407, 408, 409, 410, 411, 412, 413, 414, 415, 416, 417, 418, 419, 420, 421, 422, 423, 424, 425, 426, 427, 428, 429, 430, 431, 432, 433, 434, 435, 436, 437, 438, 439, 440, 441, 442, 443, 444, 445, 446, 447, 448, 449, 450, 451, 452, 453, 454, 455, 456, 457, 458, 459, 460, 461, 462, 463, 464, 465, 466, 467, 468, 469, 470, 471, 472, 473, 474, 475, 476, 477, 478],
      "AcquisitionTime": ["102229.680000", "102231.170000", "102232.660000", "102234.150000", "102235.640000", "102237.130000", "102238.620000", "102240.110000", "102241.600000", "102243.090000", "102244.580000", "102246.070000", "102247.560000", "102249.050000", "102250.540000", "102252.030000", "102253.520000", "102255.010000", "102256.500000", "102257.990000", "102259.480000", "102300.970000", "102302.460000", "102303.950000", "102305.440000", "102306.930000", "102308.420000", "102309.910000", "102311.400000", "102312.890000", "102314.380000", "102315.870000", "102317.360000", "102318.850000", "102320.340000", "102321.830000", "102323.320000", "102324.810000", "102326.300000", "102327.790000", "102329.280000", "102330.770000", "102332.260000", "102333.750000", "102335.240000", "102336.730000", "102338.220000", "102339.710000", "102341.200000", "102342.690000", "102344.180000", "102345.670000", "102347.160000", "102348.650000", "102350.140000", "102351.630000", "102353.120000", "102354.610000", "102356.100000", "102357.590000", "102359.080000", "102400.570000", "102402.060000", "102403.550000", "102405.040000", "102406.530000", "102408.020000", "102409.510000", "102411.000000", "102412.490000", "102413.980000", "102415.470000", "102416.960000", "102418.450000", "102419.940000", "102421.430000", "102422.920000", "102424.410000", "102425.900000", "102427.390000", "102428.880000", "102430.370000", "102431.860000", "102433.350000", "102434.840000", "102436.330000", "102437.820000", "102439.310000", "102440.800000", "102442.290000", "102443.780000", "102445.270000", "102446.760000", "102448.250000", "102449.740000", "102451.230000", "102452.720000", "102454.210000", "102455.700000", "102457.190000", "102458.680000", "102500.170000", "102501.660000", "102503.150000", "102504.640000", "102506.130000", "102507.620000", "102509.110000", "102510.600000", "102512.090000", "102513.580000", "102515.070000", "102516.560000", "102518.050000", "102519.540000", "102521.030000", "102522.520000", "102524.010000", "102525.500000", "102526.990000", "102528.480000", "102529.970000", "102531.460000", "102532.950000", "102534.440000", "102535.930000", "102537.420000", "102538.910000", "102540.400000", "102541.890000", "102543.380000", "102544.870000", "102546.360000", "102547.850000", "102549.340000", "102550.830000", "102552.320000", "102553.810000", "102555.300000", "102556.790000", "102558.280000", "102559.770000", "102601.260000", "102602.750000", "102604.240000", "102605.730000", "102607.220000", "102608.710000", "102610.200000", "102611.690000", "102613.180000", "102614.670000", "102616.160000", "102617.650000", "102619.140000", "102620.630000", "102622.120000", "102623.610000", "102625.100000", "102626.590000", "102628.080000", "102629.570000", "102631.060000", "102632.550000", "102634.040000", "102635.530000", "102637.020000", "102638.510000", "102640.000000", "102641.490000", "102642.980000", "102644.470000", "102645.960000", "102647.450000", "102648.940000", "102650.430000", "102651.920000", "102653.410000", "102654.900000", "102656.390000", "102657.880000", "102659.370000", "102700.860000", "102702.350000", "102703.840000", "102705.330000", "102706.820000", "102708.310000", "102709.800000", "102711.290000", "102712.780000", "102714.270000", "102715.760000", "102717.250000", "102718.740000", "102720.230000", "102721.720000", "102723.210000", "102724.700000", "102726.190000", "102727.680000", "102729.170000", "102730.660000", "102732.150000", "102733.640000", "102735.130000", "102736.620000", "102738.110000", "102739.600000", "102741.090000", "102742.580000", "102744.070000", "102745.560000", "102747.050000", "102748.540000", "102750.030000", "102751.520000", "102753.010000", "102754.500000", "102755.990000", "102757.480000", "102758.970000", "102800.460000", "102801.950000", "102803.440000", "102804.930000", "102806.420000", "102807.910000", "102809.400000", "102810.890000", "102812.380000", "102813.870000", "102815.360000", "102816.850000", "102818.340000", "102819.830000", "102821.320000", "102822.810000", "102824.300000", "102825.790000", "102827.280000", "102828.770000", "102830.260000", "102831.750000", "102833.240000", "102834.730000", "102836.220000", "102837.710000", "102839.200000", "102840.690000", "102842.180000", "102843.670000", "102845.160000", "102846.650000", "102848.140000", "102849.630000", "102851.120000", "102852.610000", "102854.100000", "102855.590000", "102857.080000", "102858.570000", "102900.060000", "102901.550000", "102903.040000", "102904.530000", "102906.020000", "102907.510000", "102909.000000", "102910.490000", "102911.980000", "102913.470000", "102914.960000", "102916.450000", "102917.940000", "102919.430000", "102920.920000", "102922.410000", "102923.900000", "102925.390000", "102926.880000", "102928.370000", "102929.860000", "102931.350000", "102932.840000", "102934.330000", "102935.820000", "102937.310000", "102938.800000", "102940.290000", "102941.780000", "102943.270000", "102944.760000", "102946.250000", "102947.740000", "102949.230000", "102950.720000", "102952.210000", "102953.700000", "102955.190000", "102956.680000", "102958.170000", "102959.660000", "103001.150000", "103002.640000", "103004.130000", "103005.620000", "103007.110000", "103008.600000", "103010.090000", "103011.580000", "103013.070000", "103014.560000", "103016.050000", "103017.540000", "103019.030000", "103020.520000", "103022.010000", "103023.500000", "103024.990000", "103026.480000", "103027.970000", "103029.460000", "103030.950000", "103032.440000", "103033.930000", "103035.420000", "103036.910000", "103038.400000", "103039.890000", "103041.380000", "103042.870000", "103044.360000", "103045.850000", "103047.340000", "103048.830000", "103050.320000", "103051.810000", "103053.300000", "103054.790000", "103056.280000", "103057.770000", "103059.260000", "103100.750000", "103102.240000", "103103.730000", "103105.220000", "103106.710000", "103108.200000", "103109.690000", "103111.180000", "103112.670000", "103114.160000", "103115.650000", "103117.140000", "103118.630000", "103120.120000", "103121.610000", "103123.100000", "103124.590000", "103126.080000", "103127.570000", "103129.060000", "103130.550000", "103132.040000", "103133.530000", "103135.020000", "103136.510000", "103138.000000", "103139.490000", "103140.980000", "103142.470000", "103143.960000", "103145.450000", "103146.940000", "103148.430000", "103149.920000", "103151.410000", "103152.900000", "103154.390000", "103155.880000", "103157.370000", "103158.860000", "103200.350000", "103201.840000", "103203.330000", "103204.820000", "103206.310000", "103207.800000", "103209.290000", "103210.780000", "103212.270000", "103213.760000", "103215.250000", "103216.740000", "103218.230000", "103219.720000", "103221.210000", "103222.700000", "103224.190000", "103225.680000", "103227.170000", "103228.660000", "103230.150000", "103231.640000", "103233.130000", "103234.620000", "103236.110000", "103237.600000", "103239.090000", "103240.580000", "103242.070000", "103243.560000", "103245.050000", "103246.540000", "103248.030000", "103249.520000", "103251.010000", "103252.500000", "103253.990000", "103255.480000", "103256.970000", "103258.460000", "103259.950000", "103301.440000", "103302.930000", "103304.420000", "103305.910000", "103307.400000", "103308.890000", "103310.380000", "103311.870000", "103313.360000", "103314.850000", "103316.340000", "103317.830000", "103319.320000", "103320.810000", "103322.300000", "103323.790000", "103325.280000", "103326.770000", "103328.260000", "103329.750000", "103331.240000", "103332.730000", "103334.220000", "103335.710000", "103337.200000", "103338.690000", "103340.180000", "103341.670000", "103343.160000", "103344.650000", "103346.140000", "103347.630000", "103349.120000", "103350.610000", "103352.100000", "103353.590000", "103355.080000", "103356.570000", "103358.060000", "103359.550000", "103401.040000", "103402.530000", "103404.020000", "103405.510000", "103407.000000", "103408.490000", "103409.980000", "103411.470000", "103412.960000", "103414.450000", "103415.940000", "103417.430000", "103418.920000", "103420.410000"],
      "ContentTime": ["102352.866000", "102352.869000", "102352.873000", "102352.876000", "102352.878000", "102352.881000", "102352.884000", "102352.887000", "102352.890000", "102352.893000", "102352.896000", "102352.899000", "102352.902000", "102352.905000", "102352.908000", "102352.910000", "102352.913000", "102352.916000", "102352.919000", "102352.922000", "102352.935000", "102352.938000", "102352.940000", "102352.943000", "102352.946000", "102352.952000", "102352.955000", "102352.958000", "102352.961000", "102412.831000", "102412.834000", "102412.837000", "102412.840000", "102412.843000", "102412.845000", "102412.849000", "102412.852000", "102412.855000", "102412.858000", "102412.861000", "102412.864000", "102412.867000", "102412.869000", "102412.872000", "102412.875000", "102412.878000", "102412.881000", "102412.884000", "102412.887000", "102432.831000", "102432.834000", "102432.837000", "102432.840000", "102432.842000", "102432.845000", "102432.848000", "102432.851000", "102432.854000", "102432.857000", "102432.860000", "102432.863000", "102432.865000", "102432.868000", "102432.871000", "102432.874000", "102432.877000", "102432.880000", "102432.883000", "102432.885000", "102452.831000", "102452.834000", "102452.837000", "102452.840000", "102452.843000", "102452.845000", "102452.848000", "102452.851000", "102452.854000", "102452.857000", "102452.869000", "102452.872000", "102452.875000", "102452.878000", "102452.882000", "102452.890000", "102452.893000", "102452.896000", "102452.899000", "102452.902000", "102512.831000", "102512.834000", "102512.837000", "102512.840000", "102512.843000", "102512.846000", "102512.849000", "102512.852000", "102512.855000", "102512.858000", "102512.861000", "102512.864000", "102512.867000", "102512.870000", "102512.873000", "102512.876000", "102512.879000", "102512.882000", "102512.885000", "102512.896000", "102552.832000", "102552.835000", "102552.838000", "102552.841000", "102552.844000", "102552.847000", "102552.850000", "102552.853000", "102552.856000", "102552.859000", "102552.862000", "102552.865000", "102552.868000", "102552.871000", "102552.873000", "102552.876000", "102552.879000", "102552.882000", "102552.885000", "102552.888000", "102552.891000", "102552.894000", "102552.897000", "102552.900000", "102552.903000", "102552.906000", "102552.909000", "102632.831000", "102632.834000", "102632.837000", "102632.840000", "102632.843000", "102632.846000", "102632.849000", "102632.852000", "102632.854000", "102632.857000", "102632.860000", "102632.863000", "102632.866000", "102632.869000", "102632.872000", "102632.875000", "102632.877000", "102632.880000", "102632.883000", "102632.886000", "102632.898000", "102632.901000", "102632.904000", "102632.908000", "102632.910000", "102632.913000", "102712.831000", "102712.834000", "102712.837000", "102712.840000", "102712.843000", "102712.846000", "102712.848000", "102712.852000", "102712.854000", "102712.857000", "102712.860000", "102712.863000", "102712.866000", "102712.869000", "102712.872000", "102712.875000", "102712.878000", "102712.880000", "102712.883000", "102712.886000", "102712.889000", "102712.892000", "102712.895000", "102712.898000", "102712.901000", "102712.904000", "102712.906000", "102752.831000", "102752.834000", "102752.837000", "102752.840000", "102752.852000", "102752.855000", "102752.858000", "102752.861000", "102752.864000", "102752.867000", "102752.870000", "102752.873000", "102752.876000", "102752.878000", "102752.881000", "102752.884000", "102752.887000", "102752.890000", "102752.893000", "102752.896000", "102752.899000", "102752.902000", "102752.905000", "102752.908000", "102752.911000", "102752.914000", "102752.916000", "102832.831000", "102832.834000", "102832.837000", "102832.840000", "102832.843000", "102832.846000", "102832.849000", "102832.852000", "102832.855000", "102832.858000", "102832.861000", "102832.864000", "102832.867000", "102832.870000", "102832.872000", "102832.876000", "102832.878000", "102832.881000", "102832.884000", "102832.888000", "102832.890000", "102832.893000", "102832.896000", "102832.899000", "102832.902000", "102832.905000", "102832.908000", "102912.831000", "102912.834000", "102912.837000", "102912.840000", "102912.843000", "102912.846000", "102912.849000", "102912.852000", "102912.854000", "102912.857000", "102912.860000", "102912.863000", "102912.866000", "102912.869000", "102912.872000", "102912.875000", "102912.877000", "102912.880000", "102912.883000", "102912.886000", "102912.889000", "102912.892000", "102912.895000", "102912.898000", "102912.901000", "102912.904000", "102912.906000", "102952.831000", "102952.834000", "102952.837000", "102952.840000", "102952.843000", "102952.846000", "102952.849000", "102952.852000", "102952.854000", "102952.857000", "102952.860000", "102952.863000", "102952.866000", "102952.869000", "102952.872000", "102952.875000", "102952.878000", "102952.889000", "102952.891000", "102952.894000", "102952.897000", "102952.900000", "102952.903000", "102952.906000", "102952.909000", "102952.912000", "102952.915000", "103032.832000", "103032.835000", "103032.838000", "103032.841000", "103032.844000", "103032.847000", "103032.850000", "103032.853000", "103032.856000", "103032.858000", "103032.861000", "103032.864000", "103032.867000", "103032.870000", "103032.873000", "103032.876000", "103032.879000", "103032.882000", "103032.884000", "103032.887000", "103032.890000", "103032.893000", "103032.896000", "103032.899000", "103032.902000", "103032.905000", "103112.831000", "103112.834000", "103112.837000", "103112.840000", "103112.843000", "103112.846000", "103112.848000", "103112.851000", "103112.854000", "103112.857000", "103112.860000", "103112.863000", "103112.866000", "103112.869000", "103112.872000", "103112.875000", "103112.884000", "103112.887000", "103112.890000", "103112.892000", "103112.895000", "103112.898000", "103112.901000", "103112.904000", "103112.907000", "103112.910000", "103112.913000", "103132.831000", "103132.834000", "103132.837000", "103132.840000", "103132.843000", "103132.846000", "103132.849000", "103132.852000", "103132.855000", "103132.857000", "103132.860000", "103132.863000", "103132.866000", "103132.869000", "103212.831000", "103212.834000", "103212.837000", "103212.840000", "103212.843000", "103212.846000", "103212.849000", "103212.852000", "103212.855000", "103212.858000", "103212.861000", "103212.867000", "103212.870000", "103212.872000", "103212.875000", "103212.878000", "103212.881000", "103212.884000", "103212.887000", "103212.890000", "103212.893000", "103212.896000", "103212.899000", "103212.902000", "103212.904000", "103212.907000", "103212.910000", "103252.832000", "103252.835000", "103252.838000", "103252.841000", "103252.844000", "103252.847000", "103252.851000", "103252.854000", "103252.857000", "103252.860000", "103252.863000", "103252.866000", "103252.869000", "103252.871000", "103252.874000", "103252.877000", "103252.880000", "103252.883000", "103252.886000", "103252.889000", "103252.892000", "103252.895000", "103252.898000", "103252.900000", "103252.904000", "103252.907000", "103332.831000", "103332.834000", "103332.837000", "103332.840000", "103332.843000", "103332.846000", "103332.849000", "103332.852000", "103332.855000", "103332.858000", "103332.861000", "103332.863000", "103332.866000", "103332.869000", "103332.872000", "103332.875000", "103332.878000", "103332.881000", "103332.884000", "103332.887000", "103332.890000", "103332.893000", "103332.896000", "103332.898000", "103332.911000", "103332.914000", "103332.917000", "103412.831000", "103412.834000", "103412.837000", "103412.840000", "103412.843000", "103412.846000", "103412.859000", "103412.862000", "103412.865000", "103412.868000", "103412.871000", "103412.874000", "103412.877000", "103412.880000", "103412.883000", "103412.886000", "103412.888000", "103412.891000", "103412.894000", "103412.897000", "103412.900000", "103412.903000", "103412.906000", "103412.909000", "103412.912000", "103412.915000", "103412.917000", "103422.429000", "103422.433000", "103422.436000", "103422.439000", "103422.441000", "103422.444000", "103422.447000"],
