{
  "AcquisitionMatrixPE": 104,
  "AcquisitionNumber": 1,
  "AcquisitionTime": "17:48:55.587500",
  "BandwidthPerPixelPhaseEncode": 17.17,
  "BaseResolution": 104,
  "BodyPartExamined": "BRAIN",
  "CoilCombinationMethod": "Sum of Squares",
  "ConsistencyInfo": "N4_VE11C_LATEST_20160120",
  "ConversionSoftware": "dcm2niix",
  "ConversionSoftwareVersion": "v1.0.20220505",
  "DerivedVendorReportedEchoSpacing": 0.000560011,
  "DeviceSerialNumber": "167006",
  "DwellTime": 2.1e-06,
  "EchoTime": 0.037,
  "EchoTrainLength": 104,
  "EffectiveEchoSpacing": 0.000560011,
  "FlipAngle": 52,
  "HeudiconvVersion": "0.5.3.post811+g6206e14",
  "ImageComments": "Unaliased MB4/PE3/LB",
  "ImageOrientationPatientDICOM": [0.996432, 0.0829797, 0.015403, -0.0712504, 0.924908, -0.373456],
  "ImageOrientationText": "Tra>Cor(-21.8)>Sag(2.6)",
  "ImageType": [
    "ORIGINAL",
    "PRIMARY",
    "M",
    "MB",
    "ND",
    "MOSAIC"
],
  "ImagingFrequency": 123.259,
  "InPlanePhaseEncodingDirectionDICOM": "COL",
  "InstitutionAddress": "Chemin Queen-Mary 4565,Montreal,District,CA,H3W 1W5",
  "InstitutionName": "IUGM",
  "InstitutionalDepartmentName": "Department",
  "MRAcquisitionType": "2D",
  "MagneticFieldStrength": 3,
  "Manufacturer": "Siemens",
  "ManufacturersModelName": "Prisma_fit",
  "MatrixCoilMode": "SENSE",
  "Modality": "MR",
  "MultibandAccelerationFactor": 4,
  "PartialFourier": 1,
  "PatientPosition": "HFS",
  "PercentPhaseFOV": 100,
  "PercentSampling": 100,
  "PhaseEncodingDirection": "j",
  "PhaseEncodingSteps": 104,
  "PhaseResolution": 1,
  "PixelBandwidth": 2290,
  "ProcedureStepDescription": "video^friends",
  "ProtocolName": "func_task-friends-s06e04b",
  "PulseSequenceDetails": "%CustomerSeq%\\cmrr_mbep2d_bold",
  "ReceiveCoilActiveElements": "HC1-7;NC1,2",
  "ReceiveCoilName": "HeadNeck_64",
  "ReconMatrixPE": 104,
  "RepetitionTime": 1.49,
  "SAR": 0.0551442,
  "ScanOptions": "FS",
  "ScanningSequence": "EP",
  "SequenceName": "epfid2d1_104",
  "SequenceVariant": "SK\\SS",
  "SeriesDescription": "func_task-friends-s06e04b",
  "SeriesNumber": 10,
  "ShimSetting": [627, -7197, -8819, 642, 86, -42, -47, -7],
  "SliceThickness": 2,
  "SliceTiming": [0, 0.7825, 0.0975, 0.88, 0.195, 0.98, 0.2925, 1.0775, 0.39, 1.175, 0.49, 1.2725, 0.5875, 1.37, 0.685, 0, 0.7825, 0.0975, 0.88, 0.195, 0.98, 0.2925, 1.0775, 0.39, 1.175, 0.49, 1.2725, 0.5875, 1.37, 0.685, 0, 0.7825, 0.0975, 0.88, 0.195, 0.98, 0.2925, 1.0775, 0.39, 1.175, 0.49, 1.2725, 0.5875, 1.37, 0.685, 0, 0.7825, 0.0975, 0.88, 0.195, 0.98, 0.2925, 1.0775, 0.39, 1.175, 0.49, 1.2725, 0.5875, 1.37, 0.685],
  "SoftwareVersions": "syngo MR E11",
  "SpacingBetweenSlices": 2,
  "StationName": "MRC35049",
  "TaskName": "s06e04b",
  "TotalReadoutTime": 0.0576811,
  "TxRefAmp": 284.309,
  "WipMemBlock": "4adb42f4-0a9f-4c16-9928-800a3c5afdd3||Sequence: R016 ve11c/master r/e634e98; Dec 19 2017 11:00:25 by eja",
  "dcmmeta_affine": [
    [-1.9928643703460693, -0.14250078797340393, 0.0904713124036789, 107.4681167602539],
    [-0.1659594029188156, 1.849815011024475, -0.7420523762702942, -59.81235885620117],
    [0.030806073918938637, 0.7469121813774109, 1.8550399541854858, -65.1229476928711],
    [0.0, 0.0, 0.0, 1.0]
],
  "dcmmeta_reorient_transform": [
    [0.0, -1.0, 0.0, 103.0],
    [1.0, 0.0, 0.0, 0.0],
    [0.0, 0.0, 1.0, 0.0],
    [0.0, 0.0, 0.0, 1.0]
],
  "dcmmeta_shape": [104, 104, 60, 474],
  "dcmmeta_slice_dim": 2,
  "dcmmeta_version": 0.6,
  "global": {
    "const": {
      "AcquisitionMatrix": [104, 0, 0, 104],
      "AngioFlag": "N",
      "BitsAllocated": 16,
      "BitsStored": 16,
      "BodyPartExamined": "BRAIN",
      "Columns": 832,
      "EchoNumbers": 1,
      "EchoTime": 37.0,
      "EchoTrainLength": 104,
      "FlipAngle": 52.0,
      "HighBit": 15,
      "ImageOrientationPatient": [0.99643219344587, 0.08297969818244, 0.01540303717442, -0.0712503973594, 0.92490752903814, -0.3734560798872],
      "ImagePositionPatient": [-766.32288601393, -864.46049419926, 272.47161896376],
      "ImageType": [
        "ORIGINAL",
        "PRIMARY",
        "M",
        "MB",
        "ND",
        "MOSAIC"
],
      "ImagedNucleus": "1H",
      "ImagingFrequency": 123.258827,
      "InPlanePhaseEncodingDirection": "COL",
      "MRAcquisitionType": "2D",
      "MagneticFieldStrength": 3.0,
      "Manufacturer": "SIEMENS",
      "ManufacturerModelName": "Prisma_fit",
      "Modality": "MR",
      "NumberOfAverages": 1.0,
      "NumberOfPhaseEncodingSteps": 104,
      "PercentPhaseFieldOfView": 100.0,
      "PercentSampling": 100.0,
      "PerformedProcedureStepStartTime": "174523.669000",
      "PhotometricInterpretation": "MONOCHROME2",
      "PixelBandwidth": 2290.0,
      "PixelRepresentation": 0,
      "PixelSpacing": [2.0, 2.0],
      "ProtocolName": "func_task-friends-s06e04b",
      "RepetitionTime": 1490.0,
      "Rows": 832,
      "SAR": 0.05514416287414,
      "SamplesPerPixel": 1,
      "ScanOptions": "FS",
      "ScanningSequence": "EP",
      "SequenceName": "epfid2d1_104",
      "SequenceVariant": [
        "SK",
        "SS"
],
      "SeriesDescription": "func_task-friends-s06e04b",
      "SeriesNumber": 10,
      "SeriesTime": "175020.298000",
      "SliceLocation": -33.349493207527,
      "SliceThickness": 2.0,
      "SmallestImagePixelValue": 0,
      "SoftwareVersions": "syngo MR E11",
      "SpacingBetweenSlices": 1.9999999999054,
      "SpecificCharacterSet": "ISO_IR 100",
      "StudyID": "1",
      "StudyTime": "174523.604000",
      "TransmitCoilName": "Body",
      "VariableFlipAngleFlag": "N",
      "WindowCenterWidthExplanation": "Algo1",
      "dBdt": 0.0},
    "slices": {}
  },
  "time": {
    "samples": {
      "AcquisitionNumber": [1, 2, 3, 4, 5, 6, 7, 8, 9, 10, 11, 12, 13, 14, 15, 16, 17, 18, 19, 20, 21, 22, 23, 24, 25, 26, 27, 28, 29, 30, 31, 32, 33, 34, 35, 36, 37, 38, 39, 40, 41, 42, 43, 44, 45, 46, 47, 48, 49, 50, 51, 52, 53, 54, 55, 56, 57, 58, 59, 60, 61, 62, 63, 64, 65, 66, 67, 68, 69, 70, 71, 72, 73, 74, 75, 76, 77, 78, 79, 80, 81, 82, 83, 84, 85, 86, 87, 88, 89, 90, 91, 92, 93, 94, 95, 96, 97, 98, 99, 100, 101, 102, 103, 104, 105, 106, 107, 108, 109, 110, 111, 112, 113, 114, 115, 116, 117, 118, 119, 120, 121, 122, 123, 124, 125, 126, 127, 128, 129, 130, 131, 132, 133, 134, 135, 136, 137, 138, 139, 140, 141, 142, 143, 144, 145, 146, 147, 148, 149, 150, 151, 152, 153, 154, 155, 156, 157, 158, 159, 160, 161, 162, 163, 164, 165, 166, 167, 168, 169, 170, 171, 172, 173, 174, 175, 176, 177, 178, 179, 180, 181, 182, 183, 184, 185, 186, 187, 188, 189, 190, 191, 192, 193, 194, 195, 196, 197, 198, 199, 200, 201, 202, 203, 204, 205, 206, 207, 208, 209, 210, 211, 212, 213, 214, 215, 216, 217, 218, 219, 220, 221, 222, 223, 224, 225, 226, 227, 228, 229, 230, 231, 232, 233, 234, 235, 236, 237, 238, 239, 240, 241, 242, 243, 244, 245, 246, 247, 248, 249, 250, 251, 252, 253, 254, 255, 256, 257, 258, 259, 260, 261, 262, 263, 264, 265, 266, 267, 268, 269, 270, 271, 272, 273, 274, 275, 276, 277, 278, 279, 280, 281, 282, 283, 284, 285, 286, 287, 288, 289, 290, 291, 292, 293, 294, 295, 296, 297, 298, 299, 300, 301, 302, 303, 304, 305, 306, 307, 308, 309, 310, 311, 312, 313, 314, 315, 316, 317, 318, 319, 320, 321, 322, 323, 324, 325, 326, 327, 328, 329, 330, 331, 332, 333, 334, 335, 336, 337, 338, 339, 340, 341, 342, 343, 344, 345, 346, 347, 348, 349, 350, 351, 352, 353, 354, 355, 356, 357, 358, 359, 360, 361, 362, 363, 364, 365, 366, 367, 368, 369, 370, 371, 372, 373, 374, 375, 376, 377, 378, 379, 380, 381, 382, 383, 384, 385, 386, 387, 388, 389, 390, 391, 392, 393, 394, 395, 396, 397, 398, 399, 400, 401, 402, 403, 404, 405, 406, 407, 408, 409, 410, 411, 412, 413, 414, 415, 416, 417, 418, 419, 420, 421, 422, 423, 424, 425, 426, 427, 428, 429, 430, 431, 432, 433, 434, 435, 436, 437, 438, 439, 440, 441, 442, 443, 444, 445, 446, 447, 448, 449, 450, 451, 452, 453, 454, 455, 456, 457, 458, 459, 460, 461, 462, 463, 464, 465, 466, 467, 468, 469, 470, 471, 472, 473, 474],
      "AcquisitionTime": ["174855.587500", "174857.077500", "174858.567500", "174900.057500", "174901.547500", "174903.037500", "174904.527500", "174906.017500", "174907.507500", "174908.997500", "174910.487500", "174911.977500", "174913.467500", "174914.957500", "174916.447500", "174917.937500", "174919.427500", "174920.917500", "174922.407500", "174923.897500", "174925.387500", "174926.877500", "174928.367500", "174929.857500", "174931.347500", "174932.837500", "174934.327500", "174935.817500", "174937.307500", "174938.797500", "174940.287500", "174941.777500", "174943.267500", "174944.757500", "174946.247500", "174947.737500", "174949.227500", "174950.717500", "174952.207500", "174953.697500", "174955.187500", "174956.677500", "174958.167500", "174959.657500", "175001.147500", "175002.637500", "175004.127500", "175005.617500", "175007.107500", "175008.597500", "175010.087500", "175011.577500", "175013.067500", "175014.557500", "175016.047500", "175017.537500", "175019.027500", "175020.517500", "175022.007500", "175023.497500", "175024.987500", "175026.477500", "175027.967500", "175029.457500", "175030.947500", "175032.437500", "175033.927500", "175035.417500", "175036.907500", "175038.397500", "175039.887500", "175041.377500", "175042.867500", "175044.357500", "175045.847500", "175047.337500", "175048.827500", "175050.317500", "175051.807500", "175053.297500", "175054.787500", "175056.277500", "175057.767500", "175059.257500", "175100.747500", "175102.237500", "175103.727500", "175105.217500", "175106.707500", "175108.197500", "175109.687500", "175111.177500", "175112.667500", "175114.157500", "175115.647500", "175117.137500", "175118.627500", "175120.117500", "175121.607500", "175123.097500", "175124.587500", "175126.077500", "175127.567500", "175129.057500", "175130.547500", "175132.037500", "175133.527500", "175135.017500", "175136.507500", "175137.997500", "175139.487500", "175140.977500", "175142.467500", "175143.957500", "175145.447500", "175146.937500", "175148.427500", "175149.917500", "175151.407500", "175152.897500", "175154.387500", "175155.877500", "175157.367500", "175158.857500", "175200.347500", "175201.837500", "175203.327500", "175204.817500", "175206.307500", "175207.797500", "175209.287500", "175210.777500", "175212.267500", "175213.757500", "175215.247500", "175216.737500", "175218.227500", "175219.717500", "175221.207500", "175222.697500", "175224.187500", "175225.677500", "175227.167500", "175228.657500", "175230.147500", "175231.637500", "175233.127500", "175234.617500", "175236.107500", "175237.597500", "175239.087500", "175240.577500", "175242.067500", "175243.557500", "175245.047500", "175246.537500", "175248.027500", "175249.517500", "175251.007500", "175252.497500", "175253.987500", "175255.477500", "175256.967500", "175258.457500", "175259.947500", "175301.437500", "175302.927500", "175304.417500", "175305.907500", "175307.397500", "175308.887500", "175310.377500", "175311.867500", "175313.357500", "175314.847500", "175316.337500", "175317.827500", "175319.317500", "175320.807500", "175322.297500", "175323.787500", "175325.277500", "175326.767500", "175328.257500", "175329.747500", "175331.237500", "175332.727500", "175334.217500", "175335.707500", "175337.197500", "175338.687500", "175340.177500", "175341.667500", "175343.157500", "175344.647500", "175346.137500", "175347.627500", "175349.117500", "175350.607500", "175352.097500", "175353.587500", "175355.077500", "175356.567500", "175358.057500", "175359.547500", "175401.037500", "175402.527500", "175404.017500", "175405.507500", "175406.997500", "175408.487500", "175409.977500", "175411.467500", "175412.957500", "175414.447500", "175415.937500", "175417.427500", "175418.917500", "175420.407500", "175421.897500", "175423.387500", "175424.877500", "175426.367500", "175427.857500", "175429.347500", "175430.837500", "175432.327500", "175433.817500", "175435.307500", "175436.797500", "175438.287500", "175439.777500", "175441.267500", "175442.757500", "175444.247500", "175445.737500", "175447.227500", "175448.717500", "175450.207500", "175451.697500", "175453.187500", "175454.677500", "175456.167500", "175457.657500", "175459.147500", "175500.637500", "175502.127500", "175503.617500", "175505.107500", "175506.597500", "175508.087500", "175509.577500", "175511.067500", "175512.557500", "175514.047500", "175515.537500", "175517.027500", "175518.517500", "175520.007500", "175521.497500", "175522.987500", "175524.477500", "175525.967500", "175527.457500", "175528.947500", "175530.437500", "175531.927500", "175533.417500", "175534.907500", "175536.397500", "175537.887500", "175539.377500", "175540.867500", "175542.357500", "175543.847500", "175545.337500", "175546.827500", "175548.317500", "175549.807500", "175551.297500", "175552.787500", "175554.277500", "175555.767500", "175557.257500", "175558.747500", "175600.237500", "175601.727500", "175603.217500", "175604.707500", "175606.197500", "175607.687500", "175609.177500", "175610.667500", "175612.157500", "175613.647500", "175615.137500", "175616.627500", "175618.117500", "175619.607500", "175621.097500", "175622.587500", "175624.077500", "175625.567500", "175627.057500", "175628.547500", "175630.037500", "175631.527500", "175633.017500", "175634.507500", "175635.997500", "175637.487500", "175638.977500", "175640.467500", "175641.957500", "175643.447500", "175644.937500", "175646.427500", "175647.917500", "175649.407500", "175650.897500", "175652.387500", "175653.877500", "175655.367500", "175656.857500", "175658.347500", "175659.837500", "175701.327500", "175702.817500", "175704.307500", "175705.797500", "175707.287500", "175708.777500", "175710.267500", "175711.757500", "175713.247500", "175714.737500", "175716.227500", "175717.717500", "175719.207500", "175720.697500", "175722.187500", "175723.677500", "175725.167500", "175726.657500", "175728.147500", "175729.637500", "175731.127500", "175732.617500", "175734.107500", "175735.597500", "175737.087500", "175738.577500", "175740.067500", "175741.557500", "175743.047500", "175744.537500", "175746.027500", "175747.517500", "175749.007500", "175750.497500", "175751.987500", "175753.477500", "175754.967500", "175756.457500", "175757.947500", "175759.437500", "175800.927500", "175802.417500", "175803.907500", "175805.397500", "175806.887500", "175808.377500", "175809.867500", "175811.357500", "175812.847500", "175814.337500", "175815.827500", "175817.317500", "175818.807500", "175820.297500", "175821.787500", "175823.277500", "175824.767500", "175826.257500", "175827.747500", "175829.237500", "175830.727500", "175832.217500", "175833.707500", "175835.197500", "175836.687500", "175838.177500", "175839.667500", "175841.157500", "175842.647500", "175844.137500", "175845.627500", "175847.117500", "175848.607500", "175850.097500", "175851.587500", "175853.077500", "175854.567500", "175856.057500", "175857.547500", "175859.037500", "175900.527500", "175902.017500", "175903.507500", "175904.997500", "175906.487500", "175907.977500", "175909.467500", "175910.957500", "175912.447500", "175913.937500", "175915.427500", "175916.917500", "175918.407500", "175919.897500", "175921.387500", "175922.877500", "175924.367500", "175925.857500", "175927.347500", "175928.837500", "175930.327500", "175931.817500", "175933.307500", "175934.797500", "175936.287500", "175937.777500", "175939.267500", "175940.757500", "175942.247500", "175943.737500", "175945.227500", "175946.717500", "175948.207500", "175949.697500", "175951.187500", "175952.677500", "175954.167500", "175955.657500", "175957.147500", "175958.637500", "180000.127500", "180001.617500", "180003.107500", "180004.597500", "180006.087500", "180007.577500", "180009.067500", "180010.557500", "180012.047500", "180013.537500", "180015.027500", "180016.517500", "180018.007500", "180019.497500", "180020.987500", "180022.477500", "180023.967500", "180025.457500", "180026.947500", "180028.437500", "180029.927500", "180031.417500", "180032.907500", "180034.397500", "180035.887500", "180037.377500", "180038.867500", "180040.357500"],
      "ContentTime": ["175020.300000", "175020.304000", "175020.307000", "175020.310000", "175020.313000", "175020.316000", "175020.318000", "175020.321000", "175020.324000", "175020.327000", "175020.330000", "175020.333000", "175020.336000", "175020.339000", "175020.342000", "175020.345000", "175020.348000", "175020.351000", "175020.354000", "175020.357000", "175020.360000", "175020.363000", "175020.366000", "175020.369000", "175020.372000", "175020.374000", "175020.377000", "175020.380000", "175020.383000", "175020.386000", "175040.270000", "175040.273000", "175040.276000", "175040.279000", "175040.282000", "175040.284000", "175040.287000", "175040.290000", "175040.293000", "175040.296000", "175040.299000", "175040.302000", "175040.305000", "175040.308000", "175040.311000", "175040.313000", "175040.316000", "175040.319000", "175040.322000", "175040.325000", "175100.270000", "175100.273000", "175100.276000", "175100.279000", "175100.282000", "175100.285000", "175100.287000", "175100.290000", "175100.293000", "175100.296000", "175100.299000", "175100.302000", "175100.305000", "175100.308000", "175100.311000", "175100.313000", "175100.316000", "175100.329000", "175100.332000", "175100.335000", "175120.269000", "175120.272000", "175120.275000", "175120.278000", "175120.281000", "175120.284000", "175120.286000", "175120.289000", "175120.292000", "175120.295000", "175120.298000", "175120.301000", "175120.304000", "175120.307000", "175120.310000", "175120.312000", "175120.315000", "175120.318000", "175120.321000", "175120.324000", "175200.269000", "175200.272000", "175200.275000", "175200.278000", "175200.281000", "175200.284000", "175200.286000", "175200.289000", "175200.292000", "175200.295000", "175200.298000", "175200.301000", "175200.304000", "175200.307000", "175200.310000", "175200.313000", "175200.316000", "175200.319000", "175200.321000", "175200.333000", "175200.336000", "175200.339000", "175200.341000", "175200.344000", "175200.347000", "175200.350000", "175200.353000", "175200.356000", "175200.359000", "175200.362000", "175200.365000", "175200.368000", "175200.371000", "175240.270000", "175240.273000", "175240.276000", "175240.279000", "175240.282000", "175240.285000", "175240.287000", "175240.290000", "175240.293000", "175240.296000", "175240.299000", "175240.302000", "175240.305000", "175240.308000", "175240.311000", "175240.314000", "175240.317000", "175240.320000", "175240.322000", "175240.325000", "175240.328000", "175240.331000", "175240.334000", "175240.351000", "175240.354000", "175240.357000", "175240.360000", "175320.270000", "175320.273000", "175320.276000", "175320.279000", "175320.282000", "175320.285000", "175320.288000", "175320.290000", "175320.293000", "175320.296000", "175320.299000", "175320.308000", "175320.311000", "175320.314000", "175320.317000", "175320.319000", "175320.322000", "175320.325000", "175320.328000", "175320.331000", "175320.334000", "175320.337000", "175320.340000", "175320.343000", "175320.346000", "175320.349000", "175320.352000", "175400.269000", "175400.272000", "175400.275000", "175400.278000", "175400.281000", "175400.284000", "175400.287000", "175400.289000", "175400.292000", "175400.295000", "175400.299000", "175400.302000", "175400.305000", "175400.308000", "175400.311000", "175400.314000", "175400.316000", "175400.319000", "175400.322000", "175400.325000", "175400.328000", "175400.331000", "175400.334000", "175400.337000", "175400.340000", "175400.343000", "175440.270000", "175440.273000", "175440.276000", "175440.279000", "175440.282000", "175440.285000", "175440.288000", "175440.290000", "175440.293000", "175440.296000", "175440.299000", "175440.302000", "175440.305000", "175440.308000", "175440.311000", "175440.314000", "175440.317000", "175440.320000", "175440.323000", "175440.326000", "175440.328000", "175440.331000", "175440.334000", "175440.337000", "175440.340000", "175440.343000", "175440.346000", "175520.270000", "175520.273000", "175520.276000", "175520.279000", "175520.282000", "175520.285000", "175520.288000", "175520.291000", "175520.293000", "175520.296000", "175520.299000", "175520.302000", "175520.305000", "175520.308000", "175520.311000", "175520.314000", "175520.317000", "175520.320000", "175520.323000", "175520.326000", "175520.329000", "175520.331000", "175520.334000", "175520.337000", "175520.340000", "175520.343000", "175520.346000", "175600.269000", "175600.272000", "175600.275000", "175600.278000", "175600.281000", "175600.284000", "175600.287000", "175600.290000", "175600.293000", "175600.296000", "175600.299000", "175600.302000", "175600.305000", "175600.307000", "175600.310000", "175600.313000", "175600.316000", "175600.319000", "175600.322000", "175600.325000", "175600.328000", "175600.331000", "175600.334000", "175600.336000", "175600.339000", "175600.342000", "175600.345000", "175640.269000", "175640.272000", "175640.275000", "175640.278000", "175640.281000", "175640.284000", "175640.287000", "175640.289000", "175640.292000", "175640.295000", "175640.298000", "175640.301000", "175640.304000", "175640.307000", "175640.310000", "175640.313000", "175640.316000", "175640.319000", "175640.322000", "175640.325000", "175640.327000", "175640.330000", "175640.333000", "175640.336000", "175640.339000", "175640.342000", "175640.345000", "175720.270000", "175720.273000", "175720.276000", "175720.279000", "175720.282000", "175720.285000", "175720.288000", "175720.291000", "175720.293000", "175720.296000", "175720.299000", "175720.302000", "175720.305000", "175720.308000", "175720.311000", "175720.314000", "175720.317000", "175720.320000", "175720.323000", "175720.326000", "175720.328000", "175720.331000", "175720.334000", "175720.337000", "175720.352000", "175720.355000", "175720.358000", "175800.270000", "175800.273000", "175800.276000", "175800.279000", "175800.282000", "175800.285000", "175800.288000", "175800.290000", "175800.293000", "175800.296000", "175800.299000", "175800.302000", "175800.305000", "175800.308000", "175800.311000", "175800.314000", "175800.317000", "175800.320000", "175800.322000", "175800.325000", "175800.328000", "175800.331000", "175800.334000", "175800.337000", "175800.340000", "175800.343000", "175800.346000", "175840.269000", "175840.272000", "175840.275000", "175840.278000", "175840.281000", "175840.284000", "175840.287000", "175840.290000", "175840.293000", "175840.296000", "175840.299000", "175840.302000", "175840.304000", "175840.307000", "175840.310000", "175840.313000", "175840.316000", "175840.319000", "175840.322000", "175840.325000", "175840.328000", "175840.331000", "175840.334000", "175840.337000", "175840.340000", "175840.343000", "175920.270000", "175920.273000", "175920.276000", "175920.279000", "175920.282000", "175920.285000", "175920.288000", "175920.291000", "175920.293000", "175920.296000", "175920.299000", "175920.302000", "175920.305000", "175920.308000", "175920.311000", "175920.314000", "175920.317000", "175920.320000", "175920.323000", "175920.326000", "175920.329000", "175920.332000", "175920.335000", "175920.337000", "175920.340000", "175920.343000", "175920.346000", "180000.270000", "180000.273000", "180000.276000", "180000.279000", "180000.282000", "180000.285000", "180000.288000", "180000.291000", "180000.294000", "180000.297000", "180000.299000", "180000.303000", "180000.305000", "180000.308000", "180000.311000", "180000.314000", "180000.317000", "180000.320000", "180000.323000", "180000.326000", "180000.329000", "180000.332000", "180000.335000", "180000.338000", "180000.341000", "180000.344000", "180000.347000", "180040.269000", "180040.272000", "180040.275000", "180040.278000", "180040.281000", "180040.284000", "180040.287000", "180040.290000", "180040.292000", "180040.295000", "180040.298000", "180040.301000", "180040.304000", "180040.307000", "180040.310000", "180040.313000", "180040.316000", "180040.319000", "180040.322000", "180040.325000", "180040.328000", "180040.330000", "180040.333000", "180040.336000", "180040.339000", "180040.342000", "180040.345000", "180042.705000", "180042.709000"],
