{
  "AcquisitionMatrixPE": 104,
  "AcquisitionNumber": 1,
  "AcquisitionTime": "18:02:4.797500",
  "BandwidthPerPixelPhaseEncode": 17.17,
  "BaseResolution": 104,
  "BodyPartExamined": "BRAIN",
  "CoilCombinationMethod": "Sum of Squares",
  "ConsistencyInfo": "N4_VE11C_LATEST_20160120",
  "ConversionSoftware": "dcm2niix",
  "ConversionSoftwareVersion": "v1.0.20220505",
  "DerivedVendorReportedEchoSpacing": 0.000560011,
  "DeviceSerialNumber": "167006",
  "DwellTime": 2.1e-06,
  "EchoTime": 0.037,
  "EchoTrainLength": 104,
  "EffectiveEchoSpacing": 0.000560011,
  "FlipAngle": 52,
  "HeudiconvVersion": "0.5.3.post811+g6206e14",
  "ImageComments": "Unaliased MB4/PE3/LB",
  "ImageOrientationPatientDICOM": [0.996432, 0.0829797, 0.015403, -0.0712504, 0.924908, -0.373456],
  "ImageOrientationText": "Tra>Cor(-21.8)>Sag(2.6)",
  "ImageType": [
    "ORIGINAL",
    "PRIMARY",
    "M",
    "MB",
    "ND",
    "MOSAIC"
],
  "ImagingFrequency": 123.259,
  "InPlanePhaseEncodingDirectionDICOM": "COL",
  "InstitutionAddress": "Chemin Queen-Mary 4565,Montreal,District,CA,H3W 1W5",
  "InstitutionName": "IUGM",
  "InstitutionalDepartmentName": "Department",
  "MRAcquisitionType": "2D",
  "MagneticFieldStrength": 3,
  "Manufacturer": "Siemens",
  "ManufacturersModelName": "Prisma_fit",
  "MatrixCoilMode": "SENSE",
  "Modality": "MR",
  "MultibandAccelerationFactor": 4,
  "PartialFourier": 1,
  "PatientPosition": "HFS",
  "PercentPhaseFOV": 100,
  "PercentSampling": 100,
  "PhaseEncodingDirection": "j",
  "PhaseEncodingSteps": 104,
  "PhaseResolution": 1,
  "PixelBandwidth": 2290,
  "ProcedureStepDescription": "video^friends",
  "ProtocolName": "func_task-friends-s06e05a",
  "PulseSequenceDetails": "%CustomerSeq%\\cmrr_mbep2d_bold",
  "ReceiveCoilActiveElements": "HC1-7;NC1,2",
  "ReceiveCoilName": "HeadNeck_64",
  "ReconMatrixPE": 104,
  "RepetitionTime": 1.49,
  "SAR": 0.055133,
  "ScanOptions": "FS",
  "ScanningSequence": "EP",
  "SequenceName": "epfid2d1_104",
  "SequenceVariant": "SK\\SS",
  "SeriesDescription": "func_task-friends-s06e05a",
  "SeriesNumber": 12,
  "ShimSetting": [627, -7197, -8819, 642, 86, -42, -47, -7],
  "SliceThickness": 2,
  "SliceTiming": [0, 0.785, 0.0975, 0.8825, 0.195, 0.98, 0.295, 1.0775, 0.3925, 1.175, 0.49, 1.275, 0.5875, 1.3725, 0.685, 0, 0.785, 0.0975, 0.8825, 0.195, 0.98, 0.295, 1.0775, 0.3925, 1.175, 0.49, 1.275, 0.5875, 1.3725, 0.685, 0, 0.785, 0.0975, 0.8825, 0.195, 0.98, 0.295, 1.0775, 0.3925, 1.175, 0.49, 1.275, 0.5875, 1.3725, 0.685, 0, 0.785, 0.0975, 0.8825, 0.195, 0.98, 0.295, 1.0775, 0.3925, 1.175, 0.49, 1.275, 0.5875, 1.3725, 0.685],
  "SoftwareVersions": "syngo MR E11",
  "SpacingBetweenSlices": 2,
  "StationName": "MRC35049",
  "TaskName": "s06e05a",
  "TotalReadoutTime": 0.0576811,
  "TxRefAmp": 284.309,
  "WipMemBlock": "1fb40549-a58a-4c83-b926-aa56b53f6309||Sequence: R016 ve11c/master r/e634e98; Dec 19 2017 11:00:25 by eja",
  "dcmmeta_affine": [
    [-1.9928643703460693, -0.14250078797340393, 0.0904713124036789, 107.4681167602539],
    [-0.1659594029188156, 1.849815011024475, -0.7420523762702942, -59.81235885620117],
    [0.030806073918938637, 0.7469121813774109, 1.8550399541854858, -65.1229476928711],
    [0.0, 0.0, 0.0, 1.0]
],
  "dcmmeta_reorient_transform": [
    [0.0, -1.0, 0.0, 103.0],
    [1.0, 0.0, 0.0, 0.0],
    [0.0, 0.0, 1.0, 0.0],
    [0.0, 0.0, 0.0, 1.0]
],
  "dcmmeta_shape": [104, 104, 60, 452],
  "dcmmeta_slice_dim": 2,
  "dcmmeta_version": 0.6,
  "global": {
    "const": {
      "AcquisitionMatrix": [104, 0, 0, 104],
      "AngioFlag": "N",
      "BitsAllocated": 16,
      "BitsStored": 16,
      "BodyPartExamined": "BRAIN",
      "Columns": 832,
      "EchoNumbers": 1,
      "EchoTime": 37.0,
      "EchoTrainLength": 104,
      "FlipAngle": 52.0,
      "HighBit": 15,
      "ImageOrientationPatient": [0.99643219344587, 0.08297969818244, 0.01540303717442, -0.0712503973594, 0.92490752903814, -0.3734560798872],
      "ImagePositionPatient": [-766.32288601393, -864.46049419926, 272.47161896376],
      "ImageType": [
        "ORIGINAL",
        "PRIMARY",
        "M",
        "MB",
        "ND",
        "MOSAIC"
],
      "ImagedNucleus": "1H",
      "ImagingFrequency": 123.258831,
      "InPlanePhaseEncodingDirection": "COL",
      "MRAcquisitionType": "2D",
      "MagneticFieldStrength": 3.0,
      "Manufacturer": "SIEMENS",
      "ManufacturerModelName": "Prisma_fit",
      "Modality": "MR",
      "NumberOfAverages": 1.0,
      "NumberOfPhaseEncodingSteps": 104,
      "PercentPhaseFieldOfView": 100.0,
      "PercentSampling": 100.0,
      "PerformedProcedureStepStartTime": "174523.669000",
      "PhotometricInterpretation": "MONOCHROME2",
      "PixelBandwidth": 2290.0,
      "PixelRepresentation": 0,
      "PixelSpacing": [2.0, 2.0],
      "ProtocolName": "func_task-friends-s06e05a",
      "RepetitionTime": 1490.0,
      "Rows": 832,
      "SAR": 0.05513297802697,
      "SamplesPerPixel": 1,
      "ScanOptions": "FS",
      "ScanningSequence": "EP",
      "SequenceName": "epfid2d1_104",
      "SequenceVariant": [
        "SK",
        "SS"
],
      "SeriesDescription": "func_task-friends-s06e05a",
      "SeriesNumber": 12,
      "SeriesTime": "180312.437000",
      "SliceLocation": -33.349493207527,
      "SliceThickness": 2.0,
      "SmallestImagePixelValue": 0,
      "SoftwareVersions": "syngo MR E11",
      "SpacingBetweenSlices": 1.9999999999054,
      "SpecificCharacterSet": "ISO_IR 100",
      "StudyID": "1",
      "StudyTime": "174523.604000",
      "TransmitCoilName": "Body",
      "VariableFlipAngleFlag": "N",
      "WindowCenterWidthExplanation": "Algo1",
      "dBdt": 0.0},
    "slices": {}
  },
  "time": {
    "samples": {
      "AcquisitionNumber": [1, 2, 3, 4, 5, 6, 7, 8, 9, 10, 11, 12, 13, 14, 15, 16, 17, 18, 19, 20, 21, 22, 23, 24, 25, 26, 27, 28, 29, 30, 31, 32, 33, 34, 35, 36, 37, 38, 39, 40, 41, 42, 43, 44, 45, 46, 47, 48, 49, 50, 51, 52, 53, 54, 55, 56, 57, 58, 59, 60, 61, 62, 63, 64, 65, 66, 67, 68, 69, 70, 71, 72, 73, 74, 75, 76, 77, 78, 79, 80, 81, 82, 83, 84, 85, 86, 87, 88, 89, 90, 91, 92, 93, 94, 95, 96, 97, 98, 99, 100, 101, 102, 103, 104, 105, 106, 107, 108, 109, 110, 111, 112, 113, 114, 115, 116, 117, 118, 119, 120, 121, 122, 123, 124, 125, 126, 127, 128, 129, 130, 131, 132, 133, 134, 135, 136, 137, 138, 139, 140, 141, 142, 143, 144, 145, 146, 147, 148, 149, 150, 151, 152, 153, 154, 155, 156, 157, 158, 159, 160, 161, 162, 163, 164, 165, 166, 167, 168, 169, 170, 171, 172, 173, 174, 175, 176, 177, 178, 179, 180, 181, 182, 183, 184, 185, 186, 187, 188, 189, 190, 191, 192, 193, 194, 195, 196, 197, 198, 199, 200, 201, 202, 203, 204, 205, 206, 207, 208, 209, 210, 211, 212, 213, 214, 215, 216, 217, 218, 219, 220, 221, 222, 223, 224, 225, 226, 227, 228, 229, 230, 231, 232, 233, 234, 235, 236, 237, 238, 239, 240, 241, 242, 243, 244, 245, 246, 247, 248, 249, 250, 251, 252, 253, 254, 255, 256, 257, 258, 259, 260, 261, 262, 263, 264, 265, 266, 267, 268, 269, 270, 271, 272, 273, 274, 275, 276, 277, 278, 279, 280, 281, 282, 283, 284, 285, 286, 287, 288, 289, 290, 291, 292, 293, 294, 295, 296, 297, 298, 299, 300, 301, 302, 303, 304, 305, 306, 307, 308, 309, 310, 311, 312, 313, 314, 315, 316, 317, 318, 319, 320, 321, 322, 323, 324, 325, 326, 327, 328, 329, 330, 331, 332, 333, 334, 335, 336, 337, 338, 339, 340, 341, 342, 343, 344, 345, 346, 347, 348, 349, 350, 351, 352, 353, 354, 355, 356, 357, 358, 359, 360, 361, 362, 363, 364, 365, 366, 367, 368, 369, 370, 371, 372, 373, 374, 375, 376, 377, 378, 379, 380, 381, 382, 383, 384, 385, 386, 387, 388, 389, 390, 391, 392, 393, 394, 395, 396, 397, 398, 399, 400, 401, 402, 403, 404, 405, 406, 407, 408, 409, 410, 411, 412, 413, 414, 415, 416, 417, 418, 419, 420, 421, 422, 423, 424, 425, 426, 427, 428, 429, 430, 431, 432, 433, 434, 435, 436, 437, 438, 439, 440, 441, 442, 443, 444, 445, 446, 447, 448, 449, 450, 451, 452],
      "AcquisitionTime": ["180204.797500", "180206.287500", "180207.777500", "180209.267500", "180210.757500", "180212.247500", "180213.737500", "180215.227500", "180216.717500", "180218.207500", "180219.697500", "180221.187500", "180222.677500", "180224.167500", "180225.657500", "180227.147500", "180228.637500", "180230.127500", "180231.617500", "180233.107500", "180234.597500", "180236.087500", "180237.577500", "180239.067500", "180240.557500", "180242.047500", "180243.537500", "180245.027500", "180246.517500", "180248.007500", "180249.497500", "180250.987500", "180252.477500", "180253.967500", "180255.457500", "180256.947500", "180258.437500", "180259.927500", "180301.417500", "180302.907500", "180304.397500", "180305.887500", "180307.377500", "180308.867500", "180310.357500", "180311.847500", "180313.337500", "180314.827500", "180316.317500", "180317.807500", "180319.297500", "180320.787500", "180322.277500", "180323.767500", "180325.257500", "180326.747500", "180328.237500", "180329.727500", "180331.217500", "180332.707500", "180334.197500", "180335.687500", "180337.177500", "180338.667500", "180340.157500", "180341.647500", "180343.137500", "180344.627500", "180346.117500", "180347.607500", "180349.097500", "180350.587500", "180352.077500", "180353.567500", "180355.057500", "180356.547500", "180358.037500", "180359.527500", "180401.017500", "180402.507500", "180403.997500", "180405.487500", "180406.977500", "180408.467500", "180409.957500", "180411.447500", "180412.937500", "180414.427500", "180415.917500", "180417.407500", "180418.897500", "180420.387500", "180421.877500", "180423.367500", "180424.857500", "180426.347500", "180427.837500", "180429.327500", "180430.817500", "180432.307500", "180433.797500", "180435.287500", "180436.777500", "180438.267500", "180439.757500", "180441.247500", "180442.737500", "180444.227500", "180445.717500", "180447.207500", "180448.697500", "180450.187500", "180451.677500", "180453.167500", "180454.657500", "180456.147500", "180457.637500", "180459.127500", "180500.617500", "180502.107500", "180503.597500", "180505.087500", "180506.577500", "180508.067500", "180509.557500", "180511.047500", "180512.537500", "180514.027500", "180515.517500", "180517.007500", "180518.497500", "180519.987500", "180521.477500", "180522.967500", "180524.457500", "180525.947500", "180527.437500", "180528.927500", "180530.417500", "180531.907500", "180533.397500", "180534.887500", "180536.377500", "180537.867500", "180539.357500", "180540.847500", "180542.337500", "180543.827500", "180545.317500", "180546.807500", "180548.297500", "180549.787500", "180551.277500", "180552.767500", "180554.257500", "180555.747500", "180557.237500", "180558.727500", "180600.217500", "180601.707500", "180603.197500", "180604.687500", "180606.177500", "180607.667500", "180609.157500", "180610.647500", "180612.137500", "180613.627500", "180615.117500", "180616.607500", "180618.097500", "180619.587500", "180621.077500", "180622.567500", "180624.057500", "180625.547500", "180627.037500", "180628.527500", "180630.017500", "180631.507500", "180632.997500", "180634.487500", "180635.977500", "180637.467500", "180638.957500", "180640.447500", "180641.937500", "180643.427500", "180644.917500", "180646.407500", "180647.897500", "180649.387500", "180650.877500", "180652.367500", "180653.857500", "180655.347500", "180656.837500", "180658.327500", "180659.817500", "180701.307500", "180702.797500", "180704.287500", "180705.777500", "180707.267500", "180708.757500", "180710.247500", "180711.737500", "180713.227500", "180714.717500", "180716.207500", "180717.697500", "180719.187500", "180720.677500", "180722.167500", "180723.657500", "180725.147500", "180726.637500", "180728.127500", "180729.617500", "180731.107500", "180732.597500", "180734.087500", "180735.577500", "180737.067500", "180738.557500", "180740.047500", "180741.537500", "180743.027500", "180744.517500", "180746.007500", "180747.497500", "180748.987500", "180750.477500", "180751.967500", "180753.457500", "180754.947500", "180756.437500", "180757.927500", "180759.417500", "180800.907500", "180802.397500", "180803.887500", "180805.377500", "180806.867500", "180808.357500", "180809.847500", "180811.337500", "180812.827500", "180814.317500", "180815.807500", "180817.297500", "180818.787500", "180820.277500", "180821.767500", "180823.257500", "180824.747500", "180826.237500", "180827.727500", "180829.217500", "180830.707500", "180832.197500", "180833.687500", "180835.177500", "180836.667500", "180838.157500", "180839.647500", "180841.137500", "180842.627500", "180844.117500", "180845.607500", "180847.097500", "180848.587500", "180850.077500", "180851.567500", "180853.057500", "180854.547500", "180856.037500", "180857.527500", "180859.017500", "180900.507500", "180901.997500", "180903.487500", "180904.977500", "180906.467500", "180907.957500", "180909.447500", "180910.937500", "180912.427500", "180913.917500", "180915.407500", "180916.897500", "180918.387500", "180919.877500", "180921.367500", "180922.857500", "180924.347500", "180925.837500", "180927.327500", "180928.817500", "180930.307500", "180931.797500", "180933.287500", "180934.777500", "180936.267500", "180937.757500", "180939.247500", "180940.737500", "180942.227500", "180943.717500", "180945.207500", "180946.697500", "180948.187500", "180949.677500", "180951.167500", "180952.657500", "180954.147500", "180955.637500", "180957.127500", "180958.617500", "181000.107500", "181001.597500", "181003.087500", "181004.577500", "181006.067500", "181007.557500", "181009.047500", "181010.537500", "181012.027500", "181013.517500", "181015.007500", "181016.497500", "181017.987500", "181019.477500", "181020.967500", "181022.457500", "181023.947500", "181025.437500", "181026.927500", "181028.417500", "181029.907500", "181031.397500", "181032.887500", "181034.377500", "181035.867500", "181037.357500", "181038.847500", "181040.337500", "181041.827500", "181043.317500", "181044.807500", "181046.297500", "181047.787500", "181049.277500", "181050.767500", "181052.257500", "181053.747500", "181055.237500", "181056.727500", "181058.217500", "181059.707500", "181101.197500", "181102.687500", "181104.177500", "181105.667500", "181107.157500", "181108.647500", "181110.137500", "181111.627500", "181113.117500", "181114.607500", "181116.097500", "181117.587500", "181119.077500", "181120.567500", "181122.057500", "181123.547500", "181125.037500", "181126.527500", "181128.017500", "181129.507500", "181130.997500", "181132.487500", "181133.977500", "181135.467500", "181136.957500", "181138.447500", "181139.937500", "181141.427500", "181142.917500", "181144.407500", "181145.897500", "181147.387500", "181148.877500", "181150.367500", "181151.857500", "181153.347500", "181154.837500", "181156.327500", "181157.817500", "181159.307500", "181200.797500", "181202.287500", "181203.777500", "181205.267500", "181206.757500", "181208.247500", "181209.737500", "181211.227500", "181212.717500", "181214.207500", "181215.697500", "181217.187500", "181218.677500", "181220.167500", "181221.657500", "181223.147500", "181224.637500", "181226.127500", "181227.617500", "181229.107500", "181230.597500", "181232.087500", "181233.577500", "181235.067500", "181236.557500", "181238.047500", "181239.537500", "181241.027500", "181242.517500", "181244.007500", "181245.497500", "181246.987500", "181248.477500", "181249.967500", "181251.457500", "181252.947500", "181254.437500", "181255.927500", "181257.417500", "181258.907500", "181300.397500", "181301.887500", "181303.377500", "181304.867500", "181306.357500", "181307.847500", "181309.337500", "181310.827500", "181312.317500", "181313.807500", "181315.297500", "181316.787500"],
      "ContentTime": ["180312.440000", "180312.443000", "180312.446000", "180312.449000", "180312.452000", "180312.455000", "180312.458000", "180312.461000", "180312.464000", "180312.467000", "180312.470000", "180312.472000", "180332.399000", "180332.402000", "180332.405000", "180332.408000", "180332.411000", "180332.414000", "180332.416000", "180332.434000", "180332.437000", "180332.440000", "180332.443000", "180332.446000", "180332.448000", "180332.465000", "180332.472000", "180332.474000", "180332.477000", "180332.480000", "180332.483000", "180332.486000", "180352.399000", "180352.402000", "180352.405000", "180352.408000", "180352.411000", "180352.414000", "180352.416000", "180352.419000", "180352.422000", "180352.425000", "180352.428000", "180352.431000", "180352.434000", "180352.437000", "180352.440000", "180352.443000", "180352.445000", "180352.449000", "180352.452000", "180352.454000", "180352.457000", "180412.399000", "180412.402000", "180412.405000", "180412.408000", "180412.411000", "180412.414000", "180412.417000", "180412.420000", "180412.423000", "180412.426000", "180412.428000", "180412.431000", "180412.434000", "180412.437000", "180412.440000", "180412.443000", "180412.446000", "180412.449000", "180412.452000", "180412.455000", "180432.399000", "180432.402000", "180432.405000", "180432.408000", "180432.411000", "180432.414000", "180432.421000", "180432.424000", "180432.427000", "180432.430000", "180432.433000", "180432.436000", "180432.439000", "180432.442000", "180432.445000", "180432.448000", "180432.451000", "180432.453000", "180432.456000", "180432.459000", "180512.400000", "180512.403000", "180512.406000", "180512.409000", "180512.412000", "180512.415000", "180512.418000", "180512.421000", "180512.423000", "180512.426000", "180512.429000", "180512.432000", "180512.435000", "180512.438000", "180512.441000", "180512.444000", "180512.447000", "180512.450000", "180512.453000", "180512.456000", "180512.458000", "180512.461000", "180512.464000", "180512.467000", "180512.470000", "180512.473000", "180512.476000", "180512.479000", "180512.482000", "180512.485000", "180512.488000", "180512.491000", "180552.399000", "180552.402000", "180552.405000", "180552.408000", "180552.411000", "180552.414000", "180552.417000", "180552.420000", "180552.423000", "180552.426000", "180552.428000", "180552.431000", "180552.434000", "180552.437000", "180552.440000", "180552.443000", "180552.446000", "180552.449000", "180552.452000", "180552.455000", "180552.458000", "180552.461000", "180552.464000", "180552.466000", "180552.469000", "180552.472000", "180552.475000", "180632.399000", "180632.402000", "180632.405000", "180632.408000", "180632.411000", "180632.414000", "180632.417000", "180632.420000", "180632.423000", "180632.426000", "180632.428000", "180632.431000", "180632.434000", "180632.437000", "180632.440000", "180632.443000", "180632.446000", "180632.449000", "180632.452000", "180632.455000", "180632.458000", "180632.461000", "180632.464000", "180632.467000", "180632.470000", "180632.473000", "180632.475000", "180712.400000", "180712.403000", "180712.406000", "180712.409000", "180712.412000", "180712.415000", "180712.418000", "180712.421000", "180712.424000", "180712.427000", "180712.429000", "180712.432000", "180712.435000", "180712.438000", "180712.441000", "180712.444000", "180712.447000", "180712.450000", "180712.453000", "180712.456000", "180712.460000", "180712.463000", "180712.466000", "180712.469000", "180712.472000", "180712.475000", "180752.400000", "180752.403000", "180752.406000", "180752.409000", "180752.412000", "180752.415000", "180752.418000", "180752.421000", "180752.424000", "180752.427000", "180752.430000", "180752.433000", "180752.436000", "180752.439000", "180752.441000", "180752.444000", "180752.447000", "180752.450000", "180752.453000", "180752.456000", "180752.459000", "180752.462000", "180752.480000", "180752.483000", "180752.485000", "180752.488000", "180752.491000", "180832.399000", "180832.402000", "180832.405000", "180832.408000", "180832.411000", "180832.414000", "180832.417000", "180832.420000", "180832.423000", "180832.426000", "180832.429000", "180832.432000", "180832.435000", "180832.437000", "180832.440000", "180832.443000", "180832.446000", "180832.449000", "180832.452000", "180832.455000", "180832.458000", "180832.461000", "180832.464000", "180832.467000", "180832.470000", "180832.473000", "180832.476000", "180912.399000", "180912.402000", "180912.405000", "180912.408000", "180912.411000", "180912.414000", "180912.417000", "180912.420000", "180912.423000", "180912.426000", "180912.429000", "180912.432000", "180912.434000", "180912.437000", "180912.440000", "180912.443000", "180912.446000", "180912.449000", "180912.452000", "180912.455000", "180912.458000", "180912.461000", "180912.464000", "180912.467000", "180912.470000", "180912.472000", "180912.475000", "180952.401000", "180952.405000", "180952.408000", "180952.411000", "180952.414000", "180952.416000", "180952.419000", "180952.422000", "180952.425000", "180952.428000", "180952.431000", "180952.434000", "180952.437000", "180952.440000", "180952.443000", "180952.446000", "180952.449000", "180952.452000", "180952.455000", "180952.458000", "180952.461000", "180952.463000", "180952.466000", "180952.469000", "180952.472000", "180952.475000", "180952.478000", "181032.399000", "181032.402000", "181032.411000", "181032.414000", "181032.417000", "181032.420000", "181032.423000", "181032.426000", "181032.429000", "181032.432000", "181032.435000", "181032.438000", "181032.441000", "181032.444000", "181032.447000", "181032.450000", "181032.466000", "181032.469000", "181032.472000", "181032.475000", "181032.478000", "181032.481000", "181032.484000", "181032.487000", "181032.490000", "181032.493000", "181032.496000", "181052.399000", "181052.402000", "181052.405000", "181052.408000", "181052.411000", "181052.414000", "181052.417000", "181052.420000", "181052.423000", "181052.426000", "181052.429000", "181052.432000", "181052.435000", "181132.399000", "181132.402000", "181132.405000", "181132.408000", "181132.411000", "181132.414000", "181132.417000", "181132.420000", "181132.423000", "181132.426000", "181132.429000", "181132.432000", "181132.435000", "181132.438000", "181132.440000", "181132.443000", "181132.446000", "181132.449000", "181132.452000", "181132.455000", "181132.458000", "181132.461000", "181132.464000", "181132.467000", "181132.470000", "181132.473000", "181132.476000", "181212.400000", "181212.403000", "181212.406000", "181212.409000", "181212.412000", "181212.415000", "181212.418000", "181212.421000", "181212.424000", "181212.427000", "181212.429000", "181212.432000", "181212.435000", "181212.438000", "181212.441000", "181212.444000", "181212.447000", "181212.450000", "181212.453000", "181212.456000", "181212.459000", "181212.462000", "181212.465000", "181212.468000", "181212.471000", "181212.474000", "181212.477000", "181252.399000", "181252.402000", "181252.405000", "181252.408000", "181252.411000", "181252.414000", "181252.417000", "181252.420000", "181252.436000", "181252.439000", "181252.442000", "181252.445000", "181252.448000", "181252.450000", "181252.453000", "181252.456000", "181252.459000", "181252.462000", "181252.465000", "181252.468000", "181252.471000", "181252.474000", "181252.477000", "181252.480000", "181252.483000", "181252.486000", "181252.489000", "181319.179000", "181319.183000", "181319.186000", "181319.189000", "181319.192000", "181319.195000", "181319.197000", "181319.200000", "181319.203000", "181319.206000", "181319.209000", "181319.212000", "181319.216000", "181319.219000", "181319.222000", "181319.225000", "181319.227000", "181319.231000"],
