{
  "AcquisitionMatrixPE": 104,
  "AcquisitionNumber": 1,
  "AcquisitionTime": "09:39:4.647500",
  "BandwidthPerPixelPhaseEncode": 17.17,
  "BaseResolution": 104,
  "BodyPartExamined": "BRAIN",
  "CoilString": "HC1-7;NC1_2",
  "ConsistencyInfo": "N4_VE11C_LATEST_20160120",
  "ConversionSoftware": "dcm2niix",
  "ConversionSoftwareVersion": "v1.0.20190720  (JP2:OpenJPEG) GCC7.3.0",
  "DerivedVendorReportedEchoSpacing": 0.000560011,
  "DeviceSerialNumber": "167006",
  "DwellTime": 2.1e-06,
  "EchoTime": 0.037,
  "EchoTrainLength": 104,
  "EffectiveEchoSpacing": 0.000560011,
  "FlipAngle": 52,
  "ImageComments": "Unaliased_MB4_PE3_LB",
  "ImageOrientationPatientDICOM": [0.99993, -0.0117964, -0.000959403, 0.0109953, 0.955892, -0.293512],
  "ImageType": [
    "ORIGINAL",
    "PRIMARY",
    "M",
    "MB",
    "ND",
    "MOSAIC"
],
  "ImagingFrequency": 123.259,
  "InPlanePhaseEncodingDirectionDICOM": "COL",
  "InstitutionAddress": "Chemin_Queen-Mary_4565_Montreal_District_CA_H3W_1W5",
  "InstitutionName": "IUGM",
  "InstitutionalDepartmentName": "Department",
  "MRAcquisitionType": "2D",
  "MagneticFieldStrength": 3,
  "Manufacturer": "Siemens",
  "ManufacturersModelName": "Prisma_fit",
  "Modality": "MR",
  "MultibandAccelerationFactor": 4,
  "PartialFourier": 1,
  "PatientPosition": "HFS",
  "PercentPhaseFOV": 100,
  "PhaseEncodingDirection": "j",
  "PhaseEncodingSteps": 104,
  "PhaseResolution": 1,
  "PixelBandwidth": 2290,
  "ProcedureStepDescription": "video_friends",
  "ProtocolName": "func_task-s01e19a",
  "PulseSequenceDetails": "%CustomerSeq%_cmrr_mbep2d_bold",
  "ReceiveCoilActiveElements": "HC1-7;NC1,2",
  "ReceiveCoilName": "HeadNeck_64",
  "ReconMatrixPE": 104,
  "RepetitionTime": 1.49,
  "SAR": 0.0284388,
  "ScanOptions": "FS",
  "ScanningSequence": "EP",
  "SequenceName": "epfid2d1_104",
  "SequenceVariant": "SK_SS",
  "SeriesDescription": "func_task-s01e19a",
  "SeriesNumber": 9,
  "ShimSetting": [624, -7203, -8807, 740, 15, 36, 18, 5],
  "SliceThickness": 2,
  "SliceTiming": [0, 0.785, 0.0975, 0.8825, 0.1975, 0.98, 0.295, 1.0775, 0.3925, 1.1775, 0.49, 1.275, 0.5875, 1.3725, 0.6875, 0, 0.785, 0.0975, 0.8825, 0.1975, 0.98, 0.295, 1.0775, 0.3925, 1.1775, 0.49, 1.275, 0.5875, 1.3725, 0.6875, 0, 0.785, 0.0975, 0.8825, 0.1975, 0.98, 0.295, 1.0775, 0.3925, 1.1775, 0.49, 1.275, 0.5875, 1.3725, 0.6875, 0, 0.785, 0.0975, 0.8825, 0.1975, 0.98, 0.295, 1.0775, 0.3925, 1.1775, 0.49, 1.275, 0.5875, 1.3725, 0.6875],
  "SoftwareVersions": "syngo_MR_E11",
  "SpacingBetweenSlices": 2,
  "StationName": "MRC35049",
  "TaskName": "friends",
  "TotalReadoutTime": 0.0576811,
  "TxRefAmp": 204.999,
  "WipMemBlock": "2b653083-28e4-4468-bdfa-144f1f2a957d||Sequence: R016 ve11c/master r/e634e98; Dec 19 2017 11:00:25 by eja",
  "dcmmeta_affine": [
    [-1.9998599290847778, 0.02199053019285202, -0.008758933283388615, 103.04524230957031],
    [0.023592805489897728, 1.9117845296859741, -0.5869609713554382, -81.73539733886719],
    [-0.0019188051810488105, 0.5870231986045837, 1.911910057067871, -64.80744171142578],
    [0.0, 0.0, 0.0, 1.0]
],
  "dcmmeta_reorient_transform": [
    [0.0, -1.0, 0.0, 103.0],
    [1.0, 0.0, 0.0, 0.0],
    [0.0, 0.0, 1.0, 0.0],
    [0.0, 0.0, 0.0, 1.0]
],
  "dcmmeta_shape": [104, 104, 60, 460],
  "dcmmeta_slice_dim": 2,
  "dcmmeta_version": 0.6,
  "global": {
    "const": {
      "AcquisitionMatrix": [104, 0, 0, 104],
      "AngioFlag": "N",
      "BitsAllocated": 16,
      "BitsStored": 16,
      "BodyPartExamined": "BRAIN",
      "Columns": 832,
      "EchoNumbers": 1,
      "EchoTime": 37.0,
      "EchoTrainLength": 104,
      "FlipAngle": 52.0,
      "HighBit": 15,
      "ImageOrientationPatient": [0.99992995975956, -0.0117964029225, -0.0009594025903, 0.01099526479832, 0.95589227874398, -0.2935115936205],
      "ImagePositionPatient": [-841.26383036834, -802.48020795353, 210.0308289304],
      "ImageType": [
        "ORIGINAL",
        "PRIMARY",
        "M",
        "MB",
        "ND",
        "MOSAIC"
],
      "ImagedNucleus": "1H",
      "ImagingFrequency": 123.25919,
      "InPlanePhaseEncodingDirection": "COL",
      "MRAcquisitionType": "2D",
      "MagneticFieldStrength": 3.0,
      "Manufacturer": "SIEMENS",
      "ManufacturerModelName": "Prisma_fit",
      "Modality": "MR",
      "NumberOfAverages": 1.0,
      "NumberOfPhaseEncodingSteps": 104,
      "PercentPhaseFieldOfView": 100.0,
      "PercentSampling": 100.0,
      "PerformedProcedureStepStartTime": "093540.150000",
      "PhotometricInterpretation": "MONOCHROME2",
      "PixelBandwidth": 2290.0,
      "PixelRepresentation": 0,
      "PixelSpacing": [2.0, 2.0],
      "ProtocolName": "func_task-s01e19a",
      "RepetitionTime": 1490.0,
      "Rows": 832,
      "SAR": 0.02843882497232,
      "SamplesPerPixel": 1,
      "ScanOptions": "FS",
      "ScanningSequence": "EP",
      "SequenceName": "epfid2d1_104",
      "SequenceVariant": [
        "SK",
        "SS"
],
      "SeriesDescription": "func_task-s01e19a",
      "SeriesNumber": 9,
      "SeriesTime": "094028.909000",
      "SliceLocation": -38.41654125863,
      "SliceThickness": 2.0,
      "SmallestImagePixelValue": 0,
      "SoftwareVersions": "syngo MR E11",
      "SpacingBetweenSlices": 2.0000000283622,
      "SpecificCharacterSet": "ISO_IR 100",
      "StudyID": "1",
      "StudyTime": "093540.005000",
      "TransmitCoilName": "Body",
      "VariableFlipAngleFlag": "N",
      "WindowCenterWidthExplanation": "Algo1",
      "dBdt": 0.0},
    "slices": {}
  },
  "time": {
    "samples": {
      "AcquisitionNumber": [1, 2, 3, 4, 5, 6, 7, 8, 9, 10, 11, 12, 13, 14, 15, 16, 17, 18, 19, 20, 21, 22, 23, 24, 25, 26, 27, 28, 29, 30, 31, 32, 33, 34, 35, 36, 37, 38, 39, 40, 41, 42, 43, 44, 45, 46, 47, 48, 49, 50, 51, 52, 53, 54, 55, 56, 57, 58, 59, 60, 61, 62, 63, 64, 65, 66, 67, 68, 69, 70, 71, 72, 73, 74, 75, 76, 77, 78, 79, 80, 81, 82, 83, 84, 85, 86, 87, 88, 89, 90, 91, 92, 93, 94, 95, 96, 97, 98, 99, 100, 101, 102, 103, 104, 105, 106, 107, 108, 109, 110, 111, 112, 113, 114, 115, 116, 117, 118, 119, 120, 121, 122, 123, 124, 125, 126, 127, 128, 129, 130, 131, 132, 133, 134, 135, 136, 137, 138, 139, 140, 141, 142, 143, 144, 145, 146, 147, 148, 149, 150, 151, 152, 153, 154, 155, 156, 157, 158, 159, 160, 161, 162, 163, 164, 165, 166, 167, 168, 169, 170, 171, 172, 173, 174, 175, 176, 177, 178, 179, 180, 181, 182, 183, 184, 185, 186, 187, 188, 189, 190, 191, 192, 193, 194, 195, 196, 197, 198, 199, 200, 201, 202, 203, 204, 205, 206, 207, 208, 209, 210, 211, 212, 213, 214, 215, 216, 217, 218, 219, 220, 221, 222, 223, 224, 225, 226, 227, 228, 229, 230, 231, 232, 233, 234, 235, 236, 237, 238, 239, 240, 241, 242, 243, 244, 245, 246, 247, 248, 249, 250, 251, 252, 253, 254, 255, 256, 257, 258, 259, 260, 261, 262, 263, 264, 265, 266, 267, 268, 269, 270, 271, 272, 273, 274, 275, 276, 277, 278, 279, 280, 281, 282, 283, 284, 285, 286, 287, 288, 289, 290, 291, 292, 293, 294, 295, 296, 297, 298, 299, 300, 301, 302, 303, 304, 305, 306, 307, 308, 309, 310, 311, 312, 313, 314, 315, 316, 317, 318, 319, 320, 321, 322, 323, 324, 325, 326, 327, 328, 329, 330, 331, 332, 333, 334, 335, 336, 337, 338, 339, 340, 341, 342, 343, 344, 345, 346, 347, 348, 349, 350, 351, 352, 353, 354, 355, 356, 357, 358, 359, 360, 361, 362, 363, 364, 365, 366, 367, 368, 369, 370, 371, 372, 373, 374, 375, 376, 377, 378, 379, 380, 381, 382, 383, 384, 385, 386, 387, 388, 389, 390, 391, 392, 393, 394, 395, 396, 397, 398, 399, 400, 401, 402, 403, 404, 405, 406, 407, 408, 409, 410, 411, 412, 413, 414, 415, 416, 417, 418, 419, 420, 421, 422, 423, 424, 425, 426, 427, 428, 429, 430, 431, 432, 433, 434, 435, 436, 437, 438, 439, 440, 441, 442, 443, 444, 445, 446, 447, 448, 449, 450, 451, 452, 453, 454, 455, 456, 457, 458, 459, 460],
      "AcquisitionTime": ["093904.647500", "093906.137500", "093907.627500", "093909.117500", "093910.607500", "093912.097500", "093913.587500", "093915.077500", "093916.567500", "093918.057500", "093919.547500", "093921.037500", "093922.527500", "093924.017500", "093925.507500", "093926.997500", "093928.487500", "093929.977500", "093931.467500", "093932.957500", "093934.447500", "093935.937500", "093937.427500", "093938.917500", "093940.407500", "093941.897500", "093943.387500", "093944.877500", "093946.367500", "093947.857500", "093949.347500", "093950.837500", "093952.327500", "093953.817500", "093955.307500", "093956.797500", "093958.287500", "093959.777500", "094001.267500", "094002.757500", "094004.247500", "094005.737500", "094007.227500", "094008.717500", "094010.207500", "094011.697500", "094013.187500", "094014.677500", "094016.167500", "094017.657500", "094019.147500", "094020.637500", "094022.127500", "094023.617500", "094025.107500", "094026.597500", "094028.087500", "094029.577500", "094031.067500", "094032.557500", "094034.047500", "094035.537500", "094037.027500", "094038.517500", "094040.007500", "094041.497500", "094042.987500", "094044.477500", "094045.967500", "094047.457500", "094048.947500", "094050.437500", "094051.927500", "094053.417500", "094054.907500", "094056.397500", "094057.887500", "094059.377500", "094100.867500", "094102.357500", "094103.847500", "094105.337500", "094106.827500", "094108.317500", "094109.807500", "094111.297500", "094112.787500", "094114.277500", "094115.767500", "094117.257500", "094118.747500", "094120.237500", "094121.727500", "094123.217500", "094124.707500", "094126.197500", "094127.687500", "094129.177500", "094130.667500", "094132.157500", "094133.647500", "094135.137500", "094136.627500", "094138.117500", "094139.607500", "094141.097500", "094142.587500", "094144.077500", "094145.567500", "094147.057500", "094148.547500", "094150.037500", "094151.527500", "094153.017500", "094154.507500", "094155.997500", "094157.487500", "094158.977500", "094200.467500", "094201.957500", "094203.447500", "094204.937500", "094206.427500", "094207.917500", "094209.407500", "094210.897500", "094212.387500", "094213.877500", "094215.367500", "094216.857500", "094218.347500", "094219.837500", "094221.327500", "094222.817500", "094224.307500", "094225.797500", "094227.287500", "094228.777500", "094230.267500", "094231.757500", "094233.247500", "094234.737500", "094236.227500", "094237.717500", "094239.207500", "094240.697500", "094242.187500", "094243.677500", "094245.167500", "094246.657500", "094248.147500", "094249.637500", "094251.127500", "094252.617500", "094254.107500", "094255.597500", "094257.087500", "094258.577500", "094300.067500", "094301.557500", "094303.047500", "094304.537500", "094306.027500", "094307.517500", "094309.007500", "094310.497500", "094311.987500", "094313.477500", "094314.967500", "094316.457500", "094317.947500", "094319.437500", "094320.927500", "094322.417500", "094323.907500", "094325.397500", "094326.887500", "094328.377500", "094329.867500", "094331.357500", "094332.847500", "094334.337500", "094335.827500", "094337.317500", "094338.807500", "094340.297500", "094341.787500", "094343.277500", "094344.767500", "094346.257500", "094347.747500", "094349.237500", "094350.727500", "094352.217500", "094353.707500", "094355.197500", "094356.687500", "094358.177500", "094359.667500", "094401.157500", "094402.647500", "094404.137500", "094405.627500", "094407.117500", "094408.607500", "094410.097500", "094411.587500", "094413.077500", "094414.567500", "094416.057500", "094417.547500", "094419.037500", "094420.527500", "094422.017500", "094423.507500", "094424.997500", "094426.487500", "094427.977500", "094429.467500", "094430.957500", "094432.447500", "094433.937500", "094435.427500", "094436.917500", "094438.407500", "094439.897500", "094441.387500", "094442.877500", "094444.367500", "094445.857500", "094447.347500", "094448.837500", "094450.327500", "094451.817500", "094453.307500", "094454.797500", "094456.287500", "094457.777500", "094459.267500", "094500.757500", "094502.247500", "094503.737500", "094505.227500", "094506.717500", "094508.207500", "094509.697500", "094511.187500", "094512.677500", "094514.167500", "094515.657500", "094517.147500", "094518.637500", "094520.127500", "094521.617500", "094523.107500", "094524.597500", "094526.087500", "094527.577500", "094529.067500", "094530.557500", "094532.047500", "094533.537500", "094535.027500", "094536.517500", "094538.007500", "094539.497500", "094540.987500", "094542.477500", "094543.967500", "094545.457500", "094546.947500", "094548.437500", "094549.927500", "094551.417500", "094552.907500", "094554.397500", "094555.887500", "094557.377500", "094558.867500", "094600.357500", "094601.847500", "094603.337500", "094604.827500", "094606.317500", "094607.807500", "094609.297500", "094610.787500", "094612.277500", "094613.767500", "094615.257500", "094616.747500", "094618.237500", "094619.727500", "094621.217500", "094622.707500", "094624.197500", "094625.687500", "094627.177500", "094628.667500", "094630.157500", "094631.647500", "094633.137500", "094634.627500", "094636.117500", "094637.607500", "094639.097500", "094640.587500", "094642.077500", "094643.567500", "094645.057500", "094646.547500", "094648.037500", "094649.527500", "094651.017500", "094652.507500", "094653.997500", "094655.487500", "094656.977500", "094658.467500", "094659.957500", "094701.447500", "094702.937500", "094704.427500", "094705.917500", "094707.407500", "094708.897500", "094710.387500", "094711.877500", "094713.367500", "094714.857500", "094716.347500", "094717.837500", "094719.327500", "094720.817500", "094722.307500", "094723.797500", "094725.287500", "094726.777500", "094728.267500", "094729.757500", "094731.247500", "094732.737500", "094734.227500", "094735.717500", "094737.207500", "094738.697500", "094740.187500", "094741.677500", "094743.167500", "094744.657500", "094746.147500", "094747.637500", "094749.127500", "094750.617500", "094752.107500", "094753.597500", "094755.087500", "094756.577500", "094758.067500", "094759.557500", "094801.047500", "094802.537500", "094804.027500", "094805.517500", "094807.007500", "094808.497500", "094809.987500", "094811.477500", "094812.967500", "094814.457500", "094815.947500", "094817.437500", "094818.927500", "094820.417500", "094821.907500", "094823.397500", "094824.887500", "094826.377500", "094827.867500", "094829.357500", "094830.847500", "094832.337500", "094833.827500", "094835.317500", "094836.807500", "094838.297500", "094839.787500", "094841.277500", "094842.767500", "094844.257500", "094845.747500", "094847.237500", "094848.727500", "094850.217500", "094851.707500", "094853.197500", "094854.687500", "094856.177500", "094857.667500", "094859.157500", "094900.647500", "094902.137500", "094903.627500", "094905.117500", "094906.607500", "094908.097500", "094909.587500", "094911.077500", "094912.567500", "094914.057500", "094915.547500", "094917.037500", "094918.527500", "094920.017500", "094921.507500", "094922.997500", "094924.487500", "094925.977500", "094927.467500", "094928.957500", "094930.447500", "094931.937500", "094933.427500", "094934.917500", "094936.407500", "094937.897500", "094939.387500", "094940.877500", "094942.367500", "094943.857500", "094945.347500", "094946.837500", "094948.327500", "094949.817500", "094951.307500", "094952.797500", "094954.287500", "094955.777500", "094957.267500", "094958.757500", "095000.247500", "095001.737500", "095003.227500", "095004.717500", "095006.207500", "095007.697500", "095009.187500", "095010.677500", "095012.167500", "095013.657500", "095015.147500", "095016.637500", "095018.127500", "095019.617500", "095021.107500", "095022.597500", "095024.087500", "095025.577500", "095027.067500", "095028.557500"],
      "ContentTime": ["094028.911000", "094028.915000", "094028.918000", "094028.921000", "094028.924000", "094028.926000", "094028.929000", "094028.932000", "094028.935000", "094028.938000", "094028.941000", "094028.944000", "094028.947000", "094028.950000", "094028.953000", "094028.955000", "094028.958000", "094028.961000", "094028.964000", "094028.967000", "094028.970000", "094028.973000", "094028.976000", "094028.978000", "094028.981000", "094028.984000", "094028.993000", "094028.995000", "094028.998000", "094048.878000", "094048.881000", "094048.884000", "094048.887000", "094048.889000", "094048.897000", "094048.900000", "094048.903000", "094048.906000", "094048.909000", "094048.911000", "094048.914000", "094048.917000", "094048.920000", "094048.923000", "094048.926000", "094048.929000", "094048.931000", "094048.934000", "094048.937000", "094108.879000", "094108.882000", "094108.885000", "094108.888000", "094108.890000", "094108.893000", "094108.896000", "094108.899000", "094108.902000", "094108.904000", "094108.907000", "094108.910000", "094108.913000", "094108.916000", "094108.919000", "094108.922000", "094108.924000", "094108.927000", "094108.930000", "094108.933000", "094128.878000", "094128.881000", "094128.884000", "094128.886000", "094128.889000", "094128.892000", "094128.895000", "094128.898000", "094128.901000", "094128.903000", "094128.917000", "094128.920000", "094128.923000", "094128.926000", "094128.928000", "094128.931000", "094128.936000", "094128.939000", "094128.942000", "094128.945000", "094148.878000", "094148.881000", "094148.884000", "094148.887000", "094148.890000", "094148.892000", "094148.895000", "094148.898000", "094148.901000", "094148.904000", "094148.907000", "094148.909000", "094148.912000", "094148.915000", "094148.918000", "094148.921000", "094148.924000", "094148.927000", "094148.930000", "094148.933000", "094228.878000", "094228.881000", "094228.884000", "094228.887000", "094228.890000", "094228.892000", "094228.895000", "094228.898000", "094228.901000", "094228.904000", "094228.907000", "094228.910000", "094228.913000", "094228.916000", "094228.918000", "094228.921000", "094228.924000", "094228.927000", "094228.930000", "094228.933000", "094228.936000", "094228.939000", "094228.942000", "094228.953000", "094228.956000", "094228.959000", "094228.962000", "094308.878000", "094308.881000", "094308.884000", "094308.887000", "094308.890000", "094308.892000", "094308.895000", "094308.898000", "094308.901000", "094308.904000", "094308.907000", "094308.910000", "094308.913000", "094308.916000", "094308.918000", "094308.921000", "094308.924000", "094308.927000", "094308.930000", "094308.933000", "094308.936000", "094308.938000", "094308.941000", "094308.944000", "094308.947000", "094308.950000", "094308.953000", "094348.878000", "094348.881000", "094348.884000", "094348.887000", "094348.890000", "094348.893000", "094348.896000", "094348.898000", "094348.901000", "094348.904000", "094348.907000", "094348.910000", "094348.913000", "094348.916000", "094348.919000", "094348.922000", "094348.925000", "094348.928000", "094348.931000", "094348.934000", "094348.936000", "094348.939000", "094348.942000", "094348.945000", "094348.948000", "094348.951000", "094348.954000", "094428.878000", "094428.881000", "094428.884000", "094428.887000", "094428.890000", "094428.892000", "094428.895000", "094428.898000", "094428.901000", "094428.904000", "094428.907000", "094428.910000", "094428.913000", "094428.915000", "094428.918000", "094428.921000", "094428.924000", "094428.927000", "094428.930000", "094428.933000", "094428.936000", "094428.939000", "094428.941000", "094428.944000", "094428.947000", "094428.950000", "094428.953000", "094508.878000", "094508.881000", "094508.884000", "094508.887000", "094508.889000", "094508.892000", "094508.895000", "094508.898000", "094508.901000", "094508.904000", "094508.907000", "094508.910000", "094508.912000", "094508.915000", "094508.918000", "094508.921000", "094508.924000", "094508.927000", "094508.930000", "094508.933000", "094508.936000", "094508.939000", "094508.942000", "094508.945000", "094508.948000", "094508.950000", "094508.953000", "094548.879000", "094548.882000", "094548.885000", "094548.888000", "094548.891000", "094548.893000", "094548.896000", "094548.899000", "094548.902000", "094548.905000", "094548.908000", "094548.911000", "094548.914000", "094548.917000", "094548.919000", "094548.922000", "094548.925000", "094548.928000", "094548.931000", "094548.934000", "094548.937000", "094548.940000", "094548.942000", "094548.958000", "094548.961000", "094548.964000", "094548.967000", "094628.878000", "094628.881000", "094628.884000", "094628.887000", "094628.890000", "094628.893000", "094628.895000", "094628.898000", "094628.901000", "094628.904000", "094628.907000", "094628.910000", "094628.913000", "094628.915000", "094628.918000", "094628.921000", "094628.924000", "094628.928000", "094628.931000", "094628.934000", "094628.937000", "094628.940000", "094628.943000", "094628.946000", "094628.949000", "094628.952000", "094708.878000", "094708.881000", "094708.884000", "094708.887000", "094708.889000", "094708.892000", "094708.895000", "094708.898000", "094708.901000", "094708.904000", "094708.907000", "094708.910000", "094708.913000", "094708.915000", "094708.918000", "094708.921000", "094708.924000", "094708.927000", "094708.930000", "094708.933000", "094708.936000", "094708.939000", "094708.941000", "094708.944000", "094708.947000", "094708.950000", "094708.953000", "094748.878000", "094748.881000", "094748.884000", "094748.887000", "094748.890000", "094748.893000", "094748.896000", "094748.898000", "094748.901000", "094748.904000", "094748.907000", "094748.910000", "094748.913000", "094748.916000", "094748.919000", "094748.922000", "094748.924000", "094748.927000", "094748.930000", "094748.933000", "094748.936000", "094748.939000", "094748.942000", "094748.945000", "094748.948000", "094748.951000", "094748.954000", "094828.878000", "094828.881000", "094828.884000", "094828.887000", "094828.890000", "094828.893000", "094828.896000", "094828.899000", "094828.901000", "094828.904000", "094828.907000", "094828.910000", "094828.913000", "094828.916000", "094828.919000", "094828.922000", "094828.924000", "094828.927000", "094828.930000", "094828.933000", "094828.936000", "094828.939000", "094828.942000", "094828.945000", "094828.948000", "094828.950000", "094828.953000", "094908.878000", "094908.881000", "094908.884000", "094908.887000", "094908.890000", "094908.893000", "094908.895000", "094908.898000", "094908.901000", "094908.904000", "094908.907000", "094908.910000", "094908.913000", "094908.916000", "094908.919000", "094908.921000", "094908.933000", "094908.936000", "094908.939000", "094908.942000", "094908.945000", "094908.947000", "094908.950000", "094908.953000", "094908.956000", "094908.959000", "094908.962000", "094948.878000", "094948.881000", "094948.884000", "094948.887000", "094948.890000", "094948.893000", "094948.895000", "094948.898000", "094948.901000", "094948.904000", "094948.907000", "094948.910000", "094948.913000", "094948.916000", "094948.919000", "094948.922000", "094948.925000", "094948.927000", "094948.930000", "094948.933000", "094948.936000", "094948.939000", "094948.942000", "094948.945000", "094948.948000", "094948.951000", "094948.953000", "095028.879000", "095028.882000", "095028.885000", "095028.888000", "095028.891000", "095028.894000", "095028.897000", "095028.899000", "095028.902000", "095028.905000", "095028.918000", "095028.921000", "095028.924000", "095028.927000", "095028.930000", "095028.935000", "095028.938000", "095028.941000", "095028.945000", "095028.948000", "095028.951000", "095028.955000", "095028.957000", "095028.960000", "095028.963000", "095028.967000", "095030.497000", "095030.501000"],
