{
  "AcquisitionMatrixPE": 104,
  "AcquisitionNumber": 1,
  "AcquisitionTime": "13:57:25.725000",
  "BandwidthPerPixelPhaseEncode": 17.17,
  "BaseResolution": 104,
  "BodyPartExamined": "BRAIN",
  "CoilString": "HC1-7;NC1_2",
  "ConsistencyInfo": "N4_VE11C_LATEST_20160120",
  "ConversionSoftware": "dcm2niix",
  "ConversionSoftwareVersion": "v1.0.20190720  (JP2:OpenJPEG) GCC7.3.0",
  "DerivedVendorReportedEchoSpacing": 0.000560011,
  "DeviceSerialNumber": "167006",
  "DwellTime": 2.1e-06,
  "EchoTime": 0.037,
  "EchoTrainLength": 104,
  "EffectiveEchoSpacing": 0.000560011,
  "FlipAngle": 52,
  "ImageComments": "Unaliased_MB4_PE3_LB",
  "ImageOrientationPatientDICOM": [0.999595, -0.0278995, 0.00566843, 0.026699, 0.849545, -0.526839],
  "ImageType": [
    "ORIGINAL",
    "PRIMARY",
    "M",
    "MB",
    "ND",
    "MOSAIC"
],
  "ImagingFrequency": 123.259,
  "InPlanePhaseEncodingDirectionDICOM": "COL",
  "InstitutionAddress": "Chemin_Queen-Mary_4565_Montreal_District_CA_H3W_1W5",
  "InstitutionName": "IUGM",
  "InstitutionalDepartmentName": "Department",
  "MRAcquisitionType": "2D",
  "MagneticFieldStrength": 3,
  "Manufacturer": "Siemens",
  "ManufacturersModelName": "Prisma_fit",
  "Modality": "MR",
  "MultibandAccelerationFactor": 4,
  "PartialFourier": 1,
  "PatientPosition": "HFS",
  "PercentPhaseFOV": 100,
  "PhaseEncodingDirection": "j",
  "PhaseEncodingSteps": 104,
  "PhaseResolution": 1,
  "PixelBandwidth": 2290,
  "ProcedureStepDescription": "video_friends",
  "ProtocolName": "func_task-s01e02b",
  "PulseSequenceDetails": "%CustomerSeq%_cmrr_mbep2d_bold",
  "ReceiveCoilActiveElements": "HC1-7;NC1,2",
  "ReceiveCoilName": "HeadNeck_64",
  "ReconMatrixPE": 104,
  "RepetitionTime": 1.49,
  "SAR": 0.0361849,
  "ScanOptions": "FS",
  "ScanningSequence": "EP",
  "SequenceName": "epfid2d1_104",
  "SequenceVariant": "SK_SS",
  "SeriesDescription": "func_task-s01e02b",
  "SeriesNumber": 16,
  "ShimSetting": [623, -7179, -8880, 411, -32, -157, 40, -32],
  "SliceThickness": 2,
  "SliceTiming": [0, 0.7825, 0.0975, 0.88, 0.195, 0.98, 0.2925, 1.0775, 0.39, 1.175, 0.49, 1.2725, 0.5875, 1.37, 0.685, 0, 0.7825, 0.0975, 0.88, 0.195, 0.98, 0.2925, 1.0775, 0.39, 1.175, 0.49, 1.2725, 0.5875, 1.37, 0.685, 0, 0.7825, 0.0975, 0.88, 0.195, 0.98, 0.2925, 1.0775, 0.39, 1.175, 0.49, 1.2725, 0.5875, 1.37, 0.685, 0, 0.7825, 0.0975, 0.88, 0.195, 0.98, 0.2925, 1.0775, 0.39, 1.175, 0.49, 1.2725, 0.5875, 1.37, 0.685],
  "SoftwareVersions": "syngo_MR_E11",
  "SpacingBetweenSlices": 2,
  "StationName": "MRC35049",
  "TaskName": "friends",
  "TotalReadoutTime": 0.0576811,
  "TxRefAmp": 250.688,
  "WipMemBlock": "e4bd7dd7-573e-4a09-b526-0f8d85212be4||Sequence: R016 ve11c/master r/e634e98; Dec 19 2017 11:00:25 by eja",
  "dcmmeta_affine": [
    [-1.9991893768310547, 0.05339809134602547, -0.019765907898545265, 100.20800018310547],
    [0.05579895153641701, 1.6990909576416016, -1.0535541772842407, -60.349544525146484],
    [0.011336853727698326, 1.0536786317825317, 1.6998920440673828, -107.53294372558594],
    [0.0, 0.0, 0.0, 1.0]
],
  "dcmmeta_reorient_transform": [
    [0.0, -1.0, 0.0, 103.0],
    [1.0, 0.0, 0.0, 0.0],
    [0.0, 0.0, 1.0, 0.0],
    [0.0, 0.0, 0.0, 1.0]
],
  "dcmmeta_shape": [104, 104, 60, 472],
  "dcmmeta_slice_dim": 2,
  "dcmmeta_version": 0.6,
  "global": {
    "const": {
      "AcquisitionMatrix": [104, 0, 0, 104],
      "AngioFlag": "N",
      "BitsAllocated": 16,
      "BitsStored": 16,
      "BodyPartExamined": "BRAIN",
      "Columns": 832,
      "EchoNumbers": 1,
      "EchoTime": 37.0,
      "EchoTrainLength": 104,
      "FlipAngle": 52.0,
      "HighBit": 15,
      "ImageOrientationPatient": [0.99959466192526, -0.0278994764344, 0.00566842704972, 0.02669904614871, 0.84954547054641, -0.5268393060591],
      "ImagePositionPatient": [-852.84982233476, -712.81510598673, 380.40835697423],
      "ImageType": [
        "ORIGINAL",
        "PRIMARY",
        "M",
        "MB",
        "ND",
        "MOSAIC"
],
      "ImagedNucleus": "1H",
      "ImagingFrequency": 123.259174,
      "InPlanePhaseEncodingDirection": "COL",
      "MRAcquisitionType": "2D",
      "MagneticFieldStrength": 3.0,
      "Manufacturer": "SIEMENS",
      "ManufacturerModelName": "Prisma_fit",
      "Modality": "MR",
      "NumberOfAverages": 1.0,
      "NumberOfPhaseEncodingSteps": 104,
      "PercentPhaseFieldOfView": 100.0,
      "PercentSampling": 100.0,
      "PerformedProcedureStepStartTime": "130822.089000",
      "PhotometricInterpretation": "MONOCHROME2",
      "PixelBandwidth": 2290.0,
      "PixelRepresentation": 0,
      "PixelSpacing": [2.0, 2.0],
      "ProtocolName": "func_task-s01e02b",
      "RepetitionTime": 1490.0,
      "Rows": 832,
      "SAR": 0.03618487467393,
      "SamplesPerPixel": 1,
      "ScanOptions": "FS",
      "ScanningSequence": "EP",
      "SequenceName": "epfid2d1_104",
      "SequenceVariant": [
        "SK",
        "SS"
],
      "SeriesDescription": "func_task-s01e02b",
      "SeriesNumber": 16,
      "SeriesTime": "135857.071000",
      "SliceLocation": -60.596785926142,
      "SliceThickness": 2.0,
      "SmallestImagePixelValue": 0,
      "SoftwareVersions": "syngo MR E11",
      "SpacingBetweenSlices": 1.9999999710306,
      "SpecificCharacterSet": "ISO_IR 100",
      "StudyID": "1",
      "StudyTime": "130821.945000",
      "TransmitCoilName": "Body",
      "VariableFlipAngleFlag": "N",
      "WindowCenterWidthExplanation": "Algo1",
      "dBdt": 0.0},
    "slices": {}
  },
  "time": {
    "samples": {
      "AcquisitionNumber": [1, 2, 3, 4, 5, 6, 7, 8, 9, 10, 11, 12, 13, 14, 15, 16, 17, 18, 19, 20, 21, 22, 23, 24, 25, 26, 27, 28, 29, 30, 31, 32, 33, 34, 35, 36, 37, 38, 39, 40, 41, 42, 43, 44, 45, 46, 47, 48, 49, 50, 51, 52, 53, 54, 55, 56, 57, 58, 59, 60, 61, 62, 63, 64, 65, 66, 67, 68, 69, 70, 71, 72, 73, 74, 75, 76, 77, 78, 79, 80, 81, 82, 83, 84, 85, 86, 87, 88, 89, 90, 91, 92, 93, 94, 95, 96, 97, 98, 99, 100, 101, 102, 103, 104, 105, 106, 107, 108, 109, 110, 111, 112, 113, 114, 115, 116, 117, 118, 119, 120, 121, 122, 123, 124, 125, 126, 127, 128, 129, 130, 131, 132, 133, 134, 135, 136, 137, 138, 139, 140, 141, 142, 143, 144, 145, 146, 147, 148, 149, 150, 151, 152, 153, 154, 155, 156, 157, 158, 159, 160, 161, 162, 163, 164, 165, 166, 167, 168, 169, 170, 171, 172, 173, 174, 175, 176, 177, 178, 179, 180, 181, 182, 183, 184, 185, 186, 187, 188, 189, 190, 191, 192, 193, 194, 195, 196, 197, 198, 199, 200, 201, 202, 203, 204, 205, 206, 207, 208, 209, 210, 211, 212, 213, 214, 215, 216, 217, 218, 219, 220, 221, 222, 223, 224, 225, 226, 227, 228, 229, 230, 231, 232, 233, 234, 235, 236, 237, 238, 239, 240, 241, 242, 243, 244, 245, 246, 247, 248, 249, 250, 251, 252, 253, 254, 255, 256, 257, 258, 259, 260, 261, 262, 263, 264, 265, 266, 267, 268, 269, 270, 271, 272, 273, 274, 275, 276, 277, 278, 279, 280, 281, 282, 283, 284, 285, 286, 287, 288, 289, 290, 291, 292, 293, 294, 295, 296, 297, 298, 299, 300, 301, 302, 303, 304, 305, 306, 307, 308, 309, 310, 311, 312, 313, 314, 315, 316, 317, 318, 319, 320, 321, 322, 323, 324, 325, 326, 327, 328, 329, 330, 331, 332, 333, 334, 335, 336, 337, 338, 339, 340, 341, 342, 343, 344, 345, 346, 347, 348, 349, 350, 351, 352, 353, 354, 355, 356, 357, 358, 359, 360, 361, 362, 363, 364, 365, 366, 367, 368, 369, 370, 371, 372, 373, 374, 375, 376, 377, 378, 379, 380, 381, 382, 383, 384, 385, 386, 387, 388, 389, 390, 391, 392, 393, 394, 395, 396, 397, 398, 399, 400, 401, 402, 403, 404, 405, 406, 407, 408, 409, 410, 411, 412, 413, 414, 415, 416, 417, 418, 419, 420, 421, 422, 423, 424, 425, 426, 427, 428, 429, 430, 431, 432, 433, 434, 435, 436, 437, 438, 439, 440, 441, 442, 443, 444, 445, 446, 447, 448, 449, 450, 451, 452, 453, 454, 455, 456, 457, 458, 459, 460, 461, 462, 463, 464, 465, 466, 467, 468, 469, 470, 471, 472],
      "AcquisitionTime": ["135725.725000", "135727.215000", "135728.705000", "135730.195000", "135731.685000", "135733.175000", "135734.665000", "135736.155000", "135737.645000", "135739.135000", "135740.625000", "135742.115000", "135743.605000", "135745.095000", "135746.585000", "135748.075000", "135749.565000", "135751.055000", "135752.545000", "135754.035000", "135755.525000", "135757.015000", "135758.505000", "135759.995000", "135801.485000", "135802.975000", "135804.465000", "135805.955000", "135807.445000", "135808.935000", "135810.425000", "135811.915000", "135813.405000", "135814.895000", "135816.385000", "135817.875000", "135819.365000", "135820.855000", "135822.345000", "135823.835000", "135825.325000", "135826.815000", "135828.305000", "135829.795000", "135831.285000", "135832.775000", "135834.265000", "135835.755000", "135837.245000", "135838.735000", "135840.225000", "135841.715000", "135843.205000", "135844.695000", "135846.185000", "135847.675000", "135849.165000", "135850.655000", "135852.145000", "135853.635000", "135855.125000", "135856.615000", "135858.105000", "135859.595000", "135901.085000", "135902.575000", "135904.065000", "135905.555000", "135907.045000", "135908.535000", "135910.025000", "135911.515000", "135913.005000", "135914.495000", "135915.985000", "135917.475000", "135918.965000", "135920.455000", "135921.945000", "135923.435000", "135924.925000", "135926.415000", "135927.905000", "135929.395000", "135930.885000", "135932.375000", "135933.865000", "135935.355000", "135936.845000", "135938.335000", "135939.825000", "135941.315000", "135942.805000", "135944.295000", "135945.785000", "135947.275000", "135948.765000", "135950.255000", "135951.745000", "135953.235000", "135954.725000", "135956.215000", "135957.705000", "135959.195000", "140000.685000", "140002.175000", "140003.665000", "140005.155000", "140006.645000", "140008.135000", "140009.625000", "140011.115000", "140012.605000", "140014.095000", "140015.585000", "140017.075000", "140018.565000", "140020.055000", "140021.545000", "140023.035000", "140024.525000", "140026.015000", "140027.505000", "140028.995000", "140030.485000", "140031.975000", "140033.465000", "140034.955000", "140036.445000", "140037.935000", "140039.425000", "140040.915000", "140042.405000", "140043.895000", "140045.385000", "140046.875000", "140048.365000", "140049.855000", "140051.345000", "140052.835000", "140054.325000", "140055.815000", "140057.305000", "140058.795000", "140100.285000", "140101.775000", "140103.265000", "140104.755000", "140106.245000", "140107.735000", "140109.225000", "140110.715000", "140112.205000", "140113.695000", "140115.185000", "140116.675000", "140118.165000", "140119.655000", "140121.145000", "140122.635000", "140124.125000", "140125.615000", "140127.105000", "140128.595000", "140130.085000", "140131.575000", "140133.065000", "140134.555000", "140136.045000", "140137.535000", "140139.025000", "140140.515000", "140142.005000", "140143.495000", "140144.985000", "140146.475000", "140147.965000", "140149.455000", "140150.945000", "140152.435000", "140153.925000", "140155.415000", "140156.905000", "140158.395000", "140159.885000", "140201.375000", "140202.865000", "140204.355000", "140205.845000", "140207.335000", "140208.825000", "140210.315000", "140211.805000", "140213.295000", "140214.785000", "140216.275000", "140217.765000", "140219.255000", "140220.745000", "140222.235000", "140223.725000", "140225.215000", "140226.705000", "140228.195000", "140229.685000", "140231.175000", "140232.665000", "140234.155000", "140235.645000", "140237.135000", "140238.625000", "140240.115000", "140241.605000", "140243.095000", "140244.585000", "140246.075000", "140247.565000", "140249.055000", "140250.545000", "140252.035000", "140253.525000", "140255.015000", "140256.505000", "140257.995000", "140259.485000", "140300.975000", "140302.465000", "140303.955000", "140305.445000", "140306.935000", "140308.425000", "140309.915000", "140311.405000", "140312.895000", "140314.385000", "140315.875000", "140317.365000", "140318.855000", "140320.345000", "140321.835000", "140323.325000", "140324.815000", "140326.305000", "140327.795000", "140329.285000", "140330.775000", "140332.265000", "140333.755000", "140335.245000", "140336.735000", "140338.225000", "140339.715000", "140341.205000", "140342.695000", "140344.185000", "140345.675000", "140347.165000", "140348.655000", "140350.145000", "140351.635000", "140353.125000", "140354.615000", "140356.105000", "140357.595000", "140359.085000", "140400.575000", "140402.065000", "140403.555000", "140405.045000", "140406.535000", "140408.025000", "140409.515000", "140411.005000", "140412.495000", "140413.985000", "140415.475000", "140416.965000", "140418.455000", "140419.945000", "140421.435000", "140422.925000", "140424.415000", "140425.905000", "140427.395000", "140428.885000", "140430.375000", "140431.865000", "140433.355000", "140434.845000", "140436.335000", "140437.825000", "140439.315000", "140440.805000", "140442.295000", "140443.785000", "140445.275000", "140446.765000", "140448.255000", "140449.745000", "140451.235000", "140452.725000", "140454.215000", "140455.705000", "140457.195000", "140458.685000", "140500.175000", "140501.665000", "140503.155000", "140504.645000", "140506.135000", "140507.625000", "140509.115000", "140510.605000", "140512.095000", "140513.585000", "140515.075000", "140516.565000", "140518.055000", "140519.545000", "140521.035000", "140522.525000", "140524.015000", "140525.505000", "140526.995000", "140528.485000", "140529.975000", "140531.465000", "140532.955000", "140534.445000", "140535.935000", "140537.425000", "140538.915000", "140540.405000", "140541.895000", "140543.385000", "140544.875000", "140546.365000", "140547.855000", "140549.345000", "140550.835000", "140552.325000", "140553.815000", "140555.305000", "140556.795000", "140558.285000", "140559.775000", "140601.265000", "140602.755000", "140604.245000", "140605.735000", "140607.225000", "140608.715000", "140610.205000", "140611.695000", "140613.185000", "140614.675000", "140616.165000", "140617.655000", "140619.145000", "140620.635000", "140622.125000", "140623.615000", "140625.105000", "140626.595000", "140628.085000", "140629.575000", "140631.065000", "140632.555000", "140634.045000", "140635.535000", "140637.025000", "140638.515000", "140640.005000", "140641.495000", "140642.985000", "140644.475000", "140645.965000", "140647.455000", "140648.945000", "140650.435000", "140651.925000", "140653.415000", "140654.905000", "140656.395000", "140657.885000", "140659.375000", "140700.865000", "140702.355000", "140703.845000", "140705.335000", "140706.825000", "140708.315000", "140709.805000", "140711.295000", "140712.785000", "140714.275000", "140715.765000", "140717.255000", "140718.745000", "140720.235000", "140721.725000", "140723.215000", "140724.705000", "140726.195000", "140727.685000", "140729.175000", "140730.665000", "140732.155000", "140733.645000", "140735.135000", "140736.625000", "140738.115000", "140739.605000", "140741.095000", "140742.585000", "140744.075000", "140745.565000", "140747.055000", "140748.545000", "140750.035000", "140751.525000", "140753.015000", "140754.505000", "140755.995000", "140757.485000", "140758.975000", "140800.465000", "140801.955000", "140803.445000", "140804.935000", "140806.425000", "140807.915000", "140809.405000", "140810.895000", "140812.385000", "140813.875000", "140815.365000", "140816.855000", "140818.345000", "140819.835000", "140821.325000", "140822.815000", "140824.305000", "140825.795000", "140827.285000", "140828.775000", "140830.265000", "140831.755000", "140833.245000", "140834.735000", "140836.225000", "140837.715000", "140839.205000", "140840.695000", "140842.185000", "140843.675000", "140845.165000", "140846.655000", "140848.145000", "140849.635000", "140851.125000", "140852.615000", "140854.105000", "140855.595000", "140857.085000", "140858.575000", "140900.065000", "140901.555000", "140903.045000", "140904.535000", "140906.025000", "140907.515000"],
      "ContentTime": ["135857.074000", "135857.077000", "135857.081000", "135857.083000", "135857.086000", "135857.089000", "135857.092000", "135857.095000", "135857.098000", "135857.100000", "135857.103000", "135857.106000", "135857.109000", "135857.112000", "135857.115000", "135857.117000", "135857.120000", "135857.123000", "135857.126000", "135857.129000", "135857.132000", "135857.134000", "135857.137000", "135857.140000", "135857.143000", "135857.146000", "135857.148000", "135857.151000", "135857.154000", "135857.157000", "135857.160000", "135857.163000", "135857.166000", "135857.168000", "135857.171000", "135857.178000", "135857.181000", "135857.184000", "135917.046000", "135917.063000", "135917.066000", "135917.069000", "135917.071000", "135917.074000", "135917.077000", "135917.080000", "135917.085000", "135917.087000", "135917.090000", "135917.093000", "135917.096000", "135917.099000", "135917.102000", "135917.104000", "135917.107000", "135917.110000", "135917.113000", "135917.116000", "135937.047000", "135937.050000", "135937.053000", "135937.056000", "135937.058000", "135937.061000", "135937.064000", "135937.067000", "135937.070000", "135937.073000", "135937.075000", "135937.078000", "135937.081000", "135937.084000", "135937.087000", "135937.090000", "135937.093000", "135937.095000", "135937.098000", "135937.101000", "135957.047000", "135957.050000", "135957.053000", "135957.056000", "135957.058000", "135957.061000", "135957.064000", "135957.067000", "135957.070000", "135957.073000", "135957.076000", "135957.079000", "135957.082000", "135957.085000", "135957.088000", "135957.090000", "135957.093000", "135957.096000", "135957.099000", "135957.102000", "140037.047000", "140037.050000", "140037.053000", "140037.056000", "140037.059000", "140037.062000", "140037.064000", "140037.067000", "140037.070000", "140037.073000", "140037.076000", "140037.079000", "140037.082000", "140037.085000", "140037.087000", "140037.090000", "140037.093000", "140037.096000", "140037.099000", "140037.101000", "140037.104000", "140037.107000", "140037.110000", "140037.113000", "140037.116000", "140037.119000", "140037.121000", "140037.124000", "140037.127000", "140117.046000", "140117.049000", "140117.052000", "140117.055000", "140117.058000", "140117.060000", "140117.063000", "140117.066000", "140117.069000", "140117.072000", "140117.075000", "140117.077000", "140117.080000", "140117.083000", "140117.086000", "140117.089000", "140117.092000", "140117.095000", "140117.098000", "140117.101000", "140117.104000", "140117.107000", "140117.110000", "140117.112000", "140117.115000", "140117.118000", "140117.121000", "140157.047000", "140157.050000", "140157.053000", "140157.056000", "140157.059000", "140157.062000", "140157.065000", "140157.067000", "140157.070000", "140157.073000", "140157.076000", "140157.079000", "140157.082000", "140157.085000", "140157.087000", "140157.090000", "140157.093000", "140157.096000", "140157.099000", "140157.102000", "140157.105000", "140157.107000", "140157.110000", "140157.113000", "140157.116000", "140157.119000", "140157.121000", "140237.047000", "140237.050000", "140237.053000", "140237.056000", "140237.059000", "140237.061000", "140237.064000", "140237.067000", "140237.070000", "140237.073000", "140237.076000", "140237.078000", "140237.081000", "140237.084000", "140237.087000", "140237.090000", "140237.092000", "140237.095000", "140237.098000", "140237.101000", "140237.104000", "140237.107000", "140237.110000", "140237.112000", "140237.115000", "140237.118000", "140237.121000", "140317.047000", "140317.050000", "140317.053000", "140317.056000", "140317.059000", "140317.062000", "140317.065000", "140317.068000", "140317.070000", "140317.073000", "140317.076000", "140317.079000", "140317.082000", "140317.085000", "140317.087000", "140317.090000", "140317.093000", "140317.096000", "140317.099000", "140317.102000", "140317.105000", "140317.108000", "140317.110000", "140317.113000", "140317.116000", "140317.119000", "140317.122000", "140357.046000", "140357.049000", "140357.052000", "140357.055000", "140357.058000", "140357.070000", "140357.073000", "140357.077000", "140357.079000", "140357.082000", "140357.085000", "140357.088000", "140357.092000", "140357.095000", "140357.098000", "140357.101000", "140357.104000", "140357.107000", "140357.110000", "140357.113000", "140357.115000", "140357.118000", "140357.121000", "140357.124000", "140357.127000", "140357.130000", "140437.047000", "140437.050000", "140437.053000", "140437.056000", "140437.059000", "140437.062000", "140437.065000", "140437.068000", "140437.070000", "140437.073000", "140437.076000", "140437.079000", "140437.082000", "140437.085000", "140437.088000", "140437.091000", "140437.093000", "140437.096000", "140437.099000", "140437.102000", "140437.105000", "140437.108000", "140437.111000", "140437.113000", "140437.116000", "140437.119000", "140437.122000", "140517.047000", "140517.050000", "140517.053000", "140517.056000", "140517.059000", "140517.062000", "140517.065000", "140517.067000", "140517.070000", "140517.073000", "140517.076000", "140517.079000", "140517.082000", "140517.085000", "140517.088000", "140517.090000", "140517.093000", "140517.096000", "140517.099000", "140517.102000", "140517.105000", "140517.108000", "140517.111000", "140517.114000", "140517.117000", "140517.119000", "140517.122000", "140557.046000", "140557.049000", "140557.052000", "140557.055000", "140557.058000", "140557.061000", "140557.064000", "140557.067000", "140557.069000", "140557.072000", "140557.075000", "140557.078000", "140557.081000", "140557.084000", "140557.087000", "140557.090000", "140557.093000", "140557.095000", "140557.098000", "140557.101000", "140557.104000", "140557.107000", "140557.110000", "140557.113000", "140557.115000", "140557.118000", "140557.121000", "140617.046000", "140617.049000", "140617.052000", "140617.055000", "140617.058000", "140617.061000", "140617.064000", "140617.067000", "140617.070000", "140617.072000", "140617.075000", "140617.079000", "140617.082000", "140657.047000", "140657.050000", "140657.053000", "140657.056000", "140657.059000", "140657.062000", "140657.065000", "140657.067000", "140657.070000", "140657.073000", "140657.076000", "140657.079000", "140657.082000", "140657.085000", "140657.088000", "140657.091000", "140657.093000", "140657.096000", "140657.099000", "140657.102000", "140657.105000", "140657.108000", "140657.111000", "140657.114000", "140657.116000", "140657.119000", "140657.122000", "140737.047000", "140737.050000", "140737.053000", "140737.056000", "140737.059000", "140737.062000", "140737.065000", "140737.068000", "140737.070000", "140737.073000", "140737.076000", "140737.079000", "140737.082000", "140737.085000", "140737.088000", "140737.091000", "140737.093000", "140737.096000", "140737.099000", "140737.102000", "140737.105000", "140737.108000", "140737.111000", "140737.114000", "140737.117000", "140737.119000", "140737.122000", "140817.046000", "140817.049000", "140817.056000", "140817.059000", "140817.062000", "140817.065000", "140817.068000", "140817.071000", "140817.073000", "140817.076000", "140817.079000", "140817.082000", "140817.085000", "140817.088000", "140817.091000", "140817.094000", "140817.096000", "140817.099000", "140817.102000", "140817.105000", "140817.120000", "140817.123000", "140817.126000", "140817.129000", "140817.131000", "140817.134000", "140817.137000", "140857.047000", "140857.050000", "140857.053000", "140857.056000", "140857.059000", "140857.062000", "140857.065000", "140857.068000", "140857.070000", "140857.073000", "140857.076000", "140857.079000", "140857.082000", "140857.085000", "140857.088000", "140857.091000", "140857.093000", "140857.096000", "140857.099000", "140857.102000", "140857.105000", "140857.108000", "140857.111000", "140857.114000", "140857.117000", "140857.119000", "140857.122000", "140910.037000", "140910.040000", "140910.043000", "140910.046000", "140910.049000", "140910.052000", "140910.055000", "140910.058000", "140910.067000"],
