{
  "AcquisitionMatrixPE": 104,
  "AcquisitionNumber": 1,
  "AcquisitionTime": "13:20:9.982500",
  "BandwidthPerPixelPhaseEncode": 17.17,
  "BaseResolution": 104,
  "BodyPartExamined": "BRAIN",
  "CoilString": "HC1-7;NC1_2",
  "ConsistencyInfo": "N4_VE11C_LATEST_20160120",
  "ConversionSoftware": "dcm2niix",
  "ConversionSoftwareVersion": "v1.0.20190720  (JP2:OpenJPEG) GCC7.3.0",
  "DerivedVendorReportedEchoSpacing": 0.000560011,
  "DeviceSerialNumber": "167006",
  "DwellTime": 2.1e-06,
  "EchoTime": 0.037,
  "EchoTrainLength": 104,
  "EffectiveEchoSpacing": 0.000560011,
  "FlipAngle": 52,
  "ImageComments": "Unaliased_MB4_PE3_LB",
  "ImageOrientationPatientDICOM": [0.999595, -0.0278995, 0.00566843, 0.026699, 0.849545, -0.526839],
  "ImageType": [
    "ORIGINAL",
    "PRIMARY",
    "M",
    "MB",
    "ND",
    "MOSAIC"
],
  "ImagingFrequency": 123.259,
  "InPlanePhaseEncodingDirectionDICOM": "COL",
  "InstitutionAddress": "Chemin_Queen-Mary_4565_Montreal_District_CA_H3W_1W5",
  "InstitutionName": "IUGM",
  "InstitutionalDepartmentName": "Department",
  "MRAcquisitionType": "2D",
  "MagneticFieldStrength": 3,
  "Manufacturer": "Siemens",
  "ManufacturersModelName": "Prisma_fit",
  "Modality": "MR",
  "MultibandAccelerationFactor": 4,
  "PartialFourier": 1,
  "PatientPosition": "HFS",
  "PercentPhaseFOV": 100,
  "PhaseEncodingDirection": "j",
  "PhaseEncodingSteps": 104,
  "PhaseResolution": 1,
  "PixelBandwidth": 2290,
  "ProcedureStepDescription": "video_friends",
  "ProtocolName": "func_task-s01e01a",
  "PulseSequenceDetails": "%CustomerSeq%_cmrr_mbep2d_bold",
  "ReceiveCoilActiveElements": "HC1-7;NC1,2",
  "ReceiveCoilName": "HeadNeck_64",
  "ReconMatrixPE": 104,
  "RepetitionTime": 1.49,
  "SAR": 0.036188,
  "ScanOptions": "FS",
  "ScanningSequence": "EP",
  "SequenceName": "epfid2d1_104",
  "SequenceVariant": "SK_SS",
  "SeriesDescription": "func_task-s01e01a",
  "SeriesNumber": 10,
  "ShimSetting": [623, -7179, -8880, 411, -32, -157, 40, -32],
  "SliceThickness": 2,
  "SliceTiming": [0, 0.7825, 0.0975, 0.88, 0.195, 0.98, 0.2925, 1.0775, 0.39, 1.175, 0.49, 1.2725, 0.5875, 1.37, 0.685, 0, 0.7825, 0.0975, 0.88, 0.195, 0.98, 0.2925, 1.0775, 0.39, 1.175, 0.49, 1.2725, 0.5875, 1.37, 0.685, 0, 0.7825, 0.0975, 0.88, 0.195, 0.98, 0.2925, 1.0775, 0.39, 1.175, 0.49, 1.2725, 0.5875, 1.37, 0.685, 0, 0.7825, 0.0975, 0.88, 0.195, 0.98, 0.2925, 1.0775, 0.39, 1.175, 0.49, 1.2725, 0.5875, 1.37, 0.685],
  "SoftwareVersions": "syngo_MR_E11",
  "SpacingBetweenSlices": 2,
  "StationName": "MRC35049",
  "TaskName": "friends",
  "TotalReadoutTime": 0.0576811,
  "TxRefAmp": 250.688,
  "WipMemBlock": "e2b4d124-2dcd-46f0-bb72-a3b5fce31e6f||Sequence: R016 ve11c/master r/e634e98; Dec 19 2017 11:00:25 by eja",
  "dcmmeta_affine": [
    [-1.9991893768310547, 0.05339809134602547, -0.019765907898545265, 100.20800018310547],
    [0.05579895153641701, 1.6990909576416016, -1.0535541772842407, -60.349544525146484],
    [0.011336853727698326, 1.0536786317825317, 1.6998920440673828, -107.53294372558594],
    [0.0, 0.0, 0.0, 1.0]
],
  "dcmmeta_reorient_transform": [
    [0.0, -1.0, 0.0, 103.0],
    [1.0, 0.0, 0.0, 0.0],
    [0.0, 0.0, 1.0, 0.0],
    [0.0, 0.0, 0.0, 1.0]
],
  "dcmmeta_shape": [104, 104, 60, 482],
  "dcmmeta_slice_dim": 2,
  "dcmmeta_version": 0.6,
  "global": {
    "const": {
      "AcquisitionMatrix": [104, 0, 0, 104],
      "AngioFlag": "N",
      "BitsAllocated": 16,
      "BitsStored": 16,
      "BodyPartExamined": "BRAIN",
      "Columns": 832,
      "EchoNumbers": 1,
      "EchoTime": 37.0,
      "EchoTrainLength": 104,
      "FlipAngle": 52.0,
      "HighBit": 15,
      "ImageOrientationPatient": [0.99959466192526, -0.0278994764344, 0.00566842704972, 0.02669904614871, 0.84954547054641, -0.5268393060591],
      "ImagePositionPatient": [-852.84982233476, -712.81510598673, 380.40835697423],
      "ImageType": [
        "ORIGINAL",
        "PRIMARY",
        "M",
        "MB",
        "ND",
        "MOSAIC"
],
      "ImagedNucleus": "1H",
      "ImagingFrequency": 123.259148,
      "InPlanePhaseEncodingDirection": "COL",
      "MRAcquisitionType": "2D",
      "MagneticFieldStrength": 3.0,
      "Manufacturer": "SIEMENS",
      "ManufacturerModelName": "Prisma_fit",
      "Modality": "MR",
      "NumberOfAverages": 1.0,
      "NumberOfPhaseEncodingSteps": 104,
      "PercentPhaseFieldOfView": 100.0,
      "PercentSampling": 100.0,
      "PerformedProcedureStepStartTime": "130822.089000",
      "PhotometricInterpretation": "MONOCHROME2",
      "PixelBandwidth": 2290.0,
      "PixelRepresentation": 0,
      "PixelSpacing": [2.0, 2.0],
      "ProtocolName": "func_task-s01e01a",
      "RepetitionTime": 1490.0,
      "Rows": 832,
      "SAR": 0.03618802085576,
      "SamplesPerPixel": 1,
      "ScanOptions": "FS",
      "ScanningSequence": "EP",
      "SequenceName": "epfid2d1_104",
      "SequenceVariant": [
        "SK",
        "SS"
],
      "SeriesDescription": "func_task-s01e01a",
      "SeriesNumber": 10,
      "SeriesTime": "132137.082000",
      "SliceLocation": -60.596785926142,
      "SliceThickness": 2.0,
      "SmallestImagePixelValue": 0,
      "SoftwareVersions": "syngo MR E11",
      "SpacingBetweenSlices": 1.9999999710306,
      "SpecificCharacterSet": "ISO_IR 100",
      "StudyID": "1",
      "StudyTime": "130821.945000",
      "TransmitCoilName": "Body",
      "VariableFlipAngleFlag": "N",
      "WindowCenterWidthExplanation": "Algo1",
      "dBdt": 0.0},
    "slices": {}
  },
  "time": {
    "samples": {
      "AcquisitionNumber": [1, 2, 3, 4, 5, 6, 7, 8, 9, 10, 11, 12, 13, 14, 15, 16, 17, 18, 19, 20, 21, 22, 23, 24, 25, 26, 27, 28, 29, 30, 31, 32, 33, 34, 35, 36, 37, 38, 39, 40, 41, 42, 43, 44, 45, 46, 47, 48, 49, 50, 51, 52, 53, 54, 55, 56, 57, 58, 59, 60, 61, 62, 63, 64, 65, 66, 67, 68, 69, 70, 71, 72, 73, 74, 75, 76, 77, 78, 79, 80, 81, 82, 83, 84, 85, 86, 87, 88, 89, 90, 91, 92, 93, 94, 95, 96, 97, 98, 99, 100, 101, 102, 103, 104, 105, 106, 107, 108, 109, 110, 111, 112, 113, 114, 115, 116, 117, 118, 119, 120, 121, 122, 123, 124, 125, 126, 127, 128, 129, 130, 131, 132, 133, 134, 135, 136, 137, 138, 139, 140, 141, 142, 143, 144, 145, 146, 147, 148, 149, 150, 151, 152, 153, 154, 155, 156, 157, 158, 159, 160, 161, 162, 163, 164, 165, 166, 167, 168, 169, 170, 171, 172, 173, 174, 175, 176, 177, 178, 179, 180, 181, 182, 183, 184, 185, 186, 187, 188, 189, 190, 191, 192, 193, 194, 195, 196, 197, 198, 199, 200, 201, 202, 203, 204, 205, 206, 207, 208, 209, 210, 211, 212, 213, 214, 215, 216, 217, 218, 219, 220, 221, 222, 223, 224, 225, 226, 227, 228, 229, 230, 231, 232, 233, 234, 235, 236, 237, 238, 239, 240, 241, 242, 243, 244, 245, 246, 247, 248, 249, 250, 251, 252, 253, 254, 255, 256, 257, 258, 259, 260, 261, 262, 263, 264, 265, 266, 267, 268, 269, 270, 271, 272, 273, 274, 275, 276, 277, 278, 279, 280, 281, 282, 283, 284, 285, 286, 287, 288, 289, 290, 291, 292, 293, 294, 295, 296, 297, 298, 299, 300, 301, 302, 303, 304, 305, 306, 307, 308, 309, 310, 311, 312, 313, 314, 315, 316, 317, 318, 319, 320, 321, 322, 323, 324, 325, 326, 327, 328, 329, 330, 331, 332, 333, 334, 335, 336, 337, 338, 339, 340, 341, 342, 343, 344, 345, 346, 347, 348, 349, 350, 351, 352, 353, 354, 355, 356, 357, 358, 359, 360, 361, 362, 363, 364, 365, 366, 367, 368, 369, 370, 371, 372, 373, 374, 375, 376, 377, 378, 379, 380, 381, 382, 383, 384, 385, 386, 387, 388, 389, 390, 391, 392, 393, 394, 395, 396, 397, 398, 399, 400, 401, 402, 403, 404, 405, 406, 407, 408, 409, 410, 411, 412, 413, 414, 415, 416, 417, 418, 419, 420, 421, 422, 423, 424, 425, 426, 427, 428, 429, 430, 431, 432, 433, 434, 435, 436, 437, 438, 439, 440, 441, 442, 443, 444, 445, 446, 447, 448, 449, 450, 451, 452, 453, 454, 455, 456, 457, 458, 459, 460, 461, 462, 463, 464, 465, 466, 467, 468, 469, 470, 471, 472, 473, 474, 475, 476, 477, 478, 479, 480, 481, 482],
      "AcquisitionTime": ["132009.982500", "132011.472500", "132012.962500", "132014.452500", "132015.942500", "132017.432500", "132018.922500", "132020.412500", "132021.902500", "132023.392500", "132024.882500", "132026.372500", "132027.862500", "132029.352500", "132030.842500", "132032.332500", "132033.822500", "132035.312500", "132036.802500", "132038.292500", "132039.782500", "132041.272500", "132042.762500", "132044.252500", "132045.742500", "132047.232500", "132048.722500", "132050.212500", "132051.702500", "132053.192500", "132054.682500", "132056.172500", "132057.662500", "132059.152500", "132100.642500", "132102.132500", "132103.622500", "132105.112500", "132106.602500", "132108.092500", "132109.582500", "132111.072500", "132112.562500", "132114.052500", "132115.542500", "132117.032500", "132118.522500", "132120.012500", "132121.502500", "132122.992500", "132124.482500", "132125.972500", "132127.462500", "132128.952500", "132130.442500", "132131.932500", "132133.422500", "132134.912500", "132136.402500", "132137.892500", "132139.382500", "132140.872500", "132142.362500", "132143.852500", "132145.342500", "132146.832500", "132148.322500", "132149.812500", "132151.302500", "132152.792500", "132154.282500", "132155.772500", "132157.262500", "132158.752500", "132200.242500", "132201.732500", "132203.222500", "132204.712500", "132206.202500", "132207.692500", "132209.182500", "132210.672500", "132212.162500", "132213.652500", "132215.142500", "132216.632500", "132218.122500", "132219.612500", "132221.102500", "132222.592500", "132224.082500", "132225.572500", "132227.062500", "132228.552500", "132230.042500", "132231.532500", "132233.022500", "132234.512500", "132236.002500", "132237.492500", "132238.982500", "132240.472500", "132241.962500", "132243.452500", "132244.942500", "132246.432500", "132247.922500", "132249.412500", "132250.902500", "132252.392500", "132253.882500", "132255.372500", "132256.862500", "132258.352500", "132259.842500", "132301.332500", "132302.822500", "132304.312500", "132305.802500", "132307.292500", "132308.782500", "132310.272500", "132311.762500", "132313.252500", "132314.742500", "132316.232500", "132317.722500", "132319.212500", "132320.702500", "132322.192500", "132323.682500", "132325.172500", "132326.662500", "132328.152500", "132329.642500", "132331.132500", "132332.622500", "132334.112500", "132335.602500", "132337.092500", "132338.582500", "132340.072500", "132341.562500", "132343.052500", "132344.542500", "132346.032500", "132347.522500", "132349.012500", "132350.502500", "132351.992500", "132353.482500", "132354.972500", "132356.462500", "132357.952500", "132359.442500", "132400.932500", "132402.422500", "132403.912500", "132405.402500", "132406.892500", "132408.382500", "132409.872500", "132411.362500", "132412.852500", "132414.342500", "132415.832500", "132417.322500", "132418.812500", "132420.302500", "132421.792500", "132423.282500", "132424.772500", "132426.262500", "132427.752500", "132429.242500", "132430.732500", "132432.222500", "132433.712500", "132435.202500", "132436.692500", "132438.182500", "132439.672500", "132441.162500", "132442.652500", "132444.142500", "132445.632500", "132447.122500", "132448.612500", "132450.102500", "132451.592500", "132453.082500", "132454.572500", "132456.062500", "132457.552500", "132459.042500", "132500.532500", "132502.022500", "132503.512500", "132505.002500", "132506.492500", "132507.982500", "132509.472500", "132510.962500", "132512.452500", "132513.942500", "132515.432500", "132516.922500", "132518.412500", "132519.902500", "132521.392500", "132522.882500", "132524.372500", "132525.862500", "132527.352500", "132528.842500", "132530.332500", "132531.822500", "132533.312500", "132534.802500", "132536.292500", "132537.782500", "132539.272500", "132540.762500", "132542.252500", "132543.742500", "132545.232500", "132546.722500", "132548.212500", "132549.702500", "132551.192500", "132552.682500", "132554.172500", "132555.662500", "132557.152500", "132558.642500", "132600.132500", "132601.622500", "132603.112500", "132604.602500", "132606.092500", "132607.582500", "132609.072500", "132610.562500", "132612.052500", "132613.542500", "132615.032500", "132616.522500", "132618.012500", "132619.502500", "132620.992500", "132622.482500", "132623.972500", "132625.462500", "132626.952500", "132628.442500", "132629.932500", "132631.422500", "132632.912500", "132634.402500", "132635.892500", "132637.382500", "132638.872500", "132640.362500", "132641.852500", "132643.342500", "132644.832500", "132646.322500", "132647.812500", "132649.302500", "132650.792500", "132652.282500", "132653.772500", "132655.262500", "132656.752500", "132658.242500", "132659.732500", "132701.222500", "132702.712500", "132704.202500", "132705.692500", "132707.182500", "132708.672500", "132710.162500", "132711.652500", "132713.142500", "132714.632500", "132716.122500", "132717.612500", "132719.102500", "132720.592500", "132722.082500", "132723.572500", "132725.062500", "132726.552500", "132728.042500", "132729.532500", "132731.022500", "132732.512500", "132734.002500", "132735.492500", "132736.982500", "132738.472500", "132739.962500", "132741.452500", "132742.942500", "132744.432500", "132745.922500", "132747.412500", "132748.902500", "132750.392500", "132751.882500", "132753.372500", "132754.862500", "132756.352500", "132757.842500", "132759.332500", "132800.822500", "132802.312500", "132803.802500", "132805.292500", "132806.782500", "132808.272500", "132809.762500", "132811.252500", "132812.742500", "132814.232500", "132815.722500", "132817.212500", "132818.702500", "132820.192500", "132821.682500", "132823.172500", "132824.662500", "132826.152500", "132827.642500", "132829.132500", "132830.622500", "132832.112500", "132833.602500", "132835.092500", "132836.582500", "132838.072500", "132839.562500", "132841.052500", "132842.542500", "132844.032500", "132845.522500", "132847.012500", "132848.502500", "132849.992500", "132851.482500", "132852.972500", "132854.462500", "132855.952500", "132857.442500", "132858.932500", "132900.422500", "132901.912500", "132903.402500", "132904.892500", "132906.382500", "132907.872500", "132909.362500", "132910.852500", "132912.342500", "132913.832500", "132915.322500", "132916.812500", "132918.302500", "132919.792500", "132921.282500", "132922.772500", "132924.262500", "132925.752500", "132927.242500", "132928.732500", "132930.222500", "132931.712500", "132933.202500", "132934.692500", "132936.182500", "132937.672500", "132939.162500", "132940.652500", "132942.142500", "132943.632500", "132945.122500", "132946.612500", "132948.102500", "132949.592500", "132951.082500", "132952.572500", "132954.062500", "132955.552500", "132957.042500", "132958.532500", "133000.022500", "133001.512500", "133003.002500", "133004.492500", "133005.982500", "133007.472500", "133008.962500", "133010.452500", "133011.942500", "133013.432500", "133014.922500", "133016.412500", "133017.902500", "133019.392500", "133020.882500", "133022.372500", "133023.862500", "133025.352500", "133026.842500", "133028.332500", "133029.822500", "133031.312500", "133032.802500", "133034.292500", "133035.782500", "133037.272500", "133038.762500", "133040.252500", "133041.742500", "133043.232500", "133044.722500", "133046.212500", "133047.702500", "133049.192500", "133050.682500", "133052.172500", "133053.662500", "133055.152500", "133056.642500", "133058.132500", "133059.622500", "133101.112500", "133102.602500", "133104.092500", "133105.582500", "133107.072500", "133108.562500", "133110.052500", "133111.542500", "133113.032500", "133114.522500", "133116.012500", "133117.502500", "133118.992500", "133120.482500", "133121.972500", "133123.462500", "133124.952500", "133126.442500", "133127.932500", "133129.422500", "133130.912500", "133132.402500", "133133.892500", "133135.382500", "133136.872500", "133138.362500", "133139.852500", "133141.342500", "133142.832500", "133144.322500", "133145.812500", "133147.302500", "133148.792500", "133150.282500", "133151.772500", "133153.262500", "133154.752500", "133156.242500", "133157.732500", "133159.222500", "133200.712500", "133202.202500", "133203.692500", "133205.182500", "133206.672500"],
      "ContentTime": ["132137.084000", "132137.088000", "132137.091000", "132137.093000", "132137.096000", "132137.099000", "132137.102000", "132137.105000", "132137.108000", "132137.111000", "132137.113000", "132137.116000", "132137.119000", "132137.122000", "132137.130000", "132137.133000", "132137.136000", "132137.139000", "132137.141000", "132137.146000", "132137.149000", "132137.152000", "132137.155000", "132137.158000", "132137.160000", "132137.163000", "132137.166000", "132137.169000", "132137.172000", "132137.175000", "132137.178000", "132157.046000", "132157.049000", "132157.052000", "132157.055000", "132157.057000", "132157.060000", "132157.063000", "132157.066000", "132157.069000", "132157.072000", "132157.075000", "132157.077000", "132157.080000", "132157.083000", "132157.086000", "132157.089000", "132157.092000", "132157.094000", "132157.097000", "132157.100000", "132217.046000", "132217.049000", "132217.056000", "132217.059000", "132217.062000", "132217.065000", "132217.068000", "132217.076000", "132217.079000", "132217.082000", "132217.085000", "132217.087000", "132217.090000", "132217.093000", "132217.096000", "132217.099000", "132217.108000", "132217.111000", "132217.114000", "132217.117000", "132217.120000", "132237.047000", "132237.050000", "132237.053000", "132237.056000", "132237.058000", "132237.064000", "132237.067000", "132237.070000", "132237.073000", "132237.076000", "132237.079000", "132237.081000", "132237.084000", "132237.087000", "132237.090000", "132237.093000", "132237.095000", "132237.098000", "132237.101000", "132237.104000", "132317.047000", "132317.050000", "132317.053000", "132317.055000", "132317.058000", "132317.068000", "132317.071000", "132317.074000", "132317.077000", "132317.080000", "132317.082000", "132317.085000", "132317.088000", "132317.091000", "132317.094000", "132317.097000", "132317.099000", "132317.102000", "132317.105000", "132317.108000", "132317.111000", "132317.114000", "132317.117000", "132317.119000", "132317.122000", "132317.125000", "132317.128000", "132317.131000", "132317.134000", "132317.137000", "132317.139000", "132317.142000", "132357.047000", "132357.050000", "132357.053000", "132357.056000", "132357.059000", "132357.062000", "132357.064000", "132357.067000", "132357.070000", "132357.073000", "132357.076000", "132357.079000", "132357.081000", "132357.084000", "132357.087000", "132357.090000", "132357.093000", "132357.096000", "132357.099000", "132357.101000", "132357.104000", "132357.107000", "132357.110000", "132357.113000", "132357.115000", "132357.118000", "132357.121000", "132437.046000", "132437.049000", "132437.052000", "132437.055000", "132437.058000", "132437.060000", "132437.063000", "132437.066000", "132437.069000", "132437.072000", "132437.075000", "132437.078000", "132437.080000", "132437.083000", "132437.086000", "132437.089000", "132437.101000", "132437.104000", "132437.107000", "132437.110000", "132437.113000", "132437.115000", "132437.118000", "132437.121000", "132437.124000", "132437.127000", "132437.130000", "132517.047000", "132517.050000", "132517.053000", "132517.056000", "132517.059000", "132517.061000", "132517.064000", "132517.067000", "132517.070000", "132517.073000", "132517.076000", "132517.079000", "132517.081000", "132517.084000", "132517.087000", "132517.090000", "132517.093000", "132517.112000", "132517.115000", "132517.118000", "132517.121000", "132517.123000", "132517.126000", "132517.129000", "132517.132000", "132517.135000", "132517.138000", "132557.047000", "132557.050000", "132557.053000", "132557.056000", "132557.059000", "132557.061000", "132557.077000", "132557.080000", "132557.083000", "132557.085000", "132557.088000", "132557.091000", "132557.094000", "132557.097000", "132557.100000", "132557.103000", "132557.106000", "132557.108000", "132557.111000", "132557.114000", "132557.117000", "132557.120000", "132557.123000", "132557.126000", "132557.128000", "132557.131000", "132557.134000", "132617.047000", "132617.050000", "132617.053000", "132617.056000", "132617.059000", "132617.062000", "132617.065000", "132617.068000", "132617.071000", "132617.073000", "132617.076000", "132617.079000", "132617.082000", "132657.046000", "132657.049000", "132657.052000", "132657.055000", "132657.058000", "132657.060000", "132657.063000", "132657.066000", "132657.069000", "132657.072000", "132657.075000", "132657.078000", "132657.080000", "132657.083000", "132657.086000", "132657.089000", "132657.092000", "132657.095000", "132657.098000", "132657.101000", "132657.103000", "132657.106000", "132657.109000", "132657.112000", "132657.115000", "132657.118000", "132657.121000", "132737.047000", "132737.050000", "132737.053000", "132737.056000", "132737.059000", "132737.061000", "132737.064000", "132737.067000", "132737.070000", "132737.073000", "132737.076000", "132737.079000", "132737.081000", "132737.084000", "132737.087000", "132737.090000", "132737.093000", "132737.096000", "132737.099000", "132737.102000", "132737.104000", "132737.107000", "132737.110000", "132737.113000", "132737.116000", "132737.119000", "132737.122000", "132817.047000", "132817.050000", "132817.053000", "132817.056000", "132817.059000", "132817.062000", "132817.064000", "132817.067000", "132817.070000", "132817.073000", "132817.076000", "132817.079000", "132817.082000", "132817.085000", "132817.087000", "132817.090000", "132817.093000", "132817.100000", "132817.103000", "132817.106000", "132817.109000", "132817.112000", "132817.115000", "132817.117000", "132817.120000", "132817.123000", "132817.126000", "132857.046000", "132857.049000", "132857.052000", "132857.055000", "132857.058000", "132857.061000", "132857.064000", "132857.066000", "132857.069000", "132857.072000", "132857.075000", "132857.078000", "132857.081000", "132857.084000", "132857.087000", "132857.090000", "132857.092000", "132857.095000", "132857.098000", "132857.101000", "132857.104000", "132857.107000", "132857.109000", "132857.112000", "132857.115000", "132857.121000", "132937.047000", "132937.050000", "132937.053000", "132937.056000", "132937.059000", "132937.062000", "132937.064000", "132937.067000", "132937.070000", "132937.073000", "132937.076000", "132937.079000", "132937.082000", "132937.085000", "132937.087000", "132937.090000", "132937.093000", "132937.096000", "132937.099000", "132937.102000", "132937.105000", "132937.107000", "132937.110000", "132937.113000", "132937.116000", "132937.119000", "132937.137000", "133017.047000", "133017.050000", "133017.053000", "133017.056000", "133017.059000", "133017.062000", "133017.075000", "133017.078000", "133017.081000", "133017.090000", "133017.093000", "133017.096000", "133017.099000", "133017.102000", "133017.105000", "133017.108000", "133017.111000", "133017.114000", "133017.117000", "133017.119000", "133017.122000", "133017.125000", "133017.128000", "133017.131000", "133017.134000", "133017.137000", "133017.140000", "133057.047000", "133057.050000", "133057.053000", "133057.056000", "133057.059000", "133057.061000", "133057.064000", "133057.067000", "133057.070000", "133057.073000", "133057.076000", "133057.079000", "133057.082000", "133057.084000", "133057.087000", "133057.090000", "133057.093000", "133057.096000", "133057.099000", "133057.102000", "133057.104000", "133057.107000", "133057.110000", "133057.113000", "133057.116000", "133057.119000", "133057.122000", "133137.046000", "133137.049000", "133137.052000", "133137.055000", "133137.058000", "133137.061000", "133137.064000", "133137.066000", "133137.069000", "133137.072000", "133137.075000", "133137.078000", "133137.081000", "133137.084000", "133137.087000", "133137.089000", "133137.092000", "133137.095000", "133137.098000", "133137.101000", "133137.104000", "133137.107000", "133137.109000", "133137.112000", "133137.115000", "133137.118000", "133137.121000", "133209.293000", "133209.296000", "133209.299000", "133209.302000", "133209.305000", "133209.308000", "133209.311000", "133209.314000", "133209.317000", "133209.320000", "133209.323000", "133209.326000", "133209.329000", "133209.332000", "133209.335000", "133209.338000", "133209.341000", "133209.344000", "133209.347000", "133209.350000", "133209.353000", "133209.356000"],
