{
  "AcquisitionMatrixPE": 104,
  "AcquisitionNumber": 1,
  "AcquisitionTime": "14:22:50.085000",
  "BandwidthPerPixelPhaseEncode": 17.17,
  "BaseResolution": 104,
  "BodyPartExamined": "BRAIN",
  "CoilString": "HC1-7;NC1_2",
  "ConsistencyInfo": "N4_VE11C_LATEST_20160120",
  "ConversionSoftware": "dcm2niix",
  "ConversionSoftwareVersion": "v1.0.20190720  (JP2:OpenJPEG) GCC7.3.0",
  "DerivedVendorReportedEchoSpacing": 0.000560011,
  "DeviceSerialNumber": "167006",
  "DwellTime": 2.1e-06,
  "EchoTime": 0.037,
  "EchoTrainLength": 104,
  "EffectiveEchoSpacing": 0.000560011,
  "FlipAngle": 52,
  "ImageComments": "Unaliased_MB4_PE3_LB",
  "ImageOrientationPatientDICOM": [0.999595, -0.0278995, 0.00566843, 0.026699, 0.849545, -0.526839],
  "ImageType": [
    "ORIGINAL",
    "PRIMARY",
    "M",
    "MB",
    "ND",
    "MOSAIC"
],
  "ImagingFrequency": 123.259,
  "InPlanePhaseEncodingDirectionDICOM": "COL",
  "InstitutionAddress": "Chemin_Queen-Mary_4565_Montreal_District_CA_H3W_1W5",
  "InstitutionName": "IUGM",
  "InstitutionalDepartmentName": "Department",
  "MRAcquisitionType": "2D",
  "MagneticFieldStrength": 3,
  "Manufacturer": "Siemens",
  "ManufacturersModelName": "Prisma_fit",
  "Modality": "MR",
  "MultibandAccelerationFactor": 4,
  "PartialFourier": 1,
  "PatientPosition": "HFS",
  "PercentPhaseFOV": 100,
  "PhaseEncodingDirection": "j",
  "PhaseEncodingSteps": 104,
  "PhaseResolution": 1,
  "PixelBandwidth": 2290,
  "ProcedureStepDescription": "video_friends",
  "ProtocolName": "func_task-s01e03b",
  "PulseSequenceDetails": "%CustomerSeq%_cmrr_mbep2d_bold",
  "ReceiveCoilActiveElements": "HC1-7;NC1,2",
  "ReceiveCoilName": "HeadNeck_64",
  "ReconMatrixPE": 104,
  "RepetitionTime": 1.49,
  "SAR": 0.0361942,
  "ScanOptions": "FS",
  "ScanningSequence": "EP",
  "SequenceName": "epfid2d1_104",
  "SequenceVariant": "SK_SS",
  "SeriesDescription": "func_task-s01e03b",
  "SeriesNumber": 20,
  "ShimSetting": [623, -7179, -8880, 411, -32, -157, 40, -32],
  "SliceThickness": 2,
  "SliceTiming": [0, 0.7825, 0.0975, 0.88, 0.195, 0.98, 0.2925, 1.0775, 0.39, 1.175, 0.49, 1.2725, 0.5875, 1.37, 0.685, 0, 0.7825, 0.0975, 0.88, 0.195, 0.98, 0.2925, 1.0775, 0.39, 1.175, 0.49, 1.2725, 0.5875, 1.37, 0.685, 0, 0.7825, 0.0975, 0.88, 0.195, 0.98, 0.2925, 1.0775, 0.39, 1.175, 0.49, 1.2725, 0.5875, 1.37, 0.685, 0, 0.7825, 0.0975, 0.88, 0.195, 0.98, 0.2925, 1.0775, 0.39, 1.175, 0.49, 1.2725, 0.5875, 1.37, 0.685],
  "SoftwareVersions": "syngo_MR_E11",
  "SpacingBetweenSlices": 2,
  "StationName": "MRC35049",
  "TaskName": "friends",
  "TotalReadoutTime": 0.0576811,
  "TxRefAmp": 250.688,
  "WipMemBlock": "6260d02d-7f15-413f-8e79-bbcb2e48db0f||Sequence: R016 ve11c/master r/e634e98; Dec 19 2017 11:00:25 by eja",
  "dcmmeta_affine": [
    [-1.9991893768310547, 0.05339809134602547, -0.019765907898545265, 100.20800018310547],
    [0.05579895153641701, 1.6990909576416016, -1.0535541772842407, -60.349544525146484],
    [0.011336853727698326, 1.0536786317825317, 1.6998920440673828, -107.53294372558594],
    [0.0, 0.0, 0.0, 1.0]
],
  "dcmmeta_reorient_transform": [
    [0.0, -1.0, 0.0, 103.0],
    [1.0, 0.0, 0.0, 0.0],
    [0.0, 0.0, 1.0, 0.0],
    [0.0, 0.0, 0.0, 1.0]
],
  "dcmmeta_shape": [104, 104, 60, 503],
  "dcmmeta_slice_dim": 2,
  "dcmmeta_version": 0.6,
  "global": {
    "const": {
      "AcquisitionMatrix": [104, 0, 0, 104],
      "AngioFlag": "N",
      "BitsAllocated": 16,
      "BitsStored": 16,
      "BodyPartExamined": "BRAIN",
      "Columns": 832,
      "EchoNumbers": 1,
      "EchoTime": 37.0,
      "EchoTrainLength": 104,
      "FlipAngle": 52.0,
      "HighBit": 15,
      "ImageOrientationPatient": [0.99959466192526, -0.0278994764344, 0.00566842704972, 0.02669904614871, 0.84954547054641, -0.5268393060591],
      "ImagePositionPatient": [-852.84982233476, -712.81510598673, 380.40835697423],
      "ImageType": [
        "ORIGINAL",
        "PRIMARY",
        "M",
        "MB",
        "ND",
        "MOSAIC"
],
      "ImagedNucleus": "1H",
      "ImagingFrequency": 123.259177,
      "InPlanePhaseEncodingDirection": "COL",
      "MRAcquisitionType": "2D",
      "MagneticFieldStrength": 3.0,
      "Manufacturer": "SIEMENS",
      "ManufacturerModelName": "Prisma_fit",
      "Modality": "MR",
      "NumberOfAverages": 1.0,
      "NumberOfPhaseEncodingSteps": 104,
      "PercentPhaseFieldOfView": 100.0,
      "PercentSampling": 100.0,
      "PerformedProcedureStepStartTime": "130822.089000",
      "PhotometricInterpretation": "MONOCHROME2",
      "PixelBandwidth": 2290.0,
      "PixelRepresentation": 0,
      "PixelSpacing": [2.0, 2.0],
      "ProtocolName": "func_task-s01e03b",
      "RepetitionTime": 1490.0,
      "Rows": 832,
      "SAR": 0.03619422095103,
      "SamplesPerPixel": 1,
      "ScanOptions": "FS",
      "ScanningSequence": "EP",
      "SequenceName": "epfid2d1_104",
      "SequenceVariant": [
        "SK",
        "SS"
],
      "SeriesDescription": "func_task-s01e03b",
      "SeriesNumber": 20,
      "SeriesTime": "142418.941000",
      "SliceLocation": -60.596785926142,
      "SliceThickness": 2.0,
      "SmallestImagePixelValue": 0,
      "SoftwareVersions": "syngo MR E11",
      "SpacingBetweenSlices": 1.9999999710306,
      "SpecificCharacterSet": "ISO_IR 100",
      "StudyID": "1",
      "StudyTime": "130821.945000",
      "TransmitCoilName": "Body",
      "VariableFlipAngleFlag": "N",
      "WindowCenterWidthExplanation": "Algo1",
      "dBdt": 0.0},
    "slices": {}
  },
  "time": {
    "samples": {
      "AcquisitionNumber": [1, 2, 3, 4, 5, 6, 7, 8, 9, 10, 11, 12, 13, 14, 15, 16, 17, 18, 19, 20, 21, 22, 23, 24, 25, 26, 27, 28, 29, 30, 31, 32, 33, 34, 35, 36, 37, 38, 39, 40, 41, 42, 43, 44, 45, 46, 47, 48, 49, 50, 51, 52, 53, 54, 55, 56, 57, 58, 59, 60, 61, 62, 63, 64, 65, 66, 67, 68, 69, 70, 71, 72, 73, 74, 75, 76, 77, 78, 79, 80, 81, 82, 83, 84, 85, 86, 87, 88, 89, 90, 91, 92, 93, 94, 95, 96, 97, 98, 99, 100, 101, 102, 103, 104, 105, 106, 107, 108, 109, 110, 111, 112, 113, 114, 115, 116, 117, 118, 119, 120, 121, 122, 123, 124, 125, 126, 127, 128, 129, 130, 131, 132, 133, 134, 135, 136, 137, 138, 139, 140, 141, 142, 143, 144, 145, 146, 147, 148, 149, 150, 151, 152, 153, 154, 155, 156, 157, 158, 159, 160, 161, 162, 163, 164, 165, 166, 167, 168, 169, 170, 171, 172, 173, 174, 175, 176, 177, 178, 179, 180, 181, 182, 183, 184, 185, 186, 187, 188, 189, 190, 191, 192, 193, 194, 195, 196, 197, 198, 199, 200, 201, 202, 203, 204, 205, 206, 207, 208, 209, 210, 211, 212, 213, 214, 215, 216, 217, 218, 219, 220, 221, 222, 223, 224, 225, 226, 227, 228, 229, 230, 231, 232, 233, 234, 235, 236, 237, 238, 239, 240, 241, 242, 243, 244, 245, 246, 247, 248, 249, 250, 251, 252, 253, 254, 255, 256, 257, 258, 259, 260, 261, 262, 263, 264, 265, 266, 267, 268, 269, 270, 271, 272, 273, 274, 275, 276, 277, 278, 279, 280, 281, 282, 283, 284, 285, 286, 287, 288, 289, 290, 291, 292, 293, 294, 295, 296, 297, 298, 299, 300, 301, 302, 303, 304, 305, 306, 307, 308, 309, 310, 311, 312, 313, 314, 315, 316, 317, 318, 319, 320, 321, 322, 323, 324, 325, 326, 327, 328, 329, 330, 331, 332, 333, 334, 335, 336, 337, 338, 339, 340, 341, 342, 343, 344, 345, 346, 347, 348, 349, 350, 351, 352, 353, 354, 355, 356, 357, 358, 359, 360, 361, 362, 363, 364, 365, 366, 367, 368, 369, 370, 371, 372, 373, 374, 375, 376, 377, 378, 379, 380, 381, 382, 383, 384, 385, 386, 387, 388, 389, 390, 391, 392, 393, 394, 395, 396, 397, 398, 399, 400, 401, 402, 403, 404, 405, 406, 407, 408, 409, 410, 411, 412, 413, 414, 415, 416, 417, 418, 419, 420, 421, 422, 423, 424, 425, 426, 427, 428, 429, 430, 431, 432, 433, 434, 435, 436, 437, 438, 439, 440, 441, 442, 443, 444, 445, 446, 447, 448, 449, 450, 451, 452, 453, 454, 455, 456, 457, 458, 459, 460, 461, 462, 463, 464, 465, 466, 467, 468, 469, 470, 471, 472, 473, 474, 475, 476, 477, 478, 479, 480, 481, 482, 483, 484, 485, 486, 487, 488, 489, 490, 491, 492, 493, 494, 495, 496, 497, 498, 499, 500, 501, 502, 503],
      "AcquisitionTime": ["142250.085000", "142251.575000", "142253.065000", "142254.555000", "142256.045000", "142257.535000", "142259.025000", "142300.515000", "142302.005000", "142303.495000", "142304.985000", "142306.475000", "142307.965000", "142309.455000", "142310.945000", "142312.435000", "142313.925000", "142315.415000", "142316.905000", "142318.395000", "142319.885000", "142321.375000", "142322.865000", "142324.355000", "142325.845000", "142327.335000", "142328.825000", "142330.315000", "142331.805000", "142333.295000", "142334.785000", "142336.275000", "142337.765000", "142339.255000", "142340.745000", "142342.235000", "142343.725000", "142345.215000", "142346.705000", "142348.195000", "142349.685000", "142351.175000", "142352.665000", "142354.155000", "142355.645000", "142357.135000", "142358.625000", "142400.115000", "142401.605000", "142403.095000", "142404.585000", "142406.075000", "142407.565000", "142409.055000", "142410.545000", "142412.035000", "142413.525000", "142415.015000", "142416.505000", "142417.995000", "142419.485000", "142420.975000", "142422.465000", "142423.955000", "142425.445000", "142426.935000", "142428.425000", "142429.915000", "142431.405000", "142432.895000", "142434.385000", "142435.875000", "142437.365000", "142438.855000", "142440.345000", "142441.835000", "142443.325000", "142444.815000", "142446.305000", "142447.795000", "142449.285000", "142450.775000", "142452.265000", "142453.755000", "142455.245000", "142456.735000", "142458.225000", "142459.715000", "142501.205000", "142502.695000", "142504.185000", "142505.675000", "142507.165000", "142508.655000", "142510.145000", "142511.635000", "142513.125000", "142514.615000", "142516.105000", "142517.595000", "142519.085000", "142520.575000", "142522.065000", "142523.555000", "142525.045000", "142526.535000", "142528.025000", "142529.515000", "142531.005000", "142532.495000", "142533.985000", "142535.475000", "142536.965000", "142538.455000", "142539.945000", "142541.435000", "142542.925000", "142544.415000", "142545.905000", "142547.395000", "142548.885000", "142550.375000", "142551.865000", "142553.355000", "142554.845000", "142556.335000", "142557.825000", "142559.315000", "142600.805000", "142602.295000", "142603.785000", "142605.275000", "142606.765000", "142608.255000", "142609.745000", "142611.235000", "142612.725000", "142614.215000", "142615.705000", "142617.195000", "142618.685000", "142620.175000", "142621.665000", "142623.155000", "142624.645000", "142626.135000", "142627.625000", "142629.115000", "142630.605000", "142632.095000", "142633.585000", "142635.075000", "142636.565000", "142638.055000", "142639.545000", "142641.035000", "142642.525000", "142644.015000", "142645.505000", "142646.995000", "142648.485000", "142649.975000", "142651.465000", "142652.955000", "142654.445000", "142655.935000", "142657.425000", "142658.915000", "142700.405000", "142701.895000", "142703.385000", "142704.875000", "142706.365000", "142707.855000", "142709.345000", "142710.835000", "142712.325000", "142713.815000", "142715.305000", "142716.795000", "142718.285000", "142719.775000", "142721.265000", "142722.755000", "142724.245000", "142725.735000", "142727.225000", "142728.715000", "142730.205000", "142731.695000", "142733.185000", "142734.675000", "142736.165000", "142737.655000", "142739.145000", "142740.635000", "142742.125000", "142743.615000", "142745.105000", "142746.595000", "142748.085000", "142749.575000", "142751.065000", "142752.555000", "142754.045000", "142755.535000", "142757.025000", "142758.515000", "142800.005000", "142801.495000", "142802.985000", "142804.475000", "142805.965000", "142807.455000", "142808.945000", "142810.435000", "142811.925000", "142813.415000", "142814.905000", "142816.395000", "142817.885000", "142819.375000", "142820.865000", "142822.355000", "142823.845000", "142825.335000", "142826.825000", "142828.315000", "142829.805000", "142831.295000", "142832.785000", "142834.275000", "142835.765000", "142837.255000", "142838.745000", "142840.235000", "142841.725000", "142843.215000", "142844.705000", "142846.195000", "142847.685000", "142849.175000", "142850.665000", "142852.155000", "142853.645000", "142855.135000", "142856.625000", "142858.115000", "142859.605000", "142901.095000", "142902.585000", "142904.075000", "142905.565000", "142907.055000", "142908.545000", "142910.035000", "142911.525000", "142913.015000", "142914.505000", "142915.995000", "142917.485000", "142918.975000", "142920.465000", "142921.955000", "142923.445000", "142924.935000", "142926.425000", "142927.915000", "142929.405000", "142930.895000", "142932.385000", "142933.875000", "142935.365000", "142936.855000", "142938.345000", "142939.835000", "142941.325000", "142942.815000", "142944.305000", "142945.795000", "142947.285000", "142948.775000", "142950.265000", "142951.755000", "142953.245000", "142954.735000", "142956.225000", "142957.715000", "142959.205000", "143000.695000", "143002.185000", "143003.675000", "143005.165000", "143006.655000", "143008.145000", "143009.635000", "143011.125000", "143012.615000", "143014.105000", "143015.595000", "143017.085000", "143018.575000", "143020.065000", "143021.555000", "143023.045000", "143024.535000", "143026.025000", "143027.515000", "143029.005000", "143030.495000", "143031.985000", "143033.475000", "143034.965000", "143036.455000", "143037.945000", "143039.435000", "143040.925000", "143042.415000", "143043.905000", "143045.395000", "143046.885000", "143048.375000", "143049.865000", "143051.355000", "143052.845000", "143054.335000", "143055.825000", "143057.315000", "143058.805000", "143100.295000", "143101.785000", "143103.275000", "143104.765000", "143106.255000", "143107.745000", "143109.235000", "143110.725000", "143112.215000", "143113.705000", "143115.195000", "143116.685000", "143118.175000", "143119.665000", "143121.155000", "143122.645000", "143124.135000", "143125.625000", "143127.115000", "143128.605000", "143130.095000", "143131.585000", "143133.075000", "143134.565000", "143136.055000", "143137.545000", "143139.035000", "143140.525000", "143142.015000", "143143.505000", "143144.995000", "143146.485000", "143147.975000", "143149.465000", "143150.955000", "143152.445000", "143153.935000", "143155.425000", "143156.915000", "143158.405000", "143159.895000", "143201.385000", "143202.875000", "143204.365000", "143205.855000", "143207.345000", "143208.835000", "143210.325000", "143211.815000", "143213.305000", "143214.795000", "143216.285000", "143217.775000", "143219.265000", "143220.755000", "143222.245000", "143223.735000", "143225.225000", "143226.715000", "143228.205000", "143229.695000", "143231.185000", "143232.675000", "143234.165000", "143235.655000", "143237.145000", "143238.635000", "143240.125000", "143241.615000", "143243.105000", "143244.595000", "143246.085000", "143247.575000", "143249.065000", "143250.555000", "143252.045000", "143253.535000", "143255.025000", "143256.515000", "143258.005000", "143259.495000", "143300.985000", "143302.475000", "143303.965000", "143305.455000", "143306.945000", "143308.435000", "143309.925000", "143311.415000", "143312.905000", "143314.395000", "143315.885000", "143317.375000", "143318.865000", "143320.355000", "143321.845000", "143323.335000", "143324.825000", "143326.315000", "143327.805000", "143329.295000", "143330.785000", "143332.275000", "143333.765000", "143335.255000", "143336.745000", "143338.235000", "143339.725000", "143341.215000", "143342.705000", "143344.195000", "143345.685000", "143347.175000", "143348.665000", "143350.155000", "143351.645000", "143353.135000", "143354.625000", "143356.115000", "143357.605000", "143359.095000", "143400.585000", "143402.075000", "143403.565000", "143405.055000", "143406.545000", "143408.035000", "143409.525000", "143411.015000", "143412.505000", "143413.995000", "143415.485000", "143416.975000", "143418.465000", "143419.955000", "143421.445000", "143422.935000", "143424.425000", "143425.915000", "143427.405000", "143428.895000", "143430.385000", "143431.875000", "143433.365000", "143434.855000", "143436.345000", "143437.835000", "143439.325000", "143440.815000", "143442.305000", "143443.795000", "143445.285000", "143446.775000", "143448.265000", "143449.755000", "143451.245000", "143452.735000", "143454.225000", "143455.715000", "143457.205000", "143458.695000", "143500.185000", "143501.675000", "143503.165000", "143504.655000", "143506.145000", "143507.635000", "143509.125000", "143510.615000", "143512.105000", "143513.595000", "143515.085000", "143516.575000", "143518.065000"],
      "ContentTime": ["142418.943000", "142418.947000", "142418.950000", "142418.953000", "142418.955000", "142418.958000", "142418.961000", "142418.969000", "142418.972000", "142418.975000", "142418.978000", "142418.988000", "142418.991000", "142418.994000", "142418.996000", "142419.000000", "142419.003000", "142419.006000", "142419.009000", "142419.012000", "142419.015000", "142419.018000", "142419.021000", "142419.023000", "142419.026000", "142419.029000", "142419.032000", "142419.035000", "142419.038000", "142419.041000", "142419.044000", "142419.046000", "142419.049000", "142419.052000", "142419.055000", "142419.058000", "142438.899000", "142438.902000", "142438.905000", "142438.907000", "142438.910000", "142438.913000", "142438.916000", "142438.919000", "142438.922000", "142438.925000", "142438.928000", "142438.930000", "142438.933000", "142438.936000", "142438.939000", "142438.942000", "142438.945000", "142438.948000", "142438.950000", "142438.953000", "142458.900000", "142458.903000", "142458.906000", "142458.909000", "142458.911000", "142458.914000", "142458.917000", "142458.920000", "142458.923000", "142458.926000", "142458.929000", "142458.932000", "142458.934000", "142458.937000", "142458.940000", "142458.943000", "142458.946000", "142458.949000", "142458.952000", "142458.954000", "142458.957000", "142518.899000", "142518.902000", "142518.905000", "142518.908000", "142518.911000", "142518.914000", "142518.916000", "142518.919000", "142518.922000", "142518.925000", "142518.928000", "142518.931000", "142518.934000", "142518.937000", "142518.939000", "142518.942000", "142518.945000", "142518.948000", "142518.951000", "142518.954000", "142558.899000", "142558.902000", "142558.905000", "142558.908000", "142558.911000", "142558.913000", "142558.916000", "142558.919000", "142558.922000", "142558.925000", "142558.928000", "142558.931000", "142558.934000", "142558.936000", "142558.939000", "142558.942000", "142558.945000", "142558.948000", "142558.951000", "142558.954000", "142558.956000", "142558.959000", "142558.962000", "142558.965000", "142558.968000", "142558.971000", "142558.974000", "142558.977000", "142558.979000", "142638.899000", "142638.902000", "142638.905000", "142638.908000", "142638.911000", "142638.914000", "142638.916000", "142638.919000", "142638.922000", "142638.925000", "142638.928000", "142638.931000", "142638.934000", "142638.937000", "142638.939000", "142638.942000", "142638.945000", "142638.948000", "142638.951000", "142638.954000", "142638.957000", "142638.960000", "142638.962000", "142638.965000", "142638.968000", "142638.971000", "142638.974000", "142718.900000", "142718.903000", "142718.906000", "142718.909000", "142718.912000", "142718.914000", "142718.917000", "142718.920000", "142718.923000", "142718.926000", "142718.929000", "142718.932000", "142718.935000", "142718.938000", "142718.941000", "142718.944000", "142718.946000", "142718.949000", "142718.952000", "142718.955000", "142718.958000", "142718.961000", "142718.964000", "142718.967000", "142718.969000", "142718.972000", "142718.975000", "142758.899000", "142758.902000", "142758.905000", "142758.907000", "142758.911000", "142758.913000", "142758.916000", "142758.937000", "142758.940000", "142758.943000", "142758.946000", "142758.949000", "142758.951000", "142758.954000", "142758.957000", "142758.960000", "142758.963000", "142758.966000", "142758.969000", "142758.972000", "142758.975000", "142758.978000", "142758.981000", "142758.984000", "142758.993000", "142758.996000", "142838.899000", "142838.902000", "142838.905000", "142838.912000", "142838.915000", "142838.918000", "142838.921000", "142838.924000", "142838.927000", "142838.930000", "142838.933000", "142838.936000", "142838.939000", "142838.941000", "142838.944000", "142838.947000", "142838.950000", "142838.953000", "142838.956000", "142838.959000", "142838.962000", "142838.964000", "142838.967000", "142838.970000", "142838.973000", "142838.976000", "142838.979000", "142918.899000", "142918.902000", "142918.905000", "142918.908000", "142918.911000", "142918.913000", "142918.916000", "142918.919000", "142918.922000", "142918.925000", "142918.928000", "142918.931000", "142918.934000", "142918.937000", "142918.946000", "142918.949000", "142918.952000", "142918.955000", "142918.958000", "142918.961000", "142918.964000", "142918.967000", "142918.970000", "142918.973000", "142918.975000", "142918.978000", "142918.981000", "142958.899000", "142958.902000", "142958.905000", "142958.908000", "142958.911000", "142958.914000", "142958.917000", "142958.920000", "142958.922000", "142958.925000", "142958.928000", "142958.931000", "142958.934000", "142958.937000", "142958.940000", "142958.943000", "142958.945000", "142958.948000", "142958.951000", "142958.954000", "142958.957000", "142958.960000", "142958.963000", "142958.966000", "142958.969000", "142958.972000", "142958.975000", "143038.899000", "143038.902000", "143038.905000", "143038.908000", "143038.911000", "143038.914000", "143038.916000", "143038.919000", "143038.922000", "143038.925000", "143038.928000", "143038.931000", "143038.934000", "143038.937000", "143038.940000", "143038.943000", "143038.945000", "143038.948000", "143038.951000", "143038.954000", "143038.957000", "143038.960000", "143038.963000", "143038.965000", "143038.968000", "143038.971000", "143038.974000", "143118.899000", "143118.902000", "143118.905000", "143118.908000", "143118.911000", "143118.913000", "143118.916000", "143118.919000", "143118.922000", "143118.925000", "143118.928000", "143118.931000", "143118.933000", "143118.936000", "143118.939000", "143118.942000", "143118.945000", "143118.948000", "143118.950000", "143118.953000", "143118.956000", "143118.959000", "143118.962000", "143118.965000", "143118.968000", "143118.970000", "143118.973000", "143158.899000", "143158.902000", "143158.905000", "143158.908000", "143158.910000", "143158.913000", "143158.916000", "143158.919000", "143158.922000", "143158.925000", "143158.928000", "143158.931000", "143158.934000", "143158.936000", "143158.939000", "143158.943000", "143158.946000", "143158.949000", "143158.952000", "143158.955000", "143158.957000", "143158.977000", "143158.980000", "143158.983000", "143158.986000", "143158.989000", "143238.899000", "143238.902000", "143238.905000", "143238.907000", "143238.910000", "143238.913000", "143238.916000", "143238.919000", "143238.922000", "143238.925000", "143238.928000", "143238.930000", "143238.933000", "143238.936000", "143238.939000", "143238.942000", "143238.945000", "143238.947000", "143238.950000", "143238.953000", "143238.956000", "143238.959000", "143238.962000", "143238.965000", "143238.968000", "143238.970000", "143238.973000", "143318.899000", "143318.902000", "143318.905000", "143318.908000", "143318.910000", "143318.913000", "143318.916000", "143318.919000", "143318.922000", "143318.925000", "143318.928000", "143318.931000", "143318.934000", "143318.937000", "143318.939000", "143318.942000", "143318.945000", "143318.948000", "143318.951000", "143318.954000", "143318.957000", "143318.960000", "143318.963000", "143318.966000", "143318.969000", "143318.971000", "143318.974000", "143358.899000", "143358.902000", "143358.905000", "143358.907000", "143358.910000", "143358.913000", "143358.916000", "143358.919000", "143358.922000", "143358.925000", "143358.928000", "143358.930000", "143358.933000", "143358.936000", "143358.939000", "143358.942000", "143358.945000", "143358.947000", "143358.950000", "143358.953000", "143358.956000", "143358.959000", "143358.962000", "143358.964000", "143358.967000", "143358.970000", "143358.973000", "143438.899000", "143438.902000", "143438.905000", "143438.928000", "143438.931000", "143438.934000", "143438.937000", "143438.940000", "143438.943000", "143438.945000", "143438.953000", "143438.956000", "143438.958000", "143438.961000", "143438.964000", "143438.967000", "143438.970000", "143438.973000", "143438.976000", "143438.979000", "143438.982000", "143438.985000", "143438.988000", "143438.990000", "143438.993000", "143438.996000", "143439.000000", "143518.899000", "143518.902000", "143518.905000", "143518.908000", "143518.911000", "143518.913000", "143518.916000", "143518.919000", "143518.922000", "143518.925000", "143518.928000", "143518.931000", "143518.934000", "143518.936000", "143518.939000", "143518.942000", "143518.945000", "143518.948000", "143518.951000", "143518.953000", "143518.956000", "143518.959000", "143518.962000", "143518.965000", "143518.968000", "143518.971000", "143518.973000", "143520.160000"],
