{
  "AcquisitionMatrixPE": 104,
  "AcquisitionNumber": 1,
  "AcquisitionTime": "13:32:43.845000",
  "BandwidthPerPixelPhaseEncode": 17.17,
  "BaseResolution": 104,
  "BodyPartExamined": "BRAIN",
  "CoilString": "HC1-7;NC1_2",
  "ConsistencyInfo": "N4_VE11C_LATEST_20160120",
  "ConversionSoftware": "dcm2niix",
  "ConversionSoftwareVersion": "v1.0.20190720  (JP2:OpenJPEG) GCC7.3.0",
  "DerivedVendorReportedEchoSpacing": 0.000560011,
  "DeviceSerialNumber": "167006",
  "DwellTime": 2.1e-06,
  "EchoTime": 0.037,
  "EchoTrainLength": 104,
  "EffectiveEchoSpacing": 0.000560011,
  "FlipAngle": 52,
  "ImageComments": "Unaliased_MB4_PE3_LB",
  "ImageOrientationPatientDICOM": [0.999595, -0.0278995, 0.00566843, 0.026699, 0.849545, -0.526839],
  "ImageType": [
    "ORIGINAL",
    "PRIMARY",
    "M",
    "MB",
    "ND",
    "MOSAIC"
],
  "ImagingFrequency": 123.259,
  "InPlanePhaseEncodingDirectionDICOM": "COL",
  "InstitutionAddress": "Chemin_Queen-Mary_4565_Montreal_District_CA_H3W_1W5",
  "InstitutionName": "IUGM",
  "InstitutionalDepartmentName": "Department",
  "MRAcquisitionType": "2D",
  "MagneticFieldStrength": 3,
  "Manufacturer": "Siemens",
  "ManufacturersModelName": "Prisma_fit",
  "Modality": "MR",
  "MultibandAccelerationFactor": 4,
  "PartialFourier": 1,
  "PatientPosition": "HFS",
  "PercentPhaseFOV": 100,
  "PhaseEncodingDirection": "j",
  "PhaseEncodingSteps": 104,
  "PhaseResolution": 1,
  "PixelBandwidth": 2290,
  "ProcedureStepDescription": "video_friends",
  "ProtocolName": "func_task-s01e01b",
  "PulseSequenceDetails": "%CustomerSeq%_cmrr_mbep2d_bold",
  "ReceiveCoilActiveElements": "HC1-7;NC1,2",
  "ReceiveCoilName": "HeadNeck_64",
  "ReconMatrixPE": 104,
  "RepetitionTime": 1.49,
  "SAR": 0.036188,
  "ScanOptions": "FS",
  "ScanningSequence": "EP",
  "SequenceName": "epfid2d1_104",
  "SequenceVariant": "SK_SS",
  "SeriesDescription": "func_task-s01e01b",
  "SeriesNumber": 12,
  "ShimSetting": [623, -7179, -8880, 411, -32, -157, 40, -32],
  "SliceThickness": 2,
  "SliceTiming": [0, 0.785, 0.1, 0.8825, 0.1975, 0.98, 0.295, 1.0775, 0.3925, 1.1775, 0.49, 1.275, 0.59, 1.3725, 0.6875, 0, 0.785, 0.1, 0.8825, 0.1975, 0.98, 0.295, 1.0775, 0.3925, 1.1775, 0.49, 1.275, 0.59, 1.3725, 0.6875, 0, 0.785, 0.1, 0.8825, 0.1975, 0.98, 0.295, 1.0775, 0.3925, 1.1775, 0.49, 1.275, 0.59, 1.3725, 0.6875, 0, 0.785, 0.1, 0.8825, 0.1975, 0.98, 0.295, 1.0775, 0.3925, 1.1775, 0.49, 1.275, 0.59, 1.3725, 0.6875],
  "SoftwareVersions": "syngo_MR_E11",
  "SpacingBetweenSlices": 2,
  "StationName": "MRC35049",
  "TaskName": "friends",
  "TotalReadoutTime": 0.0576811,
  "TxRefAmp": 250.688,
  "WipMemBlock": "7a51863f-6a8e-4f83-8579-7c6f0ab15a63||Sequence: R016 ve11c/master r/e634e98; Dec 19 2017 11:00:25 by eja",
  "dcmmeta_affine": [
    [-1.9991893768310547, 0.05339809134602547, -0.019765907898545265, 100.20800018310547],
    [0.05579895153641701, 1.6990909576416016, -1.0535541772842407, -60.349544525146484],
    [0.011336853727698326, 1.0536786317825317, 1.6998920440673828, -107.53294372558594],
    [0.0, 0.0, 0.0, 1.0]
],
  "dcmmeta_reorient_transform": [
    [0.0, -1.0, 0.0, 103.0],
    [1.0, 0.0, 0.0, 0.0],
    [0.0, 0.0, 1.0, 0.0],
    [0.0, 0.0, 0.0, 1.0]
],
  "dcmmeta_shape": [104, 104, 60, 482],
  "dcmmeta_slice_dim": 2,
  "dcmmeta_version": 0.6,
  "global": {
    "const": {
      "AcquisitionMatrix": [104, 0, 0, 104],
      "AngioFlag": "N",
      "BitsAllocated": 16,
      "BitsStored": 16,
      "BodyPartExamined": "BRAIN",
      "Columns": 832,
      "EchoNumbers": 1,
      "EchoTime": 37.0,
      "EchoTrainLength": 104,
      "FlipAngle": 52.0,
      "HighBit": 15,
      "ImageOrientationPatient": [0.99959466192526, -0.0278994764344, 0.00566842704972, 0.02669904614871, 0.84954547054641, -0.5268393060591],
      "ImagePositionPatient": [-852.84982233476, -712.81510598673, 380.40835697423],
      "ImageType": [
        "ORIGINAL",
        "PRIMARY",
        "M",
        "MB",
        "ND",
        "MOSAIC"
],
      "ImagedNucleus": "1H",
      "ImagingFrequency": 123.259158,
      "InPlanePhaseEncodingDirection": "COL",
      "MRAcquisitionType": "2D",
      "MagneticFieldStrength": 3.0,
      "Manufacturer": "SIEMENS",
      "ManufacturerModelName": "Prisma_fit",
      "Modality": "MR",
      "NumberOfAverages": 1.0,
      "NumberOfPhaseEncodingSteps": 104,
      "PercentPhaseFieldOfView": 100.0,
      "PercentSampling": 100.0,
      "PerformedProcedureStepStartTime": "130822.089000",
      "PhotometricInterpretation": "MONOCHROME2",
      "PixelBandwidth": 2290.0,
      "PixelRepresentation": 0,
      "PixelSpacing": [2.0, 2.0],
      "ProtocolName": "func_task-s01e01b",
      "RepetitionTime": 1490.0,
      "Rows": 832,
      "SAR": 0.03618802085576,
      "SamplesPerPixel": 1,
      "ScanOptions": "FS",
      "ScanningSequence": "EP",
      "SequenceName": "epfid2d1_104",
      "SequenceVariant": [
        "SK",
        "SS"
],
      "SeriesDescription": "func_task-s01e01b",
      "SeriesNumber": 12,
      "SeriesTime": "133358.886000",
      "SliceLocation": -60.596785926142,
      "SliceThickness": 2.0,
      "SmallestImagePixelValue": 0,
      "SoftwareVersions": "syngo MR E11",
      "SpacingBetweenSlices": 1.9999999710306,
      "SpecificCharacterSet": "ISO_IR 100",
      "StudyID": "1",
      "StudyTime": "130821.945000",
      "TransmitCoilName": "Body",
      "VariableFlipAngleFlag": "N",
      "WindowCenterWidthExplanation": "Algo1",
      "dBdt": 0.0},
    "slices": {}
  },
  "time": {
    "samples": {
      "AcquisitionNumber": [1, 2, 3, 4, 5, 6, 7, 8, 9, 10, 11, 12, 13, 14, 15, 16, 17, 18, 19, 20, 21, 22, 23, 24, 25, 26, 27, 28, 29, 30, 31, 32, 33, 34, 35, 36, 37, 38, 39, 40, 41, 42, 43, 44, 45, 46, 47, 48, 49, 50, 51, 52, 53, 54, 55, 56, 57, 58, 59, 60, 61, 62, 63, 64, 65, 66, 67, 68, 69, 70, 71, 72, 73, 74, 75, 76, 77, 78, 79, 80, 81, 82, 83, 84, 85, 86, 87, 88, 89, 90, 91, 92, 93, 94, 95, 96, 97, 98, 99, 100, 101, 102, 103, 104, 105, 106, 107, 108, 109, 110, 111, 112, 113, 114, 115, 116, 117, 118, 119, 120, 121, 122, 123, 124, 125, 126, 127, 128, 129, 130, 131, 132, 133, 134, 135, 136, 137, 138, 139, 140, 141, 142, 143, 144, 145, 146, 147, 148, 149, 150, 151, 152, 153, 154, 155, 156, 157, 158, 159, 160, 161, 162, 163, 164, 165, 166, 167, 168, 169, 170, 171, 172, 173, 174, 175, 176, 177, 178, 179, 180, 181, 182, 183, 184, 185, 186, 187, 188, 189, 190, 191, 192, 193, 194, 195, 196, 197, 198, 199, 200, 201, 202, 203, 204, 205, 206, 207, 208, 209, 210, 211, 212, 213, 214, 215, 216, 217, 218, 219, 220, 221, 222, 223, 224, 225, 226, 227, 228, 229, 230, 231, 232, 233, 234, 235, 236, 237, 238, 239, 240, 241, 242, 243, 244, 245, 246, 247, 248, 249, 250, 251, 252, 253, 254, 255, 256, 257, 258, 259, 260, 261, 262, 263, 264, 265, 266, 267, 268, 269, 270, 271, 272, 273, 274, 275, 276, 277, 278, 279, 280, 281, 282, 283, 284, 285, 286, 287, 288, 289, 290, 291, 292, 293, 294, 295, 296, 297, 298, 299, 300, 301, 302, 303, 304, 305, 306, 307, 308, 309, 310, 311, 312, 313, 314, 315, 316, 317, 318, 319, 320, 321, 322, 323, 324, 325, 326, 327, 328, 329, 330, 331, 332, 333, 334, 335, 336, 337, 338, 339, 340, 341, 342, 343, 344, 345, 346, 347, 348, 349, 350, 351, 352, 353, 354, 355, 356, 357, 358, 359, 360, 361, 362, 363, 364, 365, 366, 367, 368, 369, 370, 371, 372, 373, 374, 375, 376, 377, 378, 379, 380, 381, 382, 383, 384, 385, 386, 387, 388, 389, 390, 391, 392, 393, 394, 395, 396, 397, 398, 399, 400, 401, 402, 403, 404, 405, 406, 407, 408, 409, 410, 411, 412, 413, 414, 415, 416, 417, 418, 419, 420, 421, 422, 423, 424, 425, 426, 427, 428, 429, 430, 431, 432, 433, 434, 435, 436, 437, 438, 439, 440, 441, 442, 443, 444, 445, 446, 447, 448, 449, 450, 451, 452, 453, 454, 455, 456, 457, 458, 459, 460, 461, 462, 463, 464, 465, 466, 467, 468, 469, 470, 471, 472, 473, 474, 475, 476, 477, 478, 479, 480, 481, 482],
      "AcquisitionTime": ["133243.845000", "133245.335000", "133246.825000", "133248.315000", "133249.805000", "133251.295000", "133252.785000", "133254.275000", "133255.765000", "133257.255000", "133258.745000", "133300.235000", "133301.725000", "133303.215000", "133304.705000", "133306.195000", "133307.685000", "133309.175000", "133310.665000", "133312.155000", "133313.645000", "133315.135000", "133316.625000", "133318.115000", "133319.605000", "133321.095000", "133322.585000", "133324.075000", "133325.565000", "133327.055000", "133328.545000", "133330.035000", "133331.525000", "133333.015000", "133334.505000", "133335.995000", "133337.485000", "133338.975000", "133340.465000", "133341.955000", "133343.445000", "133344.935000", "133346.425000", "133347.915000", "133349.405000", "133350.895000", "133352.385000", "133353.875000", "133355.365000", "133356.855000", "133358.345000", "133359.835000", "133401.325000", "133402.815000", "133404.305000", "133405.795000", "133407.285000", "133408.775000", "133410.265000", "133411.755000", "133413.245000", "133414.735000", "133416.225000", "133417.715000", "133419.205000", "133420.695000", "133422.185000", "133423.675000", "133425.165000", "133426.655000", "133428.145000", "133429.635000", "133431.125000", "133432.615000", "133434.105000", "133435.595000", "133437.085000", "133438.575000", "133440.065000", "133441.555000", "133443.045000", "133444.535000", "133446.025000", "133447.515000", "133449.005000", "133450.495000", "133451.985000", "133453.475000", "133454.965000", "133456.455000", "133457.945000", "133459.435000", "133500.925000", "133502.415000", "133503.905000", "133505.395000", "133506.885000", "133508.375000", "133509.865000", "133511.355000", "133512.845000", "133514.335000", "133515.825000", "133517.315000", "133518.805000", "133520.295000", "133521.785000", "133523.275000", "133524.765000", "133526.255000", "133527.745000", "133529.235000", "133530.725000", "133532.215000", "133533.705000", "133535.195000", "133536.685000", "133538.175000", "133539.665000", "133541.155000", "133542.645000", "133544.135000", "133545.625000", "133547.115000", "133548.605000", "133550.095000", "133551.585000", "133553.075000", "133554.565000", "133556.055000", "133557.545000", "133559.035000", "133600.525000", "133602.015000", "133603.505000", "133604.995000", "133606.485000", "133607.975000", "133609.465000", "133610.955000", "133612.445000", "133613.935000", "133615.425000", "133616.915000", "133618.405000", "133619.895000", "133621.385000", "133622.875000", "133624.365000", "133625.855000", "133627.345000", "133628.835000", "133630.325000", "133631.815000", "133633.305000", "133634.795000", "133636.285000", "133637.775000", "133639.265000", "133640.755000", "133642.245000", "133643.735000", "133645.225000", "133646.715000", "133648.205000", "133649.695000", "133651.185000", "133652.675000", "133654.165000", "133655.655000", "133657.145000", "133658.635000", "133700.125000", "133701.615000", "133703.105000", "133704.595000", "133706.085000", "133707.575000", "133709.065000", "133710.555000", "133712.045000", "133713.535000", "133715.025000", "133716.515000", "133718.005000", "133719.495000", "133720.985000", "133722.475000", "133723.965000", "133725.455000", "133726.945000", "133728.435000", "133729.925000", "133731.415000", "133732.905000", "133734.395000", "133735.885000", "133737.375000", "133738.865000", "133740.355000", "133741.845000", "133743.335000", "133744.825000", "133746.315000", "133747.805000", "133749.295000", "133750.785000", "133752.275000", "133753.765000", "133755.255000", "133756.745000", "133758.235000", "133759.725000", "133801.215000", "133802.705000", "133804.195000", "133805.685000", "133807.175000", "133808.665000", "133810.155000", "133811.645000", "133813.135000", "133814.625000", "133816.115000", "133817.605000", "133819.095000", "133820.585000", "133822.075000", "133823.565000", "133825.055000", "133826.545000", "133828.035000", "133829.525000", "133831.015000", "133832.505000", "133833.995000", "133835.485000", "133836.975000", "133838.465000", "133839.955000", "133841.445000", "133842.935000", "133844.425000", "133845.915000", "133847.405000", "133848.895000", "133850.385000", "133851.875000", "133853.365000", "133854.855000", "133856.345000", "133857.835000", "133859.325000", "133900.815000", "133902.305000", "133903.795000", "133905.285000", "133906.775000", "133908.265000", "133909.755000", "133911.245000", "133912.735000", "133914.225000", "133915.715000", "133917.205000", "133918.695000", "133920.185000", "133921.675000", "133923.165000", "133924.655000", "133926.145000", "133927.635000", "133929.125000", "133930.615000", "133932.105000", "133933.595000", "133935.085000", "133936.575000", "133938.065000", "133939.555000", "133941.045000", "133942.535000", "133944.025000", "133945.515000", "133947.005000", "133948.495000", "133949.985000", "133951.475000", "133952.965000", "133954.455000", "133955.945000", "133957.435000", "133958.925000", "134000.415000", "134001.905000", "134003.395000", "134004.885000", "134006.375000", "134007.865000", "134009.355000", "134010.845000", "134012.335000", "134013.825000", "134015.315000", "134016.805000", "134018.295000", "134019.785000", "134021.275000", "134022.765000", "134024.255000", "134025.745000", "134027.235000", "134028.725000", "134030.215000", "134031.705000", "134033.195000", "134034.685000", "134036.175000", "134037.665000", "134039.155000", "134040.645000", "134042.135000", "134043.625000", "134045.115000", "134046.605000", "134048.095000", "134049.585000", "134051.075000", "134052.565000", "134054.055000", "134055.545000", "134057.035000", "134058.525000", "134100.015000", "134101.505000", "134102.995000", "134104.485000", "134105.975000", "134107.465000", "134108.955000", "134110.445000", "134111.935000", "134113.425000", "134114.915000", "134116.405000", "134117.895000", "134119.385000", "134120.875000", "134122.365000", "134123.855000", "134125.345000", "134126.835000", "134128.325000", "134129.815000", "134131.305000", "134132.795000", "134134.285000", "134135.775000", "134137.265000", "134138.755000", "134140.245000", "134141.735000", "134143.225000", "134144.715000", "134146.205000", "134147.695000", "134149.185000", "134150.675000", "134152.165000", "134153.655000", "134155.145000", "134156.635000", "134158.125000", "134159.615000", "134201.105000", "134202.595000", "134204.085000", "134205.575000", "134207.065000", "134208.555000", "134210.045000", "134211.535000", "134213.025000", "134214.515000", "134216.005000", "134217.495000", "134218.985000", "134220.475000", "134221.965000", "134223.455000", "134224.945000", "134226.435000", "134227.925000", "134229.415000", "134230.905000", "134232.395000", "134233.885000", "134235.375000", "134236.865000", "134238.355000", "134239.845000", "134241.335000", "134242.825000", "134244.315000", "134245.805000", "134247.295000", "134248.785000", "134250.275000", "134251.765000", "134253.255000", "134254.745000", "134256.235000", "134257.725000", "134259.215000", "134300.705000", "134302.195000", "134303.685000", "134305.175000", "134306.665000", "134308.155000", "134309.645000", "134311.135000", "134312.625000", "134314.115000", "134315.605000", "134317.095000", "134318.585000", "134320.075000", "134321.565000", "134323.055000", "134324.545000", "134326.035000", "134327.525000", "134329.015000", "134330.505000", "134331.995000", "134333.485000", "134334.975000", "134336.465000", "134337.955000", "134339.445000", "134340.935000", "134342.425000", "134343.915000", "134345.405000", "134346.895000", "134348.385000", "134349.875000", "134351.365000", "134352.855000", "134354.345000", "134355.835000", "134357.325000", "134358.815000", "134400.305000", "134401.795000", "134403.285000", "134404.775000", "134406.265000", "134407.755000", "134409.245000", "134410.735000", "134412.225000", "134413.715000", "134415.205000", "134416.695000", "134418.185000", "134419.675000", "134421.165000", "134422.655000", "134424.145000", "134425.635000", "134427.125000", "134428.615000", "134430.105000", "134431.595000", "134433.085000", "134434.575000", "134436.065000", "134437.555000", "134439.045000", "134440.535000"],
      "ContentTime": ["133358.889000", "133358.892000", "133358.895000", "133358.898000", "133358.901000", "133358.904000", "133358.906000", "133358.909000", "133358.912000", "133358.915000", "133358.922000", "133358.925000", "133358.928000", "133358.931000", "133358.934000", "133358.937000", "133358.939000", "133358.942000", "133358.945000", "133358.948000", "133358.951000", "133418.829000", "133418.832000", "133418.835000", "133418.837000", "133418.860000", "133418.863000", "133418.866000", "133418.869000", "133418.872000", "133418.875000", "133418.877000", "133418.880000", "133418.883000", "133418.886000", "133418.889000", "133418.891000", "133418.894000", "133418.897000", "133418.900000", "133418.913000", "133438.829000", "133438.832000", "133438.835000", "133438.837000", "133438.840000", "133438.843000", "133438.846000", "133438.849000", "133438.852000", "133438.854000", "133438.857000", "133438.860000", "133438.868000", "133438.871000", "133438.874000", "133438.877000", "133438.880000", "133438.883000", "133438.886000", "133438.888000", "133438.891000", "133458.829000", "133458.832000", "133458.835000", "133458.837000", "133458.840000", "133458.843000", "133458.846000", "133458.849000", "133458.852000", "133458.854000", "133458.857000", "133458.860000", "133458.863000", "133458.866000", "133458.868000", "133458.871000", "133458.874000", "133458.892000", "133458.895000", "133458.898000", "133518.829000", "133518.832000", "133518.835000", "133518.837000", "133518.840000", "133518.843000", "133518.846000", "133518.849000", "133518.852000", "133518.855000", "133518.858000", "133518.861000", "133518.864000", "133518.866000", "133518.869000", "133518.872000", "133518.875000", "133518.878000", "133518.881000", "133518.883000", "133558.829000", "133558.832000", "133558.835000", "133558.838000", "133558.841000", "133558.843000", "133558.846000", "133558.849000", "133558.863000", "133558.865000", "133558.868000", "133558.871000", "133558.874000", "133558.877000", "133558.880000", "133558.883000", "133558.886000", "133558.889000", "133558.891000", "133558.894000", "133558.897000", "133558.900000", "133558.903000", "133558.906000", "133558.909000", "133558.912000", "133558.914000", "133558.917000", "133638.829000", "133638.832000", "133638.835000", "133638.838000", "133638.841000", "133638.844000", "133638.846000", "133638.849000", "133638.852000", "133638.855000", "133638.858000", "133638.861000", "133638.864000", "133638.867000", "133638.869000", "133638.872000", "133638.875000", "133638.878000", "133638.881000", "133638.884000", "133638.887000", "133638.890000", "133638.893000", "133638.896000", "133638.898000", "133638.901000", "133638.904000", "133718.829000", "133718.832000", "133718.835000", "133718.838000", "133718.840000", "133718.843000", "133718.846000", "133718.849000", "133718.852000", "133718.855000", "133718.857000", "133718.860000", "133718.863000", "133718.866000", "133718.869000", "133718.871000", "133718.874000", "133718.877000", "133718.885000", "133718.888000", "133718.890000", "133718.893000", "133718.896000", "133718.899000", "133718.902000", "133718.905000", "133718.908000", "133758.829000", "133758.832000", "133758.835000", "133758.838000", "133758.841000", "133758.843000", "133758.846000", "133758.849000", "133758.852000", "133758.855000", "133758.858000", "133758.860000", "133758.863000", "133758.866000", "133758.869000", "133758.872000", "133758.875000", "133758.878000", "133758.881000", "133758.884000", "133758.887000", "133758.890000", "133758.893000", "133758.896000", "133758.899000", "133758.902000", "133838.830000", "133838.833000", "133838.836000", "133838.839000", "133838.842000", "133838.845000", "133838.847000", "133838.850000", "133838.853000", "133838.856000", "133838.859000", "133838.862000", "133838.865000", "133838.870000", "133838.873000", "133838.876000", "133838.879000", "133838.882000", "133838.885000", "133838.888000", "133838.891000", "133838.894000", "133838.897000", "133838.900000", "133838.902000", "133838.905000", "133838.908000", "133918.829000", "133918.832000", "133918.835000", "133918.838000", "133918.841000", "133918.844000", "133918.846000", "133918.849000", "133918.852000", "133918.855000", "133918.858000", "133918.861000", "133918.864000", "133918.867000", "133918.869000", "133918.872000", "133918.875000", "133918.878000", "133918.881000", "133918.884000", "133918.887000", "133918.890000", "133918.893000", "133918.896000", "133918.899000", "133918.901000", "133918.904000", "133958.829000", "133958.832000", "133958.835000", "133958.848000", "133958.851000", "133958.853000", "133958.856000", "133958.859000", "133958.862000", "133958.865000", "133958.868000", "133958.871000", "133958.874000", "133958.876000", "133958.879000", "133958.882000", "133958.885000", "133958.888000", "133958.891000", "133958.894000", "133958.897000", "133958.899000", "133958.902000", "133958.905000", "133958.908000", "133958.911000", "133958.914000", "134038.829000", "134038.832000", "134038.835000", "134038.838000", "134038.841000", "134038.844000", "134038.847000", "134038.850000", "134038.852000", "134038.855000", "134038.858000", "134038.861000", "134038.864000", "134038.867000", "134038.870000", "134038.873000", "134038.875000", "134038.878000", "134038.881000", "134038.884000", "134038.887000", "134038.890000", "134038.893000", "134038.895000", "134038.898000", "134038.901000", "134038.904000", "134118.829000", "134118.832000", "134118.835000", "134118.838000", "134118.841000", "134118.844000", "134118.847000", "134118.850000", "134118.852000", "134118.855000", "134118.858000", "134118.861000", "134118.864000", "134118.867000", "134118.869000", "134118.872000", "134118.875000", "134118.878000", "134118.881000", "134118.883000", "134118.886000", "134118.889000", "134118.892000", "134118.895000", "134118.898000", "134118.900000", "134118.903000", "134158.829000", "134158.832000", "134158.835000", "134158.838000", "134158.841000", "134158.844000", "134158.847000", "134158.850000", "134158.853000", "134158.855000", "134158.858000", "134158.861000", "134158.864000", "134158.867000", "134158.870000", "134158.872000", "134158.875000", "134158.878000", "134158.881000", "134158.884000", "134158.887000", "134158.890000", "134158.893000", "134158.895000", "134158.898000", "134158.901000", "134158.904000", "134238.829000", "134238.832000", "134238.835000", "134238.838000", "134238.841000", "134238.843000", "134238.846000", "134238.849000", "134238.852000", "134238.855000", "134238.858000", "134238.860000", "134238.863000", "134238.866000", "134238.869000", "134238.872000", "134238.875000", "134238.878000", "134238.881000", "134238.884000", "134238.887000", "134238.890000", "134238.893000", "134238.896000", "134238.898000", "134238.901000", "134318.830000", "134318.833000", "134318.836000", "134318.839000", "134318.842000", "134318.844000", "134318.847000", "134318.850000", "134318.853000", "134318.856000", "134318.859000", "134318.862000", "134318.864000", "134318.867000", "134318.870000", "134318.873000", "134318.876000", "134318.879000", "134318.882000", "134318.884000", "134318.887000", "134318.890000", "134318.893000", "134318.896000", "134318.899000", "134318.901000", "134318.904000", "134358.829000", "134358.832000", "134358.835000", "134358.838000", "134358.841000", "134358.844000", "134358.846000", "134358.849000", "134358.852000", "134358.855000", "134358.858000", "134358.861000", "134358.863000", "134358.866000", "134358.869000", "134358.872000", "134358.875000", "134358.878000", "134358.881000", "134358.884000", "134358.886000", "134358.889000", "134358.892000", "134358.895000", "134358.898000", "134358.901000", "134358.903000", "134438.829000", "134438.832000", "134438.835000", "134438.838000", "134438.854000", "134438.857000", "134438.860000", "134438.863000", "134438.865000", "134438.868000", "134438.871000", "134438.874000", "134438.877000", "134438.880000", "134438.882000", "134438.885000", "134438.888000", "134438.891000", "134438.894000", "134438.897000", "134438.900000", "134438.902000", "134438.905000", "134438.908000", "134438.911000", "134438.914000", "134438.917000", "134442.736000", "134442.739000", "134442.742000"],
