{
  "AcquisitionMatrixPE": 104,
  "AcquisitionNumber": 1,
  "AcquisitionTime": "11:07:59.652500",
  "BandwidthPerPixelPhaseEncode": 17.17,
  "BaseResolution": 104,
  "BodyPartExamined": "BRAIN",
  "CoilCombinationMethod": "Sum of Squares",
  "ConsistencyInfo": "N4_VE11C_LATEST_20160120",
  "ConversionSoftware": "dcm2niix",
  "ConversionSoftwareVersion": "v1.0.20211006",
  "DerivedVendorReportedEchoSpacing": 0.000560011,
  "DeviceSerialNumber": "167006",
  "DwellTime": 2.1e-06,
  "EchoTime": 0.037,
  "EchoTrainLength": 104,
  "EffectiveEchoSpacing": 0.000560011,
  "FlipAngle": 52,
  "HeudiconvVersion": "0.11.3.post9+gc939bf8",
  "ImageComments": "Unaliased MB4/PE3/LB",
  "ImageOrientationPatientDICOM": [0.99782, 0.0641356, 0.0155417, -0.0529921, 0.919078, -0.390497],
  "ImageOrientationText": "Tra>Cor(-22.9)>Sag(2.3)",
  "ImageType": [
    "ORIGINAL",
    "PRIMARY",
    "M",
    "MB",
    "ND",
    "MOSAIC"
],
  "ImagingFrequency": 123.259,
  "InPlanePhaseEncodingDirectionDICOM": "COL",
  "InstitutionAddress": "Chemin Queen-Mary 4565,Montreal,District,CA,H3W 1W5",
  "InstitutionName": "IUGM",
  "InstitutionalDepartmentName": "Department",
  "MRAcquisitionType": "2D",
  "MagneticFieldStrength": 3,
  "Manufacturer": "Siemens",
  "ManufacturersModelName": "Prisma_fit",
  "MatrixCoilMode": "SENSE",
  "Modality": "MR",
  "MultibandAccelerationFactor": 4,
  "PartialFourier": 1,
  "PatientPosition": "HFS",
  "PercentPhaseFOV": 100,
  "PercentSampling": 100,
  "PhaseEncodingDirection": "j",
  "PhaseEncodingSteps": 104,
  "PhaseResolution": 1,
  "PixelBandwidth": 2290,
  "ProcedureStepDescription": "video^friends",
  "ProtocolName": "func_task-friends-s06e02b",
  "PulseSequenceDetails": "%CustomerSeq%\\cmrr_mbep2d_bold",
  "ReceiveCoilActiveElements": "HC1-7;NC1,2",
  "ReceiveCoilName": "HeadNeck_64",
  "ReconMatrixPE": 104,
  "RepetitionTime": 1.49,
  "SAR": 0.0345864,
  "ScanOptions": "FS",
  "ScanningSequence": "EP",
  "SequenceName": "epfid2d1_104",
  "SequenceVariant": "SK\\SS",
  "SeriesDescription": "func_task-friends-s06e02b",
  "SeriesNumber": 12,
  "ShimSetting": [623, -7191, -8830, 667, 71, -13, -67, 1],
  "SliceThickness": 2,
  "SliceTiming": [0, 0.785, 0.1, 0.8825, 0.1975, 0.98, 0.295, 1.08, 0.3925, 1.1775, 0.49, 1.275, 0.59, 1.3725, 0.6875, 0, 0.785, 0.1, 0.8825, 0.1975, 0.98, 0.295, 1.08, 0.3925, 1.1775, 0.49, 1.275, 0.59, 1.3725, 0.6875, 0, 0.785, 0.1, 0.8825, 0.1975, 0.98, 0.295, 1.08, 0.3925, 1.1775, 0.49, 1.275, 0.59, 1.3725, 0.6875, 0, 0.785, 0.1, 0.8825, 0.1975, 0.98, 0.295, 1.08, 0.3925, 1.1775, 0.49, 1.275, 0.59, 1.3725, 0.6875],
  "SoftwareVersions": "syngo MR E11",
  "SpacingBetweenSlices": 2,
  "StationName": "MRC35049",
  "TaskName": "s06e02b",
  "TotalReadoutTime": 0.0576811,
  "TxRefAmp": 239.153,
  "WipMemBlock": "709cec4b-63cb-486e-8f89-f2a1b130ffec||Sequence: R016 ve11c/master r/e634e98; Dec 19 2017 11:00:25 by eja",
  "dcmmeta_affine": [
    [-1.9956402778625488, -0.10598424822092056, 0.0786576122045517, 106.31451416015625],
    [-0.1282712072134018, 1.8381555080413818, -0.7776443958282471, -60.36906814575195],
    [0.031083429232239723, 0.7809940576553345, 1.8409459590911865, -74.98296356201172],
    [0.0, 0.0, 0.0, 1.0]
],
  "dcmmeta_reorient_transform": [
    [0.0, -1.0, 0.0, 103.0],
    [1.0, 0.0, 0.0, 0.0],
    [0.0, 0.0, 1.0, 0.0],
    [0.0, 0.0, 0.0, 1.0]
],
  "dcmmeta_shape": [104, 104, 60, 487],
  "dcmmeta_slice_dim": 2,
  "dcmmeta_version": 0.6,
  "global": {
    "const": {
      "AcquisitionMatrix": [104, 0, 0, 104],
      "AngioFlag": "N",
      "BitsAllocated": 16,
      "BitsStored": 16,
      "BodyPartExamined": "BRAIN",
      "Columns": 832,
      "EchoNumbers": 1,
      "EchoTime": 37.0,
      "EchoTrainLength": 104,
      "FlipAngle": 52.0,
      "HighBit": 15,
      "ImageOrientationPatient": [0.99782016412619, 0.06413559994858, 0.01554171426895, -0.052992124235, 0.91907775342945, -0.3904970139708],
      "ImagePositionPatient": [-783.23295247246, -844.74026850966, 278.42688253311],
      "ImageType": [
        "ORIGINAL",
        "PRIMARY",
        "M",
        "MB",
        "ND",
        "MOSAIC"
],
      "ImagedNucleus": "1H",
      "ImagingFrequency": 123.258842,
      "InPlanePhaseEncodingDirection": "COL",
      "MRAcquisitionType": "2D",
      "MagneticFieldStrength": 3.0,
      "Manufacturer": "SIEMENS",
      "ManufacturerModelName": "Prisma_fit",
      "Modality": "MR",
      "NumberOfAverages": 1.0,
      "NumberOfPhaseEncodingSteps": 104,
      "PercentPhaseFieldOfView": 100.0,
      "PercentSampling": 100.0,
      "PerformedProcedureStepStartTime": "103216.741000",
      "PhotometricInterpretation": "MONOCHROME2",
      "PixelBandwidth": 2290.0,
      "PixelRepresentation": 0,
      "PixelSpacing": [2.0, 2.0],
      "ProtocolName": "func_task-friends-s06e02b",
      "RepetitionTime": 1490.0,
      "Rows": 832,
      "SAR": 0.03458641473654,
      "SamplesPerPixel": 1,
      "ScanOptions": "FS",
      "ScanningSequence": "EP",
      "SequenceName": "epfid2d1_104",
      "SequenceVariant": [
        "SK",
        "SS"
],
      "SeriesDescription": "func_task-friends-s06e02b",
      "SeriesNumber": 12,
      "SeriesTime": "110932.844000",
      "SliceLocation": -41.365732584896,
      "SliceThickness": 2.0,
      "SmallestImagePixelValue": 0,
      "SoftwareVersions": "syngo MR E11",
      "SpacingBetweenSlices": 2.0000000182172,
      "SpecificCharacterSet": "ISO_IR 100",
      "StudyID": "1",
      "StudyTime": "103216.662000",
      "TransmitCoilName": "Body",
      "VariableFlipAngleFlag": "N",
      "WindowCenterWidthExplanation": "Algo1",
      "dBdt": 0.0},
    "slices": {}
  },
  "time": {
    "samples": {
      "AcquisitionNumber": [1, 2, 3, 4, 5, 6, 7, 8, 9, 10, 11, 12, 13, 14, 15, 16, 17, 18, 19, 20, 21, 22, 23, 24, 25, 26, 27, 28, 29, 30, 31, 32, 33, 34, 35, 36, 37, 38, 39, 40, 41, 42, 43, 44, 45, 46, 47, 48, 49, 50, 51, 52, 53, 54, 55, 56, 57, 58, 59, 60, 61, 62, 63, 64, 65, 66, 67, 68, 69, 70, 71, 72, 73, 74, 75, 76, 77, 78, 79, 80, 81, 82, 83, 84, 85, 86, 87, 88, 89, 90, 91, 92, 93, 94, 95, 96, 97, 98, 99, 100, 101, 102, 103, 104, 105, 106, 107, 108, 109, 110, 111, 112, 113, 114, 115, 116, 117, 118, 119, 120, 121, 122, 123, 124, 125, 126, 127, 128, 129, 130, 131, 132, 133, 134, 135, 136, 137, 138, 139, 140, 141, 142, 143, 144, 145, 146, 147, 148, 149, 150, 151, 152, 153, 154, 155, 156, 157, 158, 159, 160, 161, 162, 163, 164, 165, 166, 167, 168, 169, 170, 171, 172, 173, 174, 175, 176, 177, 178, 179, 180, 181, 182, 183, 184, 185, 186, 187, 188, 189, 190, 191, 192, 193, 194, 195, 196, 197, 198, 199, 200, 201, 202, 203, 204, 205, 206, 207, 208, 209, 210, 211, 212, 213, 214, 215, 216, 217, 218, 219, 220, 221, 222, 223, 224, 225, 226, 227, 228, 229, 230, 231, 232, 233, 234, 235, 236, 237, 238, 239, 240, 241, 242, 243, 244, 245, 246, 247, 248, 249, 250, 251, 252, 253, 254, 255, 256, 257, 258, 259, 260, 261, 262, 263, 264, 265, 266, 267, 268, 269, 270, 271, 272, 273, 274, 275, 276, 277, 278, 279, 280, 281, 282, 283, 284, 285, 286, 287, 288, 289, 290, 291, 292, 293, 294, 295, 296, 297, 298, 299, 300, 301, 302, 303, 304, 305, 306, 307, 308, 309, 310, 311, 312, 313, 314, 315, 316, 317, 318, 319, 320, 321, 322, 323, 324, 325, 326, 327, 328, 329, 330, 331, 332, 333, 334, 335, 336, 337, 338, 339, 340, 341, 342, 343, 344, 345, 346, 347, 348, 349, 350, 351, 352, 353, 354, 355, 356, 357, 358, 359, 360, 361, 362, 363, 364, 365, 366, 367, 368, 369, 370, 371, 372, 373, 374, 375, 376, 377, 378, 379, 380, 381, 382, 383, 384, 385, 386, 387, 388, 389, 390, 391, 392, 393, 394, 395, 396, 397, 398, 399, 400, 401, 402, 403, 404, 405, 406, 407, 408, 409, 410, 411, 412, 413, 414, 415, 416, 417, 418, 419, 420, 421, 422, 423, 424, 425, 426, 427, 428, 429, 430, 431, 432, 433, 434, 435, 436, 437, 438, 439, 440, 441, 442, 443, 444, 445, 446, 447, 448, 449, 450, 451, 452, 453, 454, 455, 456, 457, 458, 459, 460, 461, 462, 463, 464, 465, 466, 467, 468, 469, 470, 471, 472, 473, 474, 475, 476, 477, 478, 479, 480, 481, 482, 483, 484, 485, 486, 487],
      "AcquisitionTime": ["110759.652500", "110801.142500", "110802.632500", "110804.122500", "110805.612500", "110807.102500", "110808.592500", "110810.082500", "110811.572500", "110813.062500", "110814.552500", "110816.042500", "110817.532500", "110819.022500", "110820.512500", "110822.002500", "110823.492500", "110824.982500", "110826.472500", "110827.962500", "110829.452500", "110830.942500", "110832.432500", "110833.922500", "110835.412500", "110836.902500", "110838.392500", "110839.882500", "110841.372500", "110842.862500", "110844.352500", "110845.842500", "110847.332500", "110848.822500", "110850.312500", "110851.802500", "110853.292500", "110854.782500", "110856.272500", "110857.762500", "110859.252500", "110900.742500", "110902.232500", "110903.722500", "110905.212500", "110906.702500", "110908.192500", "110909.682500", "110911.172500", "110912.662500", "110914.152500", "110915.642500", "110917.132500", "110918.622500", "110920.112500", "110921.602500", "110923.092500", "110924.582500", "110926.072500", "110927.562500", "110929.052500", "110930.542500", "110932.032500", "110933.522500", "110935.012500", "110936.502500", "110937.992500", "110939.482500", "110940.972500", "110942.462500", "110943.952500", "110945.442500", "110946.932500", "110948.422500", "110949.912500", "110951.402500", "110952.892500", "110954.382500", "110955.872500", "110957.362500", "110958.852500", "111000.342500", "111001.832500", "111003.322500", "111004.812500", "111006.302500", "111007.792500", "111009.282500", "111010.772500", "111012.262500", "111013.752500", "111015.242500", "111016.732500", "111018.222500", "111019.712500", "111021.202500", "111022.692500", "111024.182500", "111025.672500", "111027.162500", "111028.652500", "111030.142500", "111031.632500", "111033.122500", "111034.612500", "111036.102500", "111037.592500", "111039.082500", "111040.572500", "111042.062500", "111043.552500", "111045.042500", "111046.532500", "111048.022500", "111049.512500", "111051.002500", "111052.492500", "111053.982500", "111055.472500", "111056.962500", "111058.452500", "111059.942500", "111101.432500", "111102.922500", "111104.412500", "111105.902500", "111107.392500", "111108.882500", "111110.372500", "111111.862500", "111113.352500", "111114.842500", "111116.332500", "111117.822500", "111119.312500", "111120.802500", "111122.292500", "111123.782500", "111125.272500", "111126.762500", "111128.252500", "111129.742500", "111131.232500", "111132.722500", "111134.212500", "111135.702500", "111137.192500", "111138.682500", "111140.172500", "111141.662500", "111143.152500", "111144.642500", "111146.132500", "111147.622500", "111149.112500", "111150.602500", "111152.092500", "111153.582500", "111155.072500", "111156.562500", "111158.052500", "111159.542500", "111201.032500", "111202.522500", "111204.012500", "111205.502500", "111206.992500", "111208.482500", "111209.972500", "111211.462500", "111212.952500", "111214.442500", "111215.932500", "111217.422500", "111218.912500", "111220.402500", "111221.892500", "111223.382500", "111224.872500", "111226.362500", "111227.852500", "111229.342500", "111230.832500", "111232.322500", "111233.812500", "111235.302500", "111236.792500", "111238.282500", "111239.772500", "111241.262500", "111242.752500", "111244.242500", "111245.732500", "111247.222500", "111248.712500", "111250.202500", "111251.692500", "111253.182500", "111254.672500", "111256.162500", "111257.652500", "111259.142500", "111300.632500", "111302.122500", "111303.612500", "111305.102500", "111306.592500", "111308.082500", "111309.572500", "111311.062500", "111312.552500", "111314.042500", "111315.532500", "111317.022500", "111318.512500", "111320.002500", "111321.492500", "111322.982500", "111324.472500", "111325.962500", "111327.452500", "111328.942500", "111330.432500", "111331.922500", "111333.412500", "111334.902500", "111336.392500", "111337.882500", "111339.372500", "111340.862500", "111342.352500", "111343.842500", "111345.332500", "111346.822500", "111348.312500", "111349.802500", "111351.292500", "111352.782500", "111354.272500", "111355.762500", "111357.252500", "111358.742500", "111400.232500", "111401.722500", "111403.212500", "111404.702500", "111406.192500", "111407.682500", "111409.172500", "111410.662500", "111412.152500", "111413.642500", "111415.132500", "111416.622500", "111418.112500", "111419.602500", "111421.092500", "111422.582500", "111424.072500", "111425.562500", "111427.052500", "111428.542500", "111430.032500", "111431.522500", "111433.012500", "111434.502500", "111435.992500", "111437.482500", "111438.972500", "111440.462500", "111441.952500", "111443.442500", "111444.932500", "111446.422500", "111447.912500", "111449.402500", "111450.892500", "111452.382500", "111453.872500", "111455.362500", "111456.852500", "111458.342500", "111459.832500", "111501.322500", "111502.812500", "111504.302500", "111505.792500", "111507.282500", "111508.772500", "111510.262500", "111511.752500", "111513.242500", "111514.732500", "111516.222500", "111517.712500", "111519.202500", "111520.692500", "111522.182500", "111523.672500", "111525.162500", "111526.652500", "111528.142500", "111529.632500", "111531.122500", "111532.612500", "111534.102500", "111535.592500", "111537.082500", "111538.572500", "111540.062500", "111541.552500", "111543.042500", "111544.532500", "111546.022500", "111547.512500", "111549.002500", "111550.492500", "111551.982500", "111553.472500", "111554.962500", "111556.452500", "111557.942500", "111559.432500", "111600.922500", "111602.412500", "111603.902500", "111605.392500", "111606.882500", "111608.372500", "111609.862500", "111611.352500", "111612.842500", "111614.332500", "111615.822500", "111617.312500", "111618.802500", "111620.292500", "111621.782500", "111623.272500", "111624.762500", "111626.252500", "111627.742500", "111629.232500", "111630.722500", "111632.212500", "111633.702500", "111635.192500", "111636.682500", "111638.172500", "111639.662500", "111641.152500", "111642.642500", "111644.132500", "111645.622500", "111647.112500", "111648.602500", "111650.092500", "111651.582500", "111653.072500", "111654.562500", "111656.052500", "111657.542500", "111659.032500", "111700.522500", "111702.012500", "111703.502500", "111704.992500", "111706.482500", "111707.972500", "111709.462500", "111710.952500", "111712.442500", "111713.932500", "111715.422500", "111716.912500", "111718.402500", "111719.892500", "111721.382500", "111722.872500", "111724.362500", "111725.852500", "111727.342500", "111728.832500", "111730.322500", "111731.812500", "111733.302500", "111734.792500", "111736.282500", "111737.772500", "111739.262500", "111740.752500", "111742.242500", "111743.732500", "111745.222500", "111746.712500", "111748.202500", "111749.692500", "111751.182500", "111752.672500", "111754.162500", "111755.652500", "111757.142500", "111758.632500", "111800.122500", "111801.612500", "111803.102500", "111804.592500", "111806.082500", "111807.572500", "111809.062500", "111810.552500", "111812.042500", "111813.532500", "111815.022500", "111816.512500", "111818.002500", "111819.492500", "111820.982500", "111822.472500", "111823.962500", "111825.452500", "111826.942500", "111828.432500", "111829.922500", "111831.412500", "111832.902500", "111834.392500", "111835.882500", "111837.372500", "111838.862500", "111840.352500", "111841.842500", "111843.332500", "111844.822500", "111846.312500", "111847.802500", "111849.292500", "111850.782500", "111852.272500", "111853.762500", "111855.252500", "111856.742500", "111858.232500", "111859.722500", "111901.212500", "111902.702500", "111904.192500", "111905.682500", "111907.172500", "111908.662500", "111910.152500", "111911.642500", "111913.132500", "111914.622500", "111916.112500", "111917.602500", "111919.092500", "111920.582500", "111922.072500", "111923.562500", "111925.052500", "111926.542500", "111928.032500", "111929.522500", "111931.012500", "111932.502500", "111933.992500", "111935.482500", "111936.972500", "111938.462500", "111939.952500", "111941.442500", "111942.932500", "111944.422500", "111945.912500", "111947.402500", "111948.892500", "111950.382500", "111951.872500", "111953.362500", "111954.852500", "111956.342500", "111957.832500", "111959.322500", "112000.812500", "112002.302500", "112003.792500"],
      "ContentTime": ["110932.847000", "110932.850000", "110932.853000", "110932.856000", "110932.858000", "110932.861000", "110932.864000", "110932.867000", "110932.870000", "110932.873000", "110932.876000", "110932.878000", "110932.890000", "110932.893000", "110932.895000", "110932.898000", "110932.901000", "110932.904000", "110932.907000", "110932.910000", "110932.912000", "110932.915000", "110932.918000", "110932.921000", "110932.925000", "110932.928000", "110932.931000", "110932.934000", "110932.936000", "110932.939000", "110932.942000", "110932.945000", "110932.948000", "110932.951000", "110932.954000", "110932.956000", "110932.959000", "110932.962000", "110932.965000", "110932.968000", "110952.823000", "110952.826000", "110952.829000", "110952.831000", "110952.834000", "110952.837000", "110952.840000", "110952.843000", "110952.850000", "110952.853000", "110952.855000", "110952.858000", "110952.861000", "110952.864000", "110952.867000", "110952.869000", "110952.872000", "110952.875000", "110952.878000", "110952.881000", "111012.822000", "111012.825000", "111012.828000", "111012.830000", "111012.833000", "111012.836000", "111012.839000", "111012.842000", "111012.845000", "111012.848000", "111012.850000", "111012.853000", "111012.856000", "111012.859000", "111012.861000", "111012.864000", "111012.867000", "111012.870000", "111012.873000", "111012.876000", "111032.822000", "111032.825000", "111032.828000", "111032.831000", "111032.833000", "111032.836000", "111032.839000", "111032.842000", "111032.845000", "111032.848000", "111032.850000", "111032.856000", "111032.859000", "111032.862000", "111032.865000", "111032.868000", "111032.871000", "111032.874000", "111032.876000", "111032.879000", "111112.822000", "111112.825000", "111112.828000", "111112.830000", "111112.833000", "111112.836000", "111112.839000", "111112.842000", "111112.845000", "111112.848000", "111112.850000", "111112.853000", "111112.856000", "111112.859000", "111112.862000", "111112.865000", "111112.867000", "111112.870000", "111112.873000", "111112.876000", "111112.879000", "111112.881000", "111112.884000", "111112.887000", "111112.890000", "111112.893000", "111112.896000", "111112.905000", "111112.908000", "111152.822000", "111152.825000", "111152.828000", "111152.831000", "111152.834000", "111152.836000", "111152.839000", "111152.842000", "111152.845000", "111152.848000", "111152.850000", "111152.853000", "111152.856000", "111152.859000", "111152.862000", "111152.864000", "111152.867000", "111152.884000", "111152.886000", "111152.889000", "111152.892000", "111152.895000", "111152.898000", "111152.901000", "111152.903000", "111152.906000", "111152.909000", "111232.822000", "111232.825000", "111232.828000", "111232.830000", "111232.833000", "111232.836000", "111232.839000", "111232.842000", "111232.845000", "111232.848000", "111232.850000", "111232.853000", "111232.856000", "111232.859000", "111232.862000", "111232.864000", "111232.867000", "111232.870000", "111232.873000", "111232.876000", "111232.878000", "111232.881000", "111232.892000", "111232.895000", "111232.898000", "111232.901000", "111232.904000", "111312.822000", "111312.825000", "111312.828000", "111312.831000", "111312.834000", "111312.836000", "111312.839000", "111312.842000", "111312.845000", "111312.848000", "111312.851000", "111312.854000", "111312.856000", "111312.859000", "111312.862000", "111312.865000", "111312.868000", "111312.871000", "111312.873000", "111312.876000", "111312.879000", "111312.882000", "111312.885000", "111312.887000", "111312.898000", "111312.901000", "111312.904000", "111352.822000", "111352.825000", "111352.828000", "111352.830000", "111352.833000", "111352.836000", "111352.839000", "111352.842000", "111352.845000", "111352.848000", "111352.850000", "111352.853000", "111352.856000", "111352.859000", "111352.862000", "111352.865000", "111352.867000", "111352.870000", "111352.873000", "111352.876000", "111352.879000", "111352.882000", "111352.885000", "111352.887000", "111352.892000", "111352.895000", "111432.823000", "111432.826000", "111432.829000", "111432.832000", "111432.835000", "111432.838000", "111432.841000", "111432.843000", "111432.846000", "111432.849000", "111432.852000", "111432.855000", "111432.858000", "111432.861000", "111432.864000", "111432.867000", "111432.869000", "111432.872000", "111432.875000", "111432.882000", "111432.885000", "111432.888000", "111432.891000", "111432.893000", "111432.896000", "111432.899000", "111432.902000", "111512.822000", "111512.825000", "111512.828000", "111512.831000", "111512.833000", "111512.836000", "111512.840000", "111512.843000", "111512.846000", "111512.849000", "111512.851000", "111512.854000", "111512.857000", "111512.860000", "111512.863000", "111512.866000", "111512.869000", "111512.871000", "111512.875000", "111512.877000", "111512.880000", "111512.883000", "111512.886000", "111512.889000", "111512.892000", "111512.894000", "111512.897000", "111552.822000", "111552.825000", "111552.828000", "111552.831000", "111552.834000", "111552.836000", "111552.839000", "111552.842000", "111552.845000", "111552.848000", "111552.851000", "111552.853000", "111552.856000", "111552.859000", "111552.862000", "111552.865000", "111552.868000", "111552.870000", "111552.873000", "111552.876000", "111552.879000", "111552.882000", "111552.885000", "111552.888000", "111552.891000", "111552.893000", "111552.896000", "111632.822000", "111632.825000", "111632.828000", "111632.831000", "111632.834000", "111632.837000", "111632.840000", "111632.842000", "111632.845000", "111632.848000", "111632.851000", "111632.854000", "111632.857000", "111632.860000", "111632.863000", "111632.865000", "111632.868000", "111632.871000", "111632.885000", "111632.888000", "111632.890000", "111632.893000", "111632.896000", "111632.899000", "111632.902000", "111632.905000", "111632.908000", "111712.822000", "111712.825000", "111712.828000", "111712.831000", "111712.834000", "111712.837000", "111712.839000", "111712.842000", "111712.845000", "111712.848000", "111712.851000", "111712.854000", "111712.857000", "111712.860000", "111712.863000", "111712.865000", "111712.868000", "111712.872000", "111712.875000", "111712.877000", "111712.880000", "111712.883000", "111712.886000", "111712.889000", "111712.892000", "111712.895000", "111712.898000", "111752.822000", "111752.825000", "111752.828000", "111752.831000", "111752.834000", "111752.837000", "111752.840000", "111752.843000", "111752.846000", "111752.849000", "111752.851000", "111752.854000", "111752.857000", "111752.860000", "111752.863000", "111752.866000", "111752.869000", "111752.871000", "111752.874000", "111752.877000", "111752.880000", "111752.883000", "111752.886000", "111752.889000", "111752.891000", "111752.894000", "111832.822000", "111832.825000", "111832.828000", "111832.831000", "111832.833000", "111832.836000", "111832.839000", "111832.842000", "111832.845000", "111832.848000", "111832.851000", "111832.854000", "111832.856000", "111832.859000", "111832.862000", "111832.865000", "111832.868000", "111832.871000", "111832.874000", "111832.876000", "111832.879000", "111832.882000", "111832.894000", "111832.897000", "111832.900000", "111832.903000", "111832.906000", "111912.823000", "111912.826000", "111912.829000", "111912.832000", "111912.834000", "111912.837000", "111912.840000", "111912.843000", "111912.846000", "111912.849000", "111912.852000", "111912.855000", "111912.857000", "111912.860000", "111912.863000", "111912.866000", "111912.869000", "111912.872000", "111912.875000", "111912.877000", "111912.880000", "111912.883000", "111912.886000", "111912.889000", "111912.892000", "111912.895000", "111912.898000", "111932.822000", "111932.825000", "111932.828000", "111932.831000", "111932.838000", "111932.841000", "111932.844000", "111932.847000", "111932.850000", "111932.852000", "111932.856000", "111932.858000", "111932.861000", "111932.864000", "112005.585000", "112005.588000", "112005.591000", "112005.594000", "112005.597000", "112005.600000", "112005.603000", "112005.606000", "112005.609000", "112005.612000", "112005.615000", "112005.618000", "112005.621000", "112005.624000", "112005.627000", "112005.630000", "112005.633000", "112005.636000", "112005.639000", "112005.642000", "112005.645000", "112005.648000"],
