{
  "AcquisitionMatrixPE": 104,
  "AcquisitionNumber": 1,
  "AcquisitionTime": "11:21:32.055000",
  "BandwidthPerPixelPhaseEncode": 17.17,
  "BaseResolution": 104,
  "BodyPartExamined": "BRAIN",
  "CoilCombinationMethod": "Sum of Squares",
  "ConsistencyInfo": "N4_VE11C_LATEST_20160120",
  "ConversionSoftware": "dcm2niix",
  "ConversionSoftwareVersion": "v1.0.20211006",
  "DerivedVendorReportedEchoSpacing": 0.000560011,
  "DeviceSerialNumber": "167006",
  "DwellTime": 2.1e-06,
  "EchoTime": 0.037,
  "EchoTrainLength": 104,
  "EffectiveEchoSpacing": 0.000560011,
  "FlipAngle": 52,
  "HeudiconvVersion": "0.11.3.post9+gc939bf8",
  "ImageComments": "Unaliased MB4/PE3/LB",
  "ImageOrientationPatientDICOM": [0.99782, 0.0641356, 0.0155417, -0.0529921, 0.919078, -0.390497],
  "ImageOrientationText": "Tra>Cor(-22.9)>Sag(2.3)",
  "ImageType": [
    "ORIGINAL",
    "PRIMARY",
    "M",
    "MB",
    "ND",
    "MOSAIC"
],
  "ImagingFrequency": 123.259,
  "InPlanePhaseEncodingDirectionDICOM": "COL",
  "InstitutionAddress": "Chemin Queen-Mary 4565,Montreal,District,CA,H3W 1W5",
  "InstitutionName": "IUGM",
  "InstitutionalDepartmentName": "Department",
  "MRAcquisitionType": "2D",
  "MagneticFieldStrength": 3,
  "Manufacturer": "Siemens",
  "ManufacturersModelName": "Prisma_fit",
  "MatrixCoilMode": "SENSE",
  "Modality": "MR",
  "MultibandAccelerationFactor": 4,
  "PartialFourier": 1,
  "PatientPosition": "HFS",
  "PercentPhaseFOV": 100,
  "PercentSampling": 100,
  "PhaseEncodingDirection": "j",
  "PhaseEncodingSteps": 104,
  "PhaseResolution": 1,
  "PixelBandwidth": 2290,
  "ProcedureStepDescription": "video^friends",
  "ProtocolName": "func_task-friends-s06e03a",
  "PulseSequenceDetails": "%CustomerSeq%\\cmrr_mbep2d_bold",
  "ReceiveCoilActiveElements": "HC1-7;NC1,2",
  "ReceiveCoilName": "HeadNeck_64",
  "ReconMatrixPE": 104,
  "RepetitionTime": 1.49,
  "SAR": 0.0345711,
  "ScanOptions": "FS",
  "ScanningSequence": "EP",
  "SequenceName": "epfid2d1_104",
  "SequenceVariant": "SK\\SS",
  "SeriesDescription": "func_task-friends-s06e03a",
  "SeriesNumber": 14,
  "ShimSetting": [623, -7191, -8830, 667, 71, -13, -67, 1],
  "SliceThickness": 2,
  "SliceTiming": [0, 0.785, 0.0975, 0.8825, 0.1975, 0.98, 0.295, 1.0775, 0.3925, 1.1775, 0.49, 1.275, 0.5875, 1.3725, 0.6875, 0, 0.785, 0.0975, 0.8825, 0.1975, 0.98, 0.295, 1.0775, 0.3925, 1.1775, 0.49, 1.275, 0.5875, 1.3725, 0.6875, 0, 0.785, 0.0975, 0.8825, 0.1975, 0.98, 0.295, 1.0775, 0.3925, 1.1775, 0.49, 1.275, 0.5875, 1.3725, 0.6875, 0, 0.785, 0.0975, 0.8825, 0.1975, 0.98, 0.295, 1.0775, 0.3925, 1.1775, 0.49, 1.275, 0.5875, 1.3725, 0.6875],
  "SoftwareVersions": "syngo MR E11",
  "SpacingBetweenSlices": 2,
  "StationName": "MRC35049",
  "TaskName": "s06e03a",
  "TotalReadoutTime": 0.0576811,
  "TxRefAmp": 239.153,
  "WipMemBlock": "6c688190-fc3b-471a-9325-4aa91b2bf119||Sequence: R016 ve11c/master r/e634e98; Dec 19 2017 11:00:25 by eja",
  "dcmmeta_affine": [
    [-1.9956402778625488, -0.10598424822092056, 0.0786576122045517, 106.31451416015625],
    [-0.1282712072134018, 1.8381555080413818, -0.7776443958282471, -60.36906814575195],
    [0.031083429232239723, 0.7809940576553345, 1.8409459590911865, -74.98296356201172],
    [0.0, 0.0, 0.0, 1.0]
],
  "dcmmeta_reorient_transform": [
    [0.0, -1.0, 0.0, 103.0],
    [1.0, 0.0, 0.0, 0.0],
    [0.0, 0.0, 1.0, 0.0],
    [0.0, 0.0, 0.0, 1.0]
],
  "dcmmeta_shape": [104, 104, 60, 439],
  "dcmmeta_slice_dim": 2,
  "dcmmeta_version": 0.6,
  "global": {
    "const": {
      "AcquisitionMatrix": [104, 0, 0, 104],
      "AngioFlag": "N",
      "BitsAllocated": 16,
      "BitsStored": 16,
      "BodyPartExamined": "BRAIN",
      "Columns": 832,
      "EchoNumbers": 1,
      "EchoTime": 37.0,
      "EchoTrainLength": 104,
      "FlipAngle": 52.0,
      "HighBit": 15,
      "ImageOrientationPatient": [0.99782016412619, 0.06413559994858, 0.01554171426895, -0.052992124235, 0.91907775342945, -0.3904970139708],
      "ImagePositionPatient": [-783.23295247246, -844.74026850966, 278.42688253311],
      "ImageType": [
        "ORIGINAL",
        "PRIMARY",
        "M",
        "MB",
        "ND",
        "MOSAIC"
],
      "ImagedNucleus": "1H",
      "ImagingFrequency": 123.258847,
      "InPlanePhaseEncodingDirection": "COL",
      "MRAcquisitionType": "2D",
      "MagneticFieldStrength": 3.0,
      "Manufacturer": "SIEMENS",
      "ManufacturerModelName": "Prisma_fit",
      "Modality": "MR",
      "NumberOfAverages": 1.0,
      "NumberOfPhaseEncodingSteps": 104,
      "PercentPhaseFieldOfView": 100.0,
      "PercentSampling": 100.0,
      "PerformedProcedureStepStartTime": "103216.741000",
      "PhotometricInterpretation": "MONOCHROME2",
      "PixelBandwidth": 2290.0,
      "PixelRepresentation": 0,
      "PixelSpacing": [2.0, 2.0],
      "ProtocolName": "func_task-friends-s06e03a",
      "RepetitionTime": 1490.0,
      "Rows": 832,
      "SAR": 0.03457108658051,
      "SamplesPerPixel": 1,
      "ScanOptions": "FS",
      "ScanningSequence": "EP",
      "SequenceName": "epfid2d1_104",
      "SequenceVariant": [
        "SK",
        "SS"
],
      "SeriesDescription": "func_task-friends-s06e03a",
      "SeriesNumber": 14,
      "SeriesTime": "112252.946000",
      "SliceLocation": -41.365732584896,
      "SliceThickness": 2.0,
      "SmallestImagePixelValue": 0,
      "SoftwareVersions": "syngo MR E11",
      "SpacingBetweenSlices": 2.0000000182172,
      "SpecificCharacterSet": "ISO_IR 100",
      "StudyID": "1",
      "StudyTime": "103216.662000",
      "TransmitCoilName": "Body",
      "VariableFlipAngleFlag": "N",
      "WindowCenterWidthExplanation": "Algo1",
      "dBdt": 0.0},
    "slices": {}
  },
  "time": {
    "samples": {
      "AcquisitionNumber": [1, 2, 3, 4, 5, 6, 7, 8, 9, 10, 11, 12, 13, 14, 15, 16, 17, 18, 19, 20, 21, 22, 23, 24, 25, 26, 27, 28, 29, 30, 31, 32, 33, 34, 35, 36, 37, 38, 39, 40, 41, 42, 43, 44, 45, 46, 47, 48, 49, 50, 51, 52, 53, 54, 55, 56, 57, 58, 59, 60, 61, 62, 63, 64, 65, 66, 67, 68, 69, 70, 71, 72, 73, 74, 75, 76, 77, 78, 79, 80, 81, 82, 83, 84, 85, 86, 87, 88, 89, 90, 91, 92, 93, 94, 95, 96, 97, 98, 99, 100, 101, 102, 103, 104, 105, 106, 107, 108, 109, 110, 111, 112, 113, 114, 115, 116, 117, 118, 119, 120, 121, 122, 123, 124, 125, 126, 127, 128, 129, 130, 131, 132, 133, 134, 135, 136, 137, 138, 139, 140, 141, 142, 143, 144, 145, 146, 147, 148, 149, 150, 151, 152, 153, 154, 155, 156, 157, 158, 159, 160, 161, 162, 163, 164, 165, 166, 167, 168, 169, 170, 171, 172, 173, 174, 175, 176, 177, 178, 179, 180, 181, 182, 183, 184, 185, 186, 187, 188, 189, 190, 191, 192, 193, 194, 195, 196, 197, 198, 199, 200, 201, 202, 203, 204, 205, 206, 207, 208, 209, 210, 211, 212, 213, 214, 215, 216, 217, 218, 219, 220, 221, 222, 223, 224, 225, 226, 227, 228, 229, 230, 231, 232, 233, 234, 235, 236, 237, 238, 239, 240, 241, 242, 243, 244, 245, 246, 247, 248, 249, 250, 251, 252, 253, 254, 255, 256, 257, 258, 259, 260, 261, 262, 263, 264, 265, 266, 267, 268, 269, 270, 271, 272, 273, 274, 275, 276, 277, 278, 279, 280, 281, 282, 283, 284, 285, 286, 287, 288, 289, 290, 291, 292, 293, 294, 295, 296, 297, 298, 299, 300, 301, 302, 303, 304, 305, 306, 307, 308, 309, 310, 311, 312, 313, 314, 315, 316, 317, 318, 319, 320, 321, 322, 323, 324, 325, 326, 327, 328, 329, 330, 331, 332, 333, 334, 335, 336, 337, 338, 339, 340, 341, 342, 343, 344, 345, 346, 347, 348, 349, 350, 351, 352, 353, 354, 355, 356, 357, 358, 359, 360, 361, 362, 363, 364, 365, 366, 367, 368, 369, 370, 371, 372, 373, 374, 375, 376, 377, 378, 379, 380, 381, 382, 383, 384, 385, 386, 387, 388, 389, 390, 391, 392, 393, 394, 395, 396, 397, 398, 399, 400, 401, 402, 403, 404, 405, 406, 407, 408, 409, 410, 411, 412, 413, 414, 415, 416, 417, 418, 419, 420, 421, 422, 423, 424, 425, 426, 427, 428, 429, 430, 431, 432, 433, 434, 435, 436, 437, 438, 439],
      "AcquisitionTime": ["112132.055000", "112133.545000", "112135.035000", "112136.525000", "112138.015000", "112139.505000", "112140.995000", "112142.485000", "112143.975000", "112145.465000", "112146.955000", "112148.445000", "112149.935000", "112151.425000", "112152.915000", "112154.405000", "112155.895000", "112157.385000", "112158.875000", "112200.365000", "112201.855000", "112203.345000", "112204.835000", "112206.325000", "112207.815000", "112209.305000", "112210.795000", "112212.285000", "112213.775000", "112215.265000", "112216.755000", "112218.245000", "112219.735000", "112221.225000", "112222.715000", "112224.205000", "112225.695000", "112227.185000", "112228.675000", "112230.165000", "112231.655000", "112233.145000", "112234.635000", "112236.125000", "112237.615000", "112239.105000", "112240.595000", "112242.085000", "112243.575000", "112245.065000", "112246.555000", "112248.045000", "112249.535000", "112251.025000", "112252.515000", "112254.005000", "112255.495000", "112256.985000", "112258.475000", "112259.965000", "112301.455000", "112302.945000", "112304.435000", "112305.925000", "112307.415000", "112308.905000", "112310.395000", "112311.885000", "112313.375000", "112314.865000", "112316.355000", "112317.845000", "112319.335000", "112320.825000", "112322.315000", "112323.805000", "112325.295000", "112326.785000", "112328.275000", "112329.765000", "112331.255000", "112332.745000", "112334.235000", "112335.725000", "112337.215000", "112338.705000", "112340.195000", "112341.685000", "112343.175000", "112344.665000", "112346.155000", "112347.645000", "112349.135000", "112350.625000", "112352.115000", "112353.605000", "112355.095000", "112356.585000", "112358.075000", "112359.565000", "112401.055000", "112402.545000", "112404.035000", "112405.525000", "112407.015000", "112408.505000", "112409.995000", "112411.485000", "112412.975000", "112414.465000", "112415.955000", "112417.445000", "112418.935000", "112420.425000", "112421.915000", "112423.405000", "112424.895000", "112426.385000", "112427.875000", "112429.365000", "112430.855000", "112432.345000", "112433.835000", "112435.325000", "112436.815000", "112438.305000", "112439.795000", "112441.285000", "112442.775000", "112444.265000", "112445.755000", "112447.245000", "112448.735000", "112450.225000", "112451.715000", "112453.205000", "112454.695000", "112456.185000", "112457.675000", "112459.165000", "112500.655000", "112502.145000", "112503.635000", "112505.125000", "112506.615000", "112508.105000", "112509.595000", "112511.085000", "112512.575000", "112514.065000", "112515.555000", "112517.045000", "112518.535000", "112520.025000", "112521.515000", "112523.005000", "112524.495000", "112525.985000", "112527.475000", "112528.965000", "112530.455000", "112531.945000", "112533.435000", "112534.925000", "112536.415000", "112537.905000", "112539.395000", "112540.885000", "112542.375000", "112543.865000", "112545.355000", "112546.845000", "112548.335000", "112549.825000", "112551.315000", "112552.805000", "112554.295000", "112555.785000", "112557.275000", "112558.765000", "112600.255000", "112601.745000", "112603.235000", "112604.725000", "112606.215000", "112607.705000", "112609.195000", "112610.685000", "112612.175000", "112613.665000", "112615.155000", "112616.645000", "112618.135000", "112619.625000", "112621.115000", "112622.605000", "112624.095000", "112625.585000", "112627.075000", "112628.565000", "112630.055000", "112631.545000", "112633.035000", "112634.525000", "112636.015000", "112637.505000", "112638.995000", "112640.485000", "112641.975000", "112643.465000", "112644.955000", "112646.445000", "112647.935000", "112649.425000", "112650.915000", "112652.405000", "112653.895000", "112655.385000", "112656.875000", "112658.365000", "112659.855000", "112701.345000", "112702.835000", "112704.325000", "112705.815000", "112707.305000", "112708.795000", "112710.285000", "112711.775000", "112713.265000", "112714.755000", "112716.245000", "112717.735000", "112719.225000", "112720.715000", "112722.205000", "112723.695000", "112725.185000", "112726.675000", "112728.165000", "112729.655000", "112731.145000", "112732.635000", "112734.125000", "112735.615000", "112737.105000", "112738.595000", "112740.085000", "112741.575000", "112743.065000", "112744.555000", "112746.045000", "112747.535000", "112749.025000", "112750.515000", "112752.005000", "112753.495000", "112754.985000", "112756.475000", "112757.965000", "112759.455000", "112800.945000", "112802.435000", "112803.925000", "112805.415000", "112806.905000", "112808.395000", "112809.885000", "112811.375000", "112812.865000", "112814.355000", "112815.845000", "112817.335000", "112818.825000", "112820.315000", "112821.805000", "112823.295000", "112824.785000", "112826.275000", "112827.765000", "112829.255000", "112830.745000", "112832.235000", "112833.725000", "112835.215000", "112836.705000", "112838.195000", "112839.685000", "112841.175000", "112842.665000", "112844.155000", "112845.645000", "112847.135000", "112848.625000", "112850.115000", "112851.605000", "112853.095000", "112854.585000", "112856.075000", "112857.565000", "112859.055000", "112900.545000", "112902.035000", "112903.525000", "112905.015000", "112906.505000", "112907.995000", "112909.485000", "112910.975000", "112912.465000", "112913.955000", "112915.445000", "112916.935000", "112918.425000", "112919.915000", "112921.405000", "112922.895000", "112924.385000", "112925.875000", "112927.365000", "112928.855000", "112930.345000", "112931.835000", "112933.325000", "112934.815000", "112936.305000", "112937.795000", "112939.285000", "112940.775000", "112942.265000", "112943.755000", "112945.245000", "112946.735000", "112948.225000", "112949.715000", "112951.205000", "112952.695000", "112954.185000", "112955.675000", "112957.165000", "112958.655000", "113000.145000", "113001.635000", "113003.125000", "113004.615000", "113006.105000", "113007.595000", "113009.085000", "113010.575000", "113012.065000", "113013.555000", "113015.045000", "113016.535000", "113018.025000", "113019.515000", "113021.005000", "113022.495000", "113023.985000", "113025.475000", "113026.965000", "113028.455000", "113029.945000", "113031.435000", "113032.925000", "113034.415000", "113035.905000", "113037.395000", "113038.885000", "113040.375000", "113041.865000", "113043.355000", "113044.845000", "113046.335000", "113047.825000", "113049.315000", "113050.805000", "113052.295000", "113053.785000", "113055.275000", "113056.765000", "113058.255000", "113059.745000", "113101.235000", "113102.725000", "113104.215000", "113105.705000", "113107.195000", "113108.685000", "113110.175000", "113111.665000", "113113.155000", "113114.645000", "113116.135000", "113117.625000", "113119.115000", "113120.605000", "113122.095000", "113123.585000", "113125.075000", "113126.565000", "113128.055000", "113129.545000", "113131.035000", "113132.525000", "113134.015000", "113135.505000", "113136.995000", "113138.485000", "113139.975000", "113141.465000", "113142.955000", "113144.445000", "113145.935000", "113147.425000", "113148.915000", "113150.405000", "113151.895000", "113153.385000", "113154.875000", "113156.365000", "113157.855000", "113159.345000", "113200.835000", "113202.325000", "113203.815000", "113205.305000", "113206.795000", "113208.285000", "113209.775000", "113211.265000", "113212.755000", "113214.245000", "113215.735000", "113217.225000", "113218.715000", "113220.205000", "113221.695000", "113223.185000", "113224.675000"],
      "ContentTime": ["112252.949000", "112252.953000", "112252.956000", "112252.966000", "112252.969000", "112252.972000", "112252.975000", "112252.978000", "112252.980000", "112252.983000", "112252.986000", "112252.989000", "112252.992000", "112252.995000", "112252.997000", "112253.001000", "112253.008000", "112253.011000", "112253.014000", "112253.017000", "112253.019000", "112253.022000", "112253.025000", "112253.028000", "112253.031000", "112312.901000", "112312.904000", "112312.907000", "112312.909000", "112312.912000", "112312.915000", "112312.918000", "112312.921000", "112312.932000", "112312.935000", "112312.938000", "112312.941000", "112312.943000", "112312.946000", "112312.949000", "112312.952000", "112312.955000", "112312.958000", "112312.960000", "112312.963000", "112332.901000", "112332.904000", "112332.907000", "112332.916000", "112332.919000", "112332.921000", "112332.924000", "112332.927000", "112332.930000", "112332.933000", "112332.936000", "112332.938000", "112332.941000", "112332.944000", "112332.947000", "112332.950000", "112332.952000", "112332.955000", "112332.958000", "112332.961000", "112352.902000", "112352.905000", "112352.908000", "112352.911000", "112352.913000", "112352.916000", "112352.919000", "112352.922000", "112352.924000", "112352.927000", "112352.930000", "112352.933000", "112352.936000", "112352.938000", "112352.941000", "112352.944000", "112352.947000", "112352.950000", "112352.952000", "112352.963000", "112412.901000", "112412.904000", "112412.907000", "112412.910000", "112412.912000", "112412.915000", "112412.918000", "112412.921000", "112412.924000", "112412.927000", "112412.929000", "112412.932000", "112412.935000", "112412.938000", "112412.941000", "112412.943000", "112412.946000", "112412.949000", "112412.955000", "112412.958000", "112412.961000", "112452.901000", "112452.904000", "112452.907000", "112452.910000", "112452.913000", "112452.915000", "112452.918000", "112452.921000", "112452.924000", "112452.927000", "112452.929000", "112452.932000", "112452.935000", "112452.938000", "112452.941000", "112452.944000", "112452.946000", "112452.949000", "112452.952000", "112452.963000", "112452.966000", "112452.969000", "112452.972000", "112452.974000", "112452.977000", "112452.980000", "112452.983000", "112452.986000", "112532.901000", "112532.904000", "112532.907000", "112532.910000", "112532.912000", "112532.915000", "112532.918000", "112532.921000", "112532.924000", "112532.927000", "112532.930000", "112532.932000", "112532.935000", "112532.938000", "112532.941000", "112532.944000", "112532.947000", "112532.949000", "112532.952000", "112532.955000", "112532.958000", "112532.961000", "112532.964000", "112532.966000", "112532.969000", "112532.972000", "112532.975000", "112612.902000", "112612.905000", "112612.908000", "112612.911000", "112612.914000", "112612.916000", "112612.919000", "112612.922000", "112612.925000", "112612.928000", "112612.930000", "112612.933000", "112612.936000", "112612.939000", "112612.942000", "112612.945000", "112612.947000", "112612.950000", "112612.953000", "112612.956000", "112612.959000", "112612.961000", "112612.964000", "112612.967000", "112612.970000", "112612.973000", "112612.976000", "112652.901000", "112652.904000", "112652.907000", "112652.910000", "112652.912000", "112652.915000", "112652.918000", "112652.921000", "112652.924000", "112652.927000", "112652.929000", "112652.932000", "112652.950000", "112652.954000", "112652.956000", "112652.959000", "112652.962000", "112652.965000", "112652.968000", "112652.971000", "112652.973000", "112652.976000", "112652.979000", "112652.982000", "112652.985000", "112652.987000", "112732.901000", "112732.904000", "112732.907000", "112732.910000", "112732.912000", "112732.915000", "112732.918000", "112732.921000", "112732.924000", "112732.927000", "112732.930000", "112732.932000", "112732.935000", "112732.938000", "112732.941000", "112732.944000", "112732.947000", "112732.949000", "112732.952000", "112732.955000", "112732.958000", "112732.961000", "112732.964000", "112732.967000", "112732.969000", "112732.972000", "112732.975000", "112812.901000", "112812.904000", "112812.907000", "112812.910000", "112812.913000", "112812.915000", "112812.918000", "112812.921000", "112812.924000", "112812.927000", "112812.930000", "112812.932000", "112812.935000", "112812.938000", "112812.941000", "112812.944000", "112812.946000", "112812.949000", "112812.952000", "112812.955000", "112812.958000", "112812.961000", "112812.963000", "112812.966000", "112812.969000", "112812.972000", "112812.975000", "112852.901000", "112852.904000", "112852.907000", "112852.910000", "112852.913000", "112852.915000", "112852.918000", "112852.921000", "112852.924000", "112852.927000", "112852.930000", "112852.932000", "112852.935000", "112852.938000", "112852.941000", "112852.944000", "112852.947000", "112852.950000", "112852.952000", "112852.955000", "112852.958000", "112852.961000", "112852.964000", "112852.966000", "112852.969000", "112852.972000", "112852.975000", "112932.901000", "112932.904000", "112932.907000", "112932.910000", "112932.913000", "112932.915000", "112932.918000", "112932.921000", "112932.924000", "112932.927000", "112932.930000", "112932.932000", "112932.935000", "112932.938000", "112932.941000", "112932.944000", "112932.947000", "112932.950000", "112932.952000", "112932.955000", "112932.958000", "112932.961000", "112932.964000", "112932.967000", "112932.969000", "112932.972000", "112932.975000", "113012.901000", "113012.904000", "113012.907000", "113012.910000", "113012.913000", "113012.916000", "113012.918000", "113012.921000", "113012.924000", "113012.927000", "113012.930000", "113012.933000", "113012.935000", "113012.938000", "113012.941000", "113012.944000", "113012.947000", "113012.950000", "113012.953000", "113012.955000", "113012.958000", "113012.961000", "113012.964000", "113012.967000", "113012.970000", "113012.972000", "113012.975000", "113052.902000", "113052.905000", "113052.908000", "113052.911000", "113052.914000", "113052.916000", "113052.919000", "113052.922000", "113052.925000", "113052.928000", "113052.930000", "113052.933000", "113052.936000", "113052.939000", "113052.942000", "113052.945000", "113052.947000", "113052.951000", "113052.954000", "113052.957000", "113052.961000", "113052.964000", "113052.967000", "113052.970000", "113052.973000", "113052.976000", "113132.901000", "113132.904000", "113132.907000", "113132.910000", "113132.913000", "113132.916000", "113132.918000", "113132.921000", "113132.924000", "113132.927000", "113132.930000", "113132.933000", "113132.935000", "113132.950000", "113132.953000", "113132.956000", "113132.959000", "113132.961000", "113132.964000", "113132.967000", "113132.970000", "113132.973000", "113132.976000", "113132.979000", "113132.981000", "113132.984000", "113132.987000", "113212.901000", "113212.904000", "113212.907000", "113212.910000", "113212.913000", "113212.916000", "113212.918000", "113212.921000", "113212.924000", "113212.927000", "113212.930000", "113212.932000", "113212.935000", "113212.938000", "113212.941000", "113212.944000", "113212.947000", "113212.950000", "113212.953000", "113212.955000", "113212.958000", "113212.961000", "113212.964000", "113212.967000", "113212.970000", "113212.973000", "113212.975000", "113226.872000", "113226.875000", "113226.878000", "113226.881000", "113226.884000", "113226.887000", "113226.890000", "113226.893000", "113226.896000", "113226.899000"],
