{
  "AcquisitionMatrixPE": 104,
  "AcquisitionNumber": 1,
  "AcquisitionTime": "10:55:14.192500",
  "BandwidthPerPixelPhaseEncode": 17.17,
  "BaseResolution": 104,
  "BodyPartExamined": "BRAIN",
  "CoilCombinationMethod": "Sum of Squares",
  "ConsistencyInfo": "N4_VE11C_LATEST_20160120",
  "ConversionSoftware": "dcm2niix",
  "ConversionSoftwareVersion": "v1.0.20211006",
  "DerivedVendorReportedEchoSpacing": 0.000560011,
  "DeviceSerialNumber": "167006",
  "DwellTime": 2.1e-06,
  "EchoTime": 0.037,
  "EchoTrainLength": 104,
  "EffectiveEchoSpacing": 0.000560011,
  "FlipAngle": 52,
  "HeudiconvVersion": "0.11.3.post9+gc939bf8",
  "ImageComments": "Unaliased MB4/PE3/LB",
  "ImageOrientationPatientDICOM": [0.99782, 0.0641356, 0.0155417, -0.0529921, 0.919078, -0.390497],
  "ImageOrientationText": "Tra>Cor(-22.9)>Sag(2.3)",
  "ImageType": [
    "ORIGINAL",
    "PRIMARY",
    "M",
    "MB",
    "ND",
    "MOSAIC"
],
  "ImagingFrequency": 123.259,
  "InPlanePhaseEncodingDirectionDICOM": "COL",
  "InstitutionAddress": "Chemin Queen-Mary 4565,Montreal,District,CA,H3W 1W5",
  "InstitutionName": "IUGM",
  "InstitutionalDepartmentName": "Department",
  "MRAcquisitionType": "2D",
  "MagneticFieldStrength": 3,
  "Manufacturer": "Siemens",
  "ManufacturersModelName": "Prisma_fit",
  "MatrixCoilMode": "SENSE",
  "Modality": "MR",
  "MultibandAccelerationFactor": 4,
  "PartialFourier": 1,
  "PatientPosition": "HFS",
  "PercentPhaseFOV": 100,
  "PercentSampling": 100,
  "PhaseEncodingDirection": "j",
  "PhaseEncodingSteps": 104,
  "PhaseResolution": 1,
  "PixelBandwidth": 2290,
  "ProcedureStepDescription": "video^friends",
  "ProtocolName": "func_task-friends-s06e02a",
  "PulseSequenceDetails": "%CustomerSeq%\\cmrr_mbep2d_bold",
  "ReceiveCoilActiveElements": "HC1-7;NC1,2",
  "ReceiveCoilName": "HeadNeck_64",
  "ReconMatrixPE": 104,
  "RepetitionTime": 1.49,
  "SAR": 0.0345759,
  "ScanOptions": "FS",
  "ScanningSequence": "EP",
  "SequenceName": "epfid2d1_104",
  "SequenceVariant": "SK\\SS",
  "SeriesDescription": "func_task-friends-s06e02a",
  "SeriesNumber": 10,
  "ShimSetting": [623, -7191, -8830, 667, 71, -13, -67, 1],
  "SliceThickness": 2,
  "SliceTiming": [0, 0.785, 0.0975, 0.8825, 0.1975, 0.98, 0.295, 1.0775, 0.3925, 1.1775, 0.49, 1.275, 0.5875, 1.3725, 0.6875, 0, 0.785, 0.0975, 0.8825, 0.1975, 0.98, 0.295, 1.0775, 0.3925, 1.1775, 0.49, 1.275, 0.5875, 1.3725, 0.6875, 0, 0.785, 0.0975, 0.8825, 0.1975, 0.98, 0.295, 1.0775, 0.3925, 1.1775, 0.49, 1.275, 0.5875, 1.3725, 0.6875, 0, 0.785, 0.0975, 0.8825, 0.1975, 0.98, 0.295, 1.0775, 0.3925, 1.1775, 0.49, 1.275, 0.5875, 1.3725, 0.6875],
  "SoftwareVersions": "syngo MR E11",
  "SpacingBetweenSlices": 2,
  "StationName": "MRC35049",
  "TaskName": "s06e02a",
  "TotalReadoutTime": 0.0576811,
  "TxRefAmp": 239.153,
  "WipMemBlock": "14b5896d-78e2-46ea-83c2-10a4fe310aa8||Sequence: R016 ve11c/master r/e634e98; Dec 19 2017 11:00:25 by eja",
  "dcmmeta_affine": [
    [-1.9956402778625488, -0.10598424822092056, 0.0786576122045517, 106.31451416015625],
    [-0.1282712072134018, 1.8381555080413818, -0.7776443958282471, -60.36906814575195],
    [0.031083429232239723, 0.7809940576553345, 1.8409459590911865, -74.98296356201172],
    [0.0, 0.0, 0.0, 1.0]
],
  "dcmmeta_reorient_transform": [
    [0.0, -1.0, 0.0, 103.0],
    [1.0, 0.0, 0.0, 0.0],
    [0.0, 0.0, 1.0, 0.0],
    [0.0, 0.0, 0.0, 1.0]
],
  "dcmmeta_shape": [104, 104, 60, 453],
  "dcmmeta_slice_dim": 2,
  "dcmmeta_version": 0.6,
  "global": {
    "const": {
      "AcquisitionMatrix": [104, 0, 0, 104],
      "AngioFlag": "N",
      "BitsAllocated": 16,
      "BitsStored": 16,
      "BodyPartExamined": "BRAIN",
      "Columns": 832,
      "EchoNumbers": 1,
      "EchoTime": 37.0,
      "EchoTrainLength": 104,
      "FlipAngle": 52.0,
      "HighBit": 15,
      "ImageOrientationPatient": [0.99782016412619, 0.06413559994858, 0.01554171426895, -0.052992124235, 0.91907775342945, -0.3904970139708],
      "ImagePositionPatient": [-783.23295247246, -844.74026850966, 278.42688253311],
      "ImageType": [
        "ORIGINAL",
        "PRIMARY",
        "M",
        "MB",
        "ND",
        "MOSAIC"
],
      "ImagedNucleus": "1H",
      "ImagingFrequency": 123.258834,
      "InPlanePhaseEncodingDirection": "COL",
      "MRAcquisitionType": "2D",
      "MagneticFieldStrength": 3.0,
      "Manufacturer": "SIEMENS",
      "ManufacturerModelName": "Prisma_fit",
      "Modality": "MR",
      "NumberOfAverages": 1.0,
      "NumberOfPhaseEncodingSteps": 104,
      "PercentPhaseFieldOfView": 100.0,
      "PercentSampling": 100.0,
      "PerformedProcedureStepStartTime": "103216.741000",
      "PhotometricInterpretation": "MONOCHROME2",
      "PixelBandwidth": 2290.0,
      "PixelRepresentation": 0,
      "PixelSpacing": [2.0, 2.0],
      "ProtocolName": "func_task-friends-s06e02a",
      "RepetitionTime": 1490.0,
      "Rows": 832,
      "SAR": 0.03457588601205,
      "SamplesPerPixel": 1,
      "ScanOptions": "FS",
      "ScanningSequence": "EP",
      "SequenceName": "epfid2d1_104",
      "SequenceVariant": [
        "SK",
        "SS"
],
      "SeriesDescription": "func_task-friends-s06e02a",
      "SeriesNumber": 10,
      "SeriesTime": "105646.097000",
      "SliceLocation": -41.365732584896,
      "SliceThickness": 2.0,
      "SmallestImagePixelValue": 0,
      "SoftwareVersions": "syngo MR E11",
      "SpacingBetweenSlices": 2.0000000182172,
      "SpecificCharacterSet": "ISO_IR 100",
      "StudyID": "1",
      "StudyTime": "103216.662000",
      "TransmitCoilName": "Body",
      "VariableFlipAngleFlag": "N",
      "WindowCenterWidthExplanation": "Algo1",
      "dBdt": 0.0},
    "slices": {}
  },
  "time": {
    "samples": {
      "AcquisitionNumber": [1, 2, 3, 4, 5, 6, 7, 8, 9, 10, 11, 12, 13, 14, 15, 16, 17, 18, 19, 20, 21, 22, 23, 24, 25, 26, 27, 28, 29, 30, 31, 32, 33, 34, 35, 36, 37, 38, 39, 40, 41, 42, 43, 44, 45, 46, 47, 48, 49, 50, 51, 52, 53, 54, 55, 56, 57, 58, 59, 60, 61, 62, 63, 64, 65, 66, 67, 68, 69, 70, 71, 72, 73, 74, 75, 76, 77, 78, 79, 80, 81, 82, 83, 84, 85, 86, 87, 88, 89, 90, 91, 92, 93, 94, 95, 96, 97, 98, 99, 100, 101, 102, 103, 104, 105, 106, 107, 108, 109, 110, 111, 112, 113, 114, 115, 116, 117, 118, 119, 120, 121, 122, 123, 124, 125, 126, 127, 128, 129, 130, 131, 132, 133, 134, 135, 136, 137, 138, 139, 140, 141, 142, 143, 144, 145, 146, 147, 148, 149, 150, 151, 152, 153, 154, 155, 156, 157, 158, 159, 160, 161, 162, 163, 164, 165, 166, 167, 168, 169, 170, 171, 172, 173, 174, 175, 176, 177, 178, 179, 180, 181, 182, 183, 184, 185, 186, 187, 188, 189, 190, 191, 192, 193, 194, 195, 196, 197, 198, 199, 200, 201, 202, 203, 204, 205, 206, 207, 208, 209, 210, 211, 212, 213, 214, 215, 216, 217, 218, 219, 220, 221, 222, 223, 224, 225, 226, 227, 228, 229, 230, 231, 232, 233, 234, 235, 236, 237, 238, 239, 240, 241, 242, 243, 244, 245, 246, 247, 248, 249, 250, 251, 252, 253, 254, 255, 256, 257, 258, 259, 260, 261, 262, 263, 264, 265, 266, 267, 268, 269, 270, 271, 272, 273, 274, 275, 276, 277, 278, 279, 280, 281, 282, 283, 284, 285, 286, 287, 288, 289, 290, 291, 292, 293, 294, 295, 296, 297, 298, 299, 300, 301, 302, 303, 304, 305, 306, 307, 308, 309, 310, 311, 312, 313, 314, 315, 316, 317, 318, 319, 320, 321, 322, 323, 324, 325, 326, 327, 328, 329, 330, 331, 332, 333, 334, 335, 336, 337, 338, 339, 340, 341, 342, 343, 344, 345, 346, 347, 348, 349, 350, 351, 352, 353, 354, 355, 356, 357, 358, 359, 360, 361, 362, 363, 364, 365, 366, 367, 368, 369, 370, 371, 372, 373, 374, 375, 376, 377, 378, 379, 380, 381, 382, 383, 384, 385, 386, 387, 388, 389, 390, 391, 392, 393, 394, 395, 396, 397, 398, 399, 400, 401, 402, 403, 404, 405, 406, 407, 408, 409, 410, 411, 412, 413, 414, 415, 416, 417, 418, 419, 420, 421, 422, 423, 424, 425, 426, 427, 428, 429, 430, 431, 432, 433, 434, 435, 436, 437, 438, 439, 440, 441, 442, 443, 444, 445, 446, 447, 448, 449, 450, 451, 452, 453],
      "AcquisitionTime": ["105514.192500", "105515.682500", "105517.172500", "105518.662500", "105520.152500", "105521.642500", "105523.132500", "105524.622500", "105526.112500", "105527.602500", "105529.092500", "105530.582500", "105532.072500", "105533.562500", "105535.052500", "105536.542500", "105538.032500", "105539.522500", "105541.012500", "105542.502500", "105543.992500", "105545.482500", "105546.972500", "105548.462500", "105549.952500", "105551.442500", "105552.932500", "105554.422500", "105555.912500", "105557.402500", "105558.892500", "105600.382500", "105601.872500", "105603.362500", "105604.852500", "105606.342500", "105607.832500", "105609.322500", "105610.812500", "105612.302500", "105613.792500", "105615.282500", "105616.772500", "105618.262500", "105619.752500", "105621.242500", "105622.732500", "105624.222500", "105625.712500", "105627.202500", "105628.692500", "105630.182500", "105631.672500", "105633.162500", "105634.652500", "105636.142500", "105637.632500", "105639.122500", "105640.612500", "105642.102500", "105643.592500", "105645.082500", "105646.572500", "105648.062500", "105649.552500", "105651.042500", "105652.532500", "105654.022500", "105655.512500", "105657.002500", "105658.492500", "105659.982500", "105701.472500", "105702.962500", "105704.452500", "105705.942500", "105707.432500", "105708.922500", "105710.412500", "105711.902500", "105713.392500", "105714.882500", "105716.372500", "105717.862500", "105719.352500", "105720.842500", "105722.332500", "105723.822500", "105725.312500", "105726.802500", "105728.292500", "105729.782500", "105731.272500", "105732.762500", "105734.252500", "105735.742500", "105737.232500", "105738.722500", "105740.212500", "105741.702500", "105743.192500", "105744.682500", "105746.172500", "105747.662500", "105749.152500", "105750.642500", "105752.132500", "105753.622500", "105755.112500", "105756.602500", "105758.092500", "105759.582500", "105801.072500", "105802.562500", "105804.052500", "105805.542500", "105807.032500", "105808.522500", "105810.012500", "105811.502500", "105812.992500", "105814.482500", "105815.972500", "105817.462500", "105818.952500", "105820.442500", "105821.932500", "105823.422500", "105824.912500", "105826.402500", "105827.892500", "105829.382500", "105830.872500", "105832.362500", "105833.852500", "105835.342500", "105836.832500", "105838.322500", "105839.812500", "105841.302500", "105842.792500", "105844.282500", "105845.772500", "105847.262500", "105848.752500", "105850.242500", "105851.732500", "105853.222500", "105854.712500", "105856.202500", "105857.692500", "105859.182500", "105900.672500", "105902.162500", "105903.652500", "105905.142500", "105906.632500", "105908.122500", "105909.612500", "105911.102500", "105912.592500", "105914.082500", "105915.572500", "105917.062500", "105918.552500", "105920.042500", "105921.532500", "105923.022500", "105924.512500", "105926.002500", "105927.492500", "105928.982500", "105930.472500", "105931.962500", "105933.452500", "105934.942500", "105936.432500", "105937.922500", "105939.412500", "105940.902500", "105942.392500", "105943.882500", "105945.372500", "105946.862500", "105948.352500", "105949.842500", "105951.332500", "105952.822500", "105954.312500", "105955.802500", "105957.292500", "105958.782500", "110000.272500", "110001.762500", "110003.252500", "110004.742500", "110006.232500", "110007.722500", "110009.212500", "110010.702500", "110012.192500", "110013.682500", "110015.172500", "110016.662500", "110018.152500", "110019.642500", "110021.132500", "110022.622500", "110024.112500", "110025.602500", "110027.092500", "110028.582500", "110030.072500", "110031.562500", "110033.052500", "110034.542500", "110036.032500", "110037.522500", "110039.012500", "110040.502500", "110041.992500", "110043.482500", "110044.972500", "110046.462500", "110047.952500", "110049.442500", "110050.932500", "110052.422500", "110053.912500", "110055.402500", "110056.892500", "110058.382500", "110059.872500", "110101.362500", "110102.852500", "110104.342500", "110105.832500", "110107.322500", "110108.812500", "110110.302500", "110111.792500", "110113.282500", "110114.772500", "110116.262500", "110117.752500", "110119.242500", "110120.732500", "110122.222500", "110123.712500", "110125.202500", "110126.692500", "110128.182500", "110129.672500", "110131.162500", "110132.652500", "110134.142500", "110135.632500", "110137.122500", "110138.612500", "110140.102500", "110141.592500", "110143.082500", "110144.572500", "110146.062500", "110147.552500", "110149.042500", "110150.532500", "110152.022500", "110153.512500", "110155.002500", "110156.492500", "110157.982500", "110159.472500", "110200.962500", "110202.452500", "110203.942500", "110205.432500", "110206.922500", "110208.412500", "110209.902500", "110211.392500", "110212.882500", "110214.372500", "110215.862500", "110217.352500", "110218.842500", "110220.332500", "110221.822500", "110223.312500", "110224.802500", "110226.292500", "110227.782500", "110229.272500", "110230.762500", "110232.252500", "110233.742500", "110235.232500", "110236.722500", "110238.212500", "110239.702500", "110241.192500", "110242.682500", "110244.172500", "110245.662500", "110247.152500", "110248.642500", "110250.132500", "110251.622500", "110253.112500", "110254.602500", "110256.092500", "110257.582500", "110259.072500", "110300.562500", "110302.052500", "110303.542500", "110305.032500", "110306.522500", "110308.012500", "110309.502500", "110310.992500", "110312.482500", "110313.972500", "110315.462500", "110316.952500", "110318.442500", "110319.932500", "110321.422500", "110322.912500", "110324.402500", "110325.892500", "110327.382500", "110328.872500", "110330.362500", "110331.852500", "110333.342500", "110334.832500", "110336.322500", "110337.812500", "110339.302500", "110340.792500", "110342.282500", "110343.772500", "110345.262500", "110346.752500", "110348.242500", "110349.732500", "110351.222500", "110352.712500", "110354.202500", "110355.692500", "110357.182500", "110358.672500", "110400.162500", "110401.652500", "110403.142500", "110404.632500", "110406.122500", "110407.612500", "110409.102500", "110410.592500", "110412.082500", "110413.572500", "110415.062500", "110416.552500", "110418.042500", "110419.532500", "110421.022500", "110422.512500", "110424.002500", "110425.492500", "110426.982500", "110428.472500", "110429.962500", "110431.452500", "110432.942500", "110434.432500", "110435.922500", "110437.412500", "110438.902500", "110440.392500", "110441.882500", "110443.372500", "110444.862500", "110446.352500", "110447.842500", "110449.332500", "110450.822500", "110452.312500", "110453.802500", "110455.292500", "110456.782500", "110458.272500", "110459.762500", "110501.252500", "110502.742500", "110504.232500", "110505.722500", "110507.212500", "110508.702500", "110510.192500", "110511.682500", "110513.172500", "110514.662500", "110516.152500", "110517.642500", "110519.132500", "110520.622500", "110522.112500", "110523.602500", "110525.092500", "110526.582500", "110528.072500", "110529.562500", "110531.052500", "110532.542500", "110534.032500", "110535.522500", "110537.012500", "110538.502500", "110539.992500", "110541.482500", "110542.972500", "110544.462500", "110545.952500", "110547.442500", "110548.932500", "110550.422500", "110551.912500", "110553.402500", "110554.892500", "110556.382500", "110557.872500", "110559.362500", "110600.852500", "110602.342500", "110603.832500", "110605.322500", "110606.812500", "110608.302500", "110609.792500", "110611.282500", "110612.772500", "110614.262500", "110615.752500", "110617.242500", "110618.732500", "110620.222500", "110621.712500", "110623.202500", "110624.692500", "110626.182500", "110627.672500"],
      "ContentTime": ["105646.100000", "105646.103000", "105646.106000", "105646.109000", "105646.112000", "105646.115000", "105646.118000", "105646.120000", "105646.123000", "105646.126000", "105646.129000", "105646.132000", "105646.146000", "105646.154000", "105646.157000", "105646.160000", "105646.163000", "105646.166000", "105646.169000", "105646.171000", "105646.174000", "105646.180000", "105646.182000", "105646.185000", "105646.188000", "105646.191000", "105646.194000", "105646.197000", "105646.200000", "105646.202000", "105646.205000", "105646.208000", "105646.211000", "105646.214000", "105646.217000", "105646.219000", "105706.058000", "105706.061000", "105706.064000", "105706.067000", "105706.069000", "105706.072000", "105706.075000", "105706.078000", "105706.081000", "105706.083000", "105706.086000", "105706.089000", "105706.092000", "105706.095000", "105706.098000", "105706.100000", "105706.109000", "105706.112000", "105706.115000", "105706.118000", "105726.058000", "105726.061000", "105726.064000", "105726.066000", "105726.069000", "105726.072000", "105726.075000", "105726.078000", "105726.081000", "105726.083000", "105726.086000", "105726.089000", "105726.092000", "105726.096000", "105726.099000", "105726.102000", "105726.105000", "105726.108000", "105726.110000", "105726.113000", "105746.058000", "105746.061000", "105746.064000", "105746.067000", "105746.069000", "105746.072000", "105746.075000", "105746.078000", "105746.081000", "105746.083000", "105746.086000", "105746.089000", "105746.092000", "105746.095000", "105746.098000", "105746.101000", "105746.103000", "105746.106000", "105746.109000", "105746.112000", "105826.058000", "105826.061000", "105826.064000", "105826.067000", "105826.070000", "105826.072000", "105826.075000", "105826.078000", "105826.081000", "105826.084000", "105826.087000", "105826.090000", "105826.092000", "105826.095000", "105826.098000", "105826.101000", "105826.104000", "105826.107000", "105826.109000", "105826.112000", "105826.115000", "105826.118000", "105826.121000", "105826.124000", "105826.126000", "105826.129000", "105826.132000", "105826.135000", "105826.138000", "105826.141000", "105826.143000", "105826.146000", "105906.058000", "105906.061000", "105906.064000", "105906.067000", "105906.070000", "105906.073000", "105906.076000", "105906.079000", "105906.082000", "105906.084000", "105906.087000", "105906.090000", "105906.093000", "105906.096000", "105906.099000", "105906.101000", "105906.104000", "105906.107000", "105906.110000", "105906.113000", "105906.116000", "105906.119000", "105906.121000", "105906.124000", "105906.127000", "105906.130000", "105946.058000", "105946.061000", "105946.064000", "105946.067000", "105946.069000", "105946.072000", "105946.075000", "105946.078000", "105946.081000", "105946.084000", "105946.087000", "105946.089000", "105946.092000", "105946.095000", "105946.098000", "105946.101000", "105946.104000", "105946.106000", "105946.109000", "105946.112000", "105946.115000", "105946.118000", "105946.121000", "105946.124000", "105946.126000", "105946.129000", "105946.132000", "110026.058000", "110026.061000", "110026.064000", "110026.067000", "110026.069000", "110026.072000", "110026.075000", "110026.078000", "110026.081000", "110026.084000", "110026.086000", "110026.089000", "110026.092000", "110026.095000", "110026.098000", "110026.101000", "110026.104000", "110026.106000", "110026.109000", "110026.112000", "110026.115000", "110026.118000", "110026.121000", "110026.124000", "110026.126000", "110026.129000", "110026.132000", "110106.057000", "110106.060000", "110106.063000", "110106.066000", "110106.068000", "110106.080000", "110106.092000", "110106.095000", "110106.098000", "110106.100000", "110106.103000", "110106.106000", "110106.109000", "110106.112000", "110106.114000", "110106.117000", "110106.120000", "110106.123000", "110106.126000", "110106.129000", "110106.131000", "110106.134000", "110106.137000", "110106.140000", "110106.143000", "110106.146000", "110106.148000", "110146.058000", "110146.061000", "110146.064000", "110146.067000", "110146.070000", "110146.072000", "110146.075000", "110146.078000", "110146.081000", "110146.084000", "110146.087000", "110146.089000", "110146.092000", "110146.095000", "110146.098000", "110146.101000", "110146.104000", "110146.106000", "110146.109000", "110146.112000", "110146.115000", "110146.118000", "110146.121000", "110146.123000", "110146.126000", "110146.129000", "110146.132000", "110226.058000", "110226.061000", "110226.064000", "110226.067000", "110226.070000", "110226.072000", "110226.075000", "110226.078000", "110226.081000", "110226.084000", "110226.087000", "110226.090000", "110226.092000", "110226.095000", "110226.098000", "110226.101000", "110226.104000", "110226.107000", "110226.109000", "110226.112000", "110226.115000", "110226.118000", "110226.121000", "110226.124000", "110226.127000", "110226.130000", "110226.132000", "110306.058000", "110306.061000", "110306.064000", "110306.067000", "110306.070000", "110306.073000", "110306.075000", "110306.078000", "110306.081000", "110306.084000", "110306.087000", "110306.090000", "110306.092000", "110306.095000", "110306.098000", "110306.101000", "110306.104000", "110306.107000", "110306.109000", "110306.112000", "110306.115000", "110306.118000", "110306.121000", "110306.124000", "110306.127000", "110306.129000", "110306.132000", "110346.058000", "110346.061000", "110346.064000", "110346.067000", "110346.070000", "110346.072000", "110346.075000", "110346.078000", "110346.081000", "110346.084000", "110346.087000", "110346.089000", "110346.092000", "110346.095000", "110346.098000", "110346.101000", "110346.104000", "110346.107000", "110346.110000", "110346.113000", "110346.115000", "110346.118000", "110346.121000", "110346.124000", "110346.127000", "110346.130000", "110426.058000", "110426.061000", "110426.064000", "110426.067000", "110426.069000", "110426.072000", "110426.075000", "110426.078000", "110426.081000", "110426.084000", "110426.087000", "110426.090000", "110426.092000", "110426.095000", "110426.098000", "110426.101000", "110426.104000", "110426.107000", "110426.109000", "110426.112000", "110426.115000", "110426.118000", "110426.121000", "110426.124000", "110426.127000", "110426.129000", "110426.132000", "110506.058000", "110506.061000", "110506.064000", "110506.067000", "110506.070000", "110506.073000", "110506.076000", "110506.079000", "110506.081000", "110506.084000", "110506.087000", "110506.090000", "110506.093000", "110506.096000", "110506.099000", "110506.101000", "110506.104000", "110506.107000", "110506.110000", "110506.113000", "110506.116000", "110506.119000", "110506.121000", "110506.124000", "110506.127000", "110506.130000", "110506.133000", "110546.057000", "110546.060000", "110546.063000", "110546.066000", "110546.068000", "110546.071000", "110546.086000", "110546.089000", "110546.092000", "110546.095000", "110546.098000", "110546.101000", "110546.103000", "110546.106000", "110546.109000", "110546.112000", "110546.115000", "110546.118000", "110546.121000", "110546.124000", "110546.126000", "110546.129000", "110546.132000", "110546.135000", "110546.138000", "110546.141000", "110546.143000", "110626.058000", "110626.061000", "110626.064000", "110626.067000", "110626.070000", "110626.072000", "110626.075000", "110626.078000", "110626.081000", "110626.084000", "110626.087000", "110626.090000", "110626.093000", "110626.095000", "110626.098000", "110626.101000", "110626.104000", "110626.107000", "110626.110000", "110626.112000", "110626.115000", "110626.118000", "110626.121000", "110626.124000", "110626.127000", "110626.130000", "110626.132000", "110630.119000", "110630.122000", "110630.125000"],
