{
  "AcquisitionMatrixPE": 104,
  "AcquisitionNumber": 1,
  "AcquisitionTime": "11:49:11.555000",
  "BandwidthPerPixelPhaseEncode": 17.17,
  "BaseResolution": 104,
  "BodyPartExamined": "BRAIN",
  "CoilCombinationMethod": "Sum of Squares",
  "ConsistencyInfo": "N4_VE11C_LATEST_20160120",
  "ConversionSoftware": "dcm2niix",
  "ConversionSoftwareVersion": "v1.0.20211006",
  "DerivedVendorReportedEchoSpacing": 0.000560011,
  "DeviceSerialNumber": "167006",
  "DwellTime": 2.1e-06,
  "EchoTime": 0.037,
  "EchoTrainLength": 104,
  "EffectiveEchoSpacing": 0.000560011,
  "FlipAngle": 52,
  "HeudiconvVersion": "0.11.3.post9+gc939bf8",
  "ImageComments": "Unaliased MB4/PE3/LB",
  "ImageOrientationPatientDICOM": [0.99782, 0.0641356, 0.0155417, -0.0529921, 0.919078, -0.390497],
  "ImageOrientationText": "Tra>Cor(-22.9)>Sag(2.3)",
  "ImageType": [
    "ORIGINAL",
    "PRIMARY",
    "M",
    "MB",
    "ND",
    "MOSAIC"
],
  "ImagingFrequency": 123.259,
  "InPlanePhaseEncodingDirectionDICOM": "COL",
  "InstitutionAddress": "Chemin Queen-Mary 4565,Montreal,District,CA,H3W 1W5",
  "InstitutionName": "IUGM",
  "InstitutionalDepartmentName": "Department",
  "MRAcquisitionType": "2D",
  "MagneticFieldStrength": 3,
  "Manufacturer": "Siemens",
  "ManufacturersModelName": "Prisma_fit",
  "MatrixCoilMode": "SENSE",
  "Modality": "MR",
  "MultibandAccelerationFactor": 4,
  "PartialFourier": 1,
  "PatientPosition": "HFS",
  "PercentPhaseFOV": 100,
  "PercentSampling": 100,
  "PhaseEncodingDirection": "j",
  "PhaseEncodingSteps": 104,
  "PhaseResolution": 1,
  "PixelBandwidth": 2290,
  "ProcedureStepDescription": "video^friends",
  "ProtocolName": "func_task-friends-s06e04a",
  "PulseSequenceDetails": "%CustomerSeq%\\cmrr_mbep2d_bold",
  "ReceiveCoilActiveElements": "HC1-7;NC1,2",
  "ReceiveCoilName": "HeadNeck_64",
  "ReconMatrixPE": 104,
  "RepetitionTime": 1.49,
  "SAR": 0.0345711,
  "ScanOptions": "FS",
  "ScanningSequence": "EP",
  "SequenceName": "epfid2d1_104",
  "SequenceVariant": "SK\\SS",
  "SeriesDescription": "func_task-friends-s06e04a",
  "SeriesNumber": 18,
  "ShimSetting": [623, -7191, -8830, 667, 71, -13, -67, 1],
  "SliceThickness": 2,
  "SliceTiming": [0, 0.7825, 0.0975, 0.88, 0.195, 0.98, 0.2925, 1.0775, 0.39, 1.175, 0.49, 1.2725, 0.5875, 1.37, 0.685, 0, 0.7825, 0.0975, 0.88, 0.195, 0.98, 0.2925, 1.0775, 0.39, 1.175, 0.49, 1.2725, 0.5875, 1.37, 0.685, 0, 0.7825, 0.0975, 0.88, 0.195, 0.98, 0.2925, 1.0775, 0.39, 1.175, 0.49, 1.2725, 0.5875, 1.37, 0.685, 0, 0.7825, 0.0975, 0.88, 0.195, 0.98, 0.2925, 1.0775, 0.39, 1.175, 0.49, 1.2725, 0.5875, 1.37, 0.685],
  "SoftwareVersions": "syngo MR E11",
  "SpacingBetweenSlices": 2,
  "StationName": "MRC35049",
  "TaskName": "s06e04a",
  "TotalReadoutTime": 0.0576811,
  "TxRefAmp": 239.153,
  "WipMemBlock": "b6738213-87f6-4c1a-aba3-3e15b76d0d31||Sequence: R016 ve11c/master r/e634e98; Dec 19 2017 11:00:25 by eja",
  "dcmmeta_affine": [
    [-1.9956402778625488, -0.10598424822092056, 0.0786576122045517, 106.31451416015625],
    [-0.1282712072134018, 1.8381555080413818, -0.7776443958282471, -60.36906814575195],
    [0.031083429232239723, 0.7809940576553345, 1.8409459590911865, -74.98296356201172],
    [0.0, 0.0, 0.0, 1.0]
],
  "dcmmeta_reorient_transform": [
    [0.0, -1.0, 0.0, 103.0],
    [1.0, 0.0, 0.0, 0.0],
    [0.0, 0.0, 1.0, 0.0],
    [0.0, 0.0, 0.0, 1.0]
],
  "dcmmeta_shape": [104, 104, 60, 439],
  "dcmmeta_slice_dim": 2,
  "dcmmeta_version": 0.6,
  "global": {
    "const": {
      "AcquisitionMatrix": [104, 0, 0, 104],
      "AngioFlag": "N",
      "BitsAllocated": 16,
      "BitsStored": 16,
      "BodyPartExamined": "BRAIN",
      "Columns": 832,
      "EchoNumbers": 1,
      "EchoTime": 37.0,
      "EchoTrainLength": 104,
      "FlipAngle": 52.0,
      "HighBit": 15,
      "ImageOrientationPatient": [0.99782016412619, 0.06413559994858, 0.01554171426895, -0.052992124235, 0.91907775342945, -0.3904970139708],
      "ImagePositionPatient": [-783.23295247246, -844.74026850966, 278.42688253311],
      "ImageType": [
        "ORIGINAL",
        "PRIMARY",
        "M",
        "MB",
        "ND",
        "MOSAIC"
],
      "ImagedNucleus": "1H",
      "ImagingFrequency": 123.258853,
      "InPlanePhaseEncodingDirection": "COL",
      "MRAcquisitionType": "2D",
      "MagneticFieldStrength": 3.0,
      "Manufacturer": "SIEMENS",
      "ManufacturerModelName": "Prisma_fit",
      "Modality": "MR",
      "NumberOfAverages": 1.0,
      "NumberOfPhaseEncodingSteps": 104,
      "PercentPhaseFieldOfView": 100.0,
      "PercentSampling": 100.0,
      "PerformedProcedureStepStartTime": "103216.741000",
      "PhotometricInterpretation": "MONOCHROME2",
      "PixelBandwidth": 2290.0,
      "PixelRepresentation": 0,
      "PixelSpacing": [2.0, 2.0],
      "ProtocolName": "func_task-friends-s06e04a",
      "RepetitionTime": 1490.0,
      "Rows": 832,
      "SAR": 0.03457108658051,
      "SamplesPerPixel": 1,
      "ScanOptions": "FS",
      "ScanningSequence": "EP",
      "SequenceName": "epfid2d1_104",
      "SequenceVariant": [
        "SK",
        "SS"
],
      "SeriesDescription": "func_task-friends-s06e04a",
      "SeriesNumber": 18,
      "SeriesTime": "115012.849000",
      "SliceLocation": -41.365732584896,
      "SliceThickness": 2.0,
      "SmallestImagePixelValue": 0,
      "SoftwareVersions": "syngo MR E11",
      "SpacingBetweenSlices": 2.0000000182172,
      "SpecificCharacterSet": "ISO_IR 100",
      "StudyID": "1",
      "StudyTime": "103216.662000",
      "TransmitCoilName": "Body",
      "VariableFlipAngleFlag": "N",
      "WindowCenterWidthExplanation": "Algo1",
      "dBdt": 0.0},
    "slices": {}
  },
  "time": {
    "samples": {
      "AcquisitionNumber": [1, 2, 3, 4, 5, 6, 7, 8, 9, 10, 11, 12, 13, 14, 15, 16, 17, 18, 19, 20, 21, 22, 23, 24, 25, 26, 27, 28, 29, 30, 31, 32, 33, 34, 35, 36, 37, 38, 39, 40, 41, 42, 43, 44, 45, 46, 47, 48, 49, 50, 51, 52, 53, 54, 55, 56, 57, 58, 59, 60, 61, 62, 63, 64, 65, 66, 67, 68, 69, 70, 71, 72, 73, 74, 75, 76, 77, 78, 79, 80, 81, 82, 83, 84, 85, 86, 87, 88, 89, 90, 91, 92, 93, 94, 95, 96, 97, 98, 99, 100, 101, 102, 103, 104, 105, 106, 107, 108, 109, 110, 111, 112, 113, 114, 115, 116, 117, 118, 119, 120, 121, 122, 123, 124, 125, 126, 127, 128, 129, 130, 131, 132, 133, 134, 135, 136, 137, 138, 139, 140, 141, 142, 143, 144, 145, 146, 147, 148, 149, 150, 151, 152, 153, 154, 155, 156, 157, 158, 159, 160, 161, 162, 163, 164, 165, 166, 167, 168, 169, 170, 171, 172, 173, 174, 175, 176, 177, 178, 179, 180, 181, 182, 183, 184, 185, 186, 187, 188, 189, 190, 191, 192, 193, 194, 195, 196, 197, 198, 199, 200, 201, 202, 203, 204, 205, 206, 207, 208, 209, 210, 211, 212, 213, 214, 215, 216, 217, 218, 219, 220, 221, 222, 223, 224, 225, 226, 227, 228, 229, 230, 231, 232, 233, 234, 235, 236, 237, 238, 239, 240, 241, 242, 243, 244, 245, 246, 247, 248, 249, 250, 251, 252, 253, 254, 255, 256, 257, 258, 259, 260, 261, 262, 263, 264, 265, 266, 267, 268, 269, 270, 271, 272, 273, 274, 275, 276, 277, 278, 279, 280, 281, 282, 283, 284, 285, 286, 287, 288, 289, 290, 291, 292, 293, 294, 295, 296, 297, 298, 299, 300, 301, 302, 303, 304, 305, 306, 307, 308, 309, 310, 311, 312, 313, 314, 315, 316, 317, 318, 319, 320, 321, 322, 323, 324, 325, 326, 327, 328, 329, 330, 331, 332, 333, 334, 335, 336, 337, 338, 339, 340, 341, 342, 343, 344, 345, 346, 347, 348, 349, 350, 351, 352, 353, 354, 355, 356, 357, 358, 359, 360, 361, 362, 363, 364, 365, 366, 367, 368, 369, 370, 371, 372, 373, 374, 375, 376, 377, 378, 379, 380, 381, 382, 383, 384, 385, 386, 387, 388, 389, 390, 391, 392, 393, 394, 395, 396, 397, 398, 399, 400, 401, 402, 403, 404, 405, 406, 407, 408, 409, 410, 411, 412, 413, 414, 415, 416, 417, 418, 419, 420, 421, 422, 423, 424, 425, 426, 427, 428, 429, 430, 431, 432, 433, 434, 435, 436, 437, 438, 439],
      "AcquisitionTime": ["114911.555000", "114913.045000", "114914.535000", "114916.025000", "114917.515000", "114919.005000", "114920.495000", "114921.985000", "114923.475000", "114924.965000", "114926.455000", "114927.945000", "114929.435000", "114930.925000", "114932.415000", "114933.905000", "114935.395000", "114936.885000", "114938.375000", "114939.865000", "114941.355000", "114942.845000", "114944.335000", "114945.825000", "114947.315000", "114948.805000", "114950.295000", "114951.785000", "114953.275000", "114954.765000", "114956.255000", "114957.745000", "114959.235000", "115000.725000", "115002.215000", "115003.705000", "115005.195000", "115006.685000", "115008.175000", "115009.665000", "115011.155000", "115012.645000", "115014.135000", "115015.625000", "115017.115000", "115018.605000", "115020.095000", "115021.585000", "115023.075000", "115024.565000", "115026.055000", "115027.545000", "115029.035000", "115030.525000", "115032.015000", "115033.505000", "115034.995000", "115036.485000", "115037.975000", "115039.465000", "115040.955000", "115042.445000", "115043.935000", "115045.425000", "115046.915000", "115048.405000", "115049.895000", "115051.385000", "115052.875000", "115054.365000", "115055.855000", "115057.345000", "115058.835000", "115100.325000", "115101.815000", "115103.305000", "115104.795000", "115106.285000", "115107.775000", "115109.265000", "115110.755000", "115112.245000", "115113.735000", "115115.225000", "115116.715000", "115118.205000", "115119.695000", "115121.185000", "115122.675000", "115124.165000", "115125.655000", "115127.145000", "115128.635000", "115130.125000", "115131.615000", "115133.105000", "115134.595000", "115136.085000", "115137.575000", "115139.065000", "115140.555000", "115142.045000", "115143.535000", "115145.025000", "115146.515000", "115148.005000", "115149.495000", "115150.985000", "115152.475000", "115153.965000", "115155.455000", "115156.945000", "115158.435000", "115159.925000", "115201.415000", "115202.905000", "115204.395000", "115205.885000", "115207.375000", "115208.865000", "115210.355000", "115211.845000", "115213.335000", "115214.825000", "115216.315000", "115217.805000", "115219.295000", "115220.785000", "115222.275000", "115223.765000", "115225.255000", "115226.745000", "115228.235000", "115229.725000", "115231.215000", "115232.705000", "115234.195000", "115235.685000", "115237.175000", "115238.665000", "115240.155000", "115241.645000", "115243.135000", "115244.625000", "115246.115000", "115247.605000", "115249.095000", "115250.585000", "115252.075000", "115253.565000", "115255.055000", "115256.545000", "115258.035000", "115259.525000", "115301.015000", "115302.505000", "115303.995000", "115305.485000", "115306.975000", "115308.465000", "115309.955000", "115311.445000", "115312.935000", "115314.425000", "115315.915000", "115317.405000", "115318.895000", "115320.385000", "115321.875000", "115323.365000", "115324.855000", "115326.345000", "115327.835000", "115329.325000", "115330.815000", "115332.305000", "115333.795000", "115335.285000", "115336.775000", "115338.265000", "115339.755000", "115341.245000", "115342.735000", "115344.225000", "115345.715000", "115347.205000", "115348.695000", "115350.185000", "115351.675000", "115353.165000", "115354.655000", "115356.145000", "115357.635000", "115359.125000", "115400.615000", "115402.105000", "115403.595000", "115405.085000", "115406.575000", "115408.065000", "115409.555000", "115411.045000", "115412.535000", "115414.025000", "115415.515000", "115417.005000", "115418.495000", "115419.985000", "115421.475000", "115422.965000", "115424.455000", "115425.945000", "115427.435000", "115428.925000", "115430.415000", "115431.905000", "115433.395000", "115434.885000", "115436.375000", "115437.865000", "115439.355000", "115440.845000", "115442.335000", "115443.825000", "115445.315000", "115446.805000", "115448.295000", "115449.785000", "115451.275000", "115452.765000", "115454.255000", "115455.745000", "115457.235000", "115458.725000", "115500.215000", "115501.705000", "115503.195000", "115504.685000", "115506.175000", "115507.665000", "115509.155000", "115510.645000", "115512.135000", "115513.625000", "115515.115000", "115516.605000", "115518.095000", "115519.585000", "115521.075000", "115522.565000", "115524.055000", "115525.545000", "115527.035000", "115528.525000", "115530.015000", "115531.505000", "115532.995000", "115534.485000", "115535.975000", "115537.465000", "115538.955000", "115540.445000", "115541.935000", "115543.425000", "115544.915000", "115546.405000", "115547.895000", "115549.385000", "115550.875000", "115552.365000", "115553.855000", "115555.345000", "115556.835000", "115558.325000", "115559.815000", "115601.305000", "115602.795000", "115604.285000", "115605.775000", "115607.265000", "115608.755000", "115610.245000", "115611.735000", "115613.225000", "115614.715000", "115616.205000", "115617.695000", "115619.185000", "115620.675000", "115622.165000", "115623.655000", "115625.145000", "115626.635000", "115628.125000", "115629.615000", "115631.105000", "115632.595000", "115634.085000", "115635.575000", "115637.065000", "115638.555000", "115640.045000", "115641.535000", "115643.025000", "115644.515000", "115646.005000", "115647.495000", "115648.985000", "115650.475000", "115651.965000", "115653.455000", "115654.945000", "115656.435000", "115657.925000", "115659.415000", "115700.905000", "115702.395000", "115703.885000", "115705.375000", "115706.865000", "115708.355000", "115709.845000", "115711.335000", "115712.825000", "115714.315000", "115715.805000", "115717.295000", "115718.785000", "115720.275000", "115721.765000", "115723.255000", "115724.745000", "115726.235000", "115727.725000", "115729.215000", "115730.705000", "115732.195000", "115733.685000", "115735.175000", "115736.665000", "115738.155000", "115739.645000", "115741.135000", "115742.625000", "115744.115000", "115745.605000", "115747.095000", "115748.585000", "115750.075000", "115751.565000", "115753.055000", "115754.545000", "115756.035000", "115757.525000", "115759.015000", "115800.505000", "115801.995000", "115803.485000", "115804.975000", "115806.465000", "115807.955000", "115809.445000", "115810.935000", "115812.425000", "115813.915000", "115815.405000", "115816.895000", "115818.385000", "115819.875000", "115821.365000", "115822.855000", "115824.345000", "115825.835000", "115827.325000", "115828.815000", "115830.305000", "115831.795000", "115833.285000", "115834.775000", "115836.265000", "115837.755000", "115839.245000", "115840.735000", "115842.225000", "115843.715000", "115845.205000", "115846.695000", "115848.185000", "115849.675000", "115851.165000", "115852.655000", "115854.145000", "115855.635000", "115857.125000", "115858.615000", "115900.105000", "115901.595000", "115903.085000", "115904.575000", "115906.065000", "115907.555000", "115909.045000", "115910.535000", "115912.025000", "115913.515000", "115915.005000", "115916.495000", "115917.985000", "115919.475000", "115920.965000", "115922.455000", "115923.945000", "115925.435000", "115926.925000", "115928.415000", "115929.905000", "115931.395000", "115932.885000", "115934.375000", "115935.865000", "115937.355000", "115938.845000", "115940.335000", "115941.825000", "115943.315000", "115944.805000", "115946.295000", "115947.785000", "115949.275000", "115950.765000", "115952.255000", "115953.745000", "115955.235000", "115956.725000", "115958.215000", "115959.705000", "120001.195000", "120002.685000", "120004.175000"],
      "ContentTime": ["115012.851000", "115012.855000", "115012.857000", "115012.860000", "115012.863000", "115012.866000", "115032.822000", "115032.836000", "115032.839000", "115032.842000", "115032.845000", "115032.850000", "115032.853000", "115032.856000", "115032.859000", "115032.862000", "115032.864000", "115032.867000", "115032.874000", "115032.877000", "115032.879000", "115032.882000", "115032.885000", "115032.888000", "115032.891000", "115032.910000", "115032.913000", "115052.822000", "115052.825000", "115052.828000", "115052.830000", "115052.833000", "115052.836000", "115052.839000", "115052.842000", "115052.844000", "115052.847000", "115052.850000", "115052.861000", "115052.864000", "115052.867000", "115052.869000", "115052.872000", "115052.875000", "115052.878000", "115052.881000", "115052.884000", "115112.822000", "115112.825000", "115112.828000", "115112.834000", "115112.836000", "115112.839000", "115112.842000", "115112.851000", "115112.854000", "115112.857000", "115112.859000", "115112.862000", "115112.865000", "115112.868000", "115112.871000", "115112.874000", "115112.877000", "115112.880000", "115112.882000", "115112.885000", "115132.823000", "115132.826000", "115132.829000", "115132.831000", "115132.834000", "115132.837000", "115132.840000", "115132.843000", "115132.845000", "115132.848000", "115132.851000", "115132.854000", "115132.857000", "115132.860000", "115132.862000", "115132.865000", "115132.868000", "115132.871000", "115132.874000", "115132.877000", "115152.822000", "115152.825000", "115152.828000", "115152.830000", "115152.833000", "115152.836000", "115152.839000", "115152.842000", "115152.844000", "115152.847000", "115152.850000", "115152.853000", "115152.856000", "115152.864000", "115152.866000", "115152.869000", "115152.872000", "115152.875000", "115152.878000", "115152.881000", "115232.822000", "115232.825000", "115232.828000", "115232.831000", "115232.834000", "115232.840000", "115232.843000", "115232.846000", "115232.848000", "115232.851000", "115232.854000", "115232.857000", "115232.860000", "115232.863000", "115232.866000", "115232.869000", "115232.871000", "115232.874000", "115232.877000", "115232.880000", "115232.883000", "115232.886000", "115232.889000", "115232.891000", "115232.894000", "115232.897000", "115232.900000", "115312.822000", "115312.825000", "115312.827000", "115312.830000", "115312.833000", "115312.836000", "115312.839000", "115312.842000", "115312.845000", "115312.848000", "115312.851000", "115312.853000", "115312.856000", "115312.859000", "115312.862000", "115312.865000", "115312.868000", "115312.871000", "115312.874000", "115312.876000", "115312.879000", "115312.882000", "115312.885000", "115312.887000", "115312.890000", "115312.893000", "115312.896000", "115352.823000", "115352.826000", "115352.829000", "115352.831000", "115352.834000", "115352.837000", "115352.840000", "115352.843000", "115352.846000", "115352.849000", "115352.851000", "115352.854000", "115352.857000", "115352.860000", "115352.863000", "115352.865000", "115352.868000", "115352.871000", "115352.874000", "115352.877000", "115352.880000", "115352.882000", "115352.885000", "115352.888000", "115352.891000", "115352.894000", "115352.897000", "115432.822000", "115432.825000", "115432.828000", "115432.830000", "115432.833000", "115432.836000", "115432.839000", "115432.842000", "115432.845000", "115432.847000", "115432.850000", "115432.853000", "115432.856000", "115432.859000", "115432.862000", "115432.864000", "115432.867000", "115432.870000", "115432.873000", "115432.876000", "115432.878000", "115432.881000", "115432.884000", "115432.887000", "115432.890000", "115432.893000", "115432.895000", "115512.822000", "115512.825000", "115512.828000", "115512.831000", "115512.834000", "115512.836000", "115512.839000", "115512.842000", "115512.845000", "115512.848000", "115512.850000", "115512.853000", "115512.871000", "115512.874000", "115512.877000", "115512.879000", "115512.882000", "115512.885000", "115512.888000", "115512.891000", "115512.893000", "115512.896000", "115512.899000", "115512.902000", "115512.905000", "115512.908000", "115552.822000", "115552.825000", "115552.828000", "115552.831000", "115552.833000", "115552.836000", "115552.839000", "115552.842000", "115552.845000", "115552.854000", "115552.857000", "115552.860000", "115552.863000", "115552.865000", "115552.868000", "115552.871000", "115552.874000", "115552.877000", "115552.880000", "115552.882000", "115552.885000", "115552.888000", "115552.891000", "115552.894000", "115552.896000", "115552.899000", "115552.902000", "115632.822000", "115632.825000", "115632.828000", "115632.831000", "115632.834000", "115632.837000", "115632.839000", "115632.842000", "115632.845000", "115632.848000", "115632.851000", "115632.854000", "115632.857000", "115632.860000", "115632.862000", "115632.865000", "115632.868000", "115632.871000", "115632.874000", "115632.876000", "115632.879000", "115632.882000", "115632.885000", "115632.888000", "115632.891000", "115632.893000", "115632.896000", "115712.822000", "115712.825000", "115712.828000", "115712.831000", "115712.833000", "115712.836000", "115712.839000", "115712.842000", "115712.845000", "115712.848000", "115712.851000", "115712.853000", "115712.856000", "115712.859000", "115712.862000", "115712.865000", "115712.868000", "115712.871000", "115712.873000", "115712.876000", "115712.879000", "115712.882000", "115712.885000", "115712.887000", "115712.890000", "115712.893000", "115712.896000", "115752.822000", "115752.825000", "115752.828000", "115752.831000", "115752.834000", "115752.836000", "115752.839000", "115752.842000", "115752.845000", "115752.848000", "115752.851000", "115752.853000", "115752.856000", "115752.859000", "115752.862000", "115752.865000", "115752.868000", "115752.871000", "115752.873000", "115752.876000", "115752.879000", "115752.882000", "115752.885000", "115752.888000", "115752.891000", "115752.893000", "115752.896000", "115832.823000", "115832.826000", "115832.829000", "115832.832000", "115832.834000", "115832.837000", "115832.840000", "115832.843000", "115832.846000", "115832.848000", "115832.851000", "115832.854000", "115832.857000", "115832.860000", "115832.863000", "115832.866000", "115832.869000", "115832.871000", "115832.874000", "115832.877000", "115832.880000", "115832.883000", "115832.886000", "115832.888000", "115832.891000", "115832.894000", "115832.897000", "115912.822000", "115912.825000", "115912.828000", "115912.831000", "115912.833000", "115912.836000", "115912.839000", "115912.842000", "115912.845000", "115912.848000", "115912.850000", "115912.853000", "115912.856000", "115912.859000", "115912.870000", "115912.873000", "115912.876000", "115912.879000", "115912.882000", "115912.884000", "115912.887000", "115912.890000", "115912.893000", "115912.896000", "115912.899000", "115912.901000", "115932.829000", "115932.832000", "115932.835000", "115932.838000", "115932.841000", "115932.844000", "115932.847000", "115932.850000", "115932.852000", "115932.855000", "115932.858000", "115932.861000", "115932.864000", "115932.867000", "120006.512000", "120006.515000", "120006.522000", "120006.525000", "120006.528000", "120006.531000", "120006.534000", "120006.537000", "120006.539000", "120006.542000", "120006.545000", "120006.548000", "120006.551000", "120006.554000", "120006.557000", "120006.560000", "120006.563000", "120006.565000", "120006.568000", "120006.571000", "120006.574000", "120006.577000", "120006.579000"],
