{
  "AcquisitionMatrixPE": 104,
  "AcquisitionNumber": 1,
  "AcquisitionTime": "18:08:19.010000",
  "BandwidthPerPixelPhaseEncode": 17.17,
  "BaseResolution": 104,
  "BodyPartExamined": "BRAIN",
  "CoilCombinationMethod": "Sum of Squares",
  "ConsistencyInfo": "N4_VE11C_LATEST_20160120",
  "ConversionSoftware": "dcm2niix",
  "ConversionSoftwareVersion": "v1.0.20211006",
  "DerivedVendorReportedEchoSpacing": 0.000560011,
  "DeviceSerialNumber": "167006",
  "DwellTime": 2.1e-06,
  "EchoTime": 0.037,
  "EchoTrainLength": 104,
  "EffectiveEchoSpacing": 0.000560011,
  "FlipAngle": 52,
  "HeudiconvVersion": "0.5.3.post569+g418601f",
  "ImageComments": "Unaliased MB4/PE3/LB",
  "ImageOrientationPatientDICOM": [0.999676, -0.0250015, -0.00479027, 0.0214639, 0.929008, -0.369435],
  "ImageOrientationText": "Tra>Cor(-21.7)>Sag(-0.8)",
  "ImageType": [
    "ORIGINAL",
    "PRIMARY",
    "M",
    "MB",
    "ND",
    "MOSAIC"
],
  "ImagingFrequency": 123.259,
  "InPlanePhaseEncodingDirectionDICOM": "COL",
  "InstitutionAddress": "Chemin Queen-Mary 4565,Montreal,District,CA,H3W 1W5",
  "InstitutionName": "IUGM",
  "InstitutionalDepartmentName": "Department",
  "MRAcquisitionType": "2D",
  "MagneticFieldStrength": 3,
  "Manufacturer": "Siemens",
  "ManufacturersModelName": "Prisma_fit",
  "MatrixCoilMode": "SENSE",
  "Modality": "MR",
  "MultibandAccelerationFactor": 4,
  "PartialFourier": 1,
  "PatientPosition": "HFS",
  "PercentPhaseFOV": 100,
  "PercentSampling": 100,
  "PhaseEncodingDirection": "j",
  "PhaseEncodingSteps": 104,
  "PhaseResolution": 1,
  "PixelBandwidth": 2290,
  "ProcedureStepDescription": "video^friends",
  "ProtocolName": "func_task-friends-s05e13b",
  "PulseSequenceDetails": "%CustomerSeq%\\cmrr_mbep2d_bold",
  "ReceiveCoilActiveElements": "HC1-7;NC1,2",
  "ReceiveCoilName": "HeadNeck_64",
  "ReconMatrixPE": 104,
  "RepetitionTime": 1.49,
  "SAR": 0.0459016,
  "ScanOptions": "FS",
  "ScanningSequence": "EP",
  "SequenceName": "epfid2d1_104",
  "SequenceVariant": "SK\\SS",
  "SeriesDescription": "func_task-friends-s05e13b",
  "SeriesNumber": 15,
  "ShimSetting": [613, -7270, -8835, 378, 12, -406, 17, 3],
  "SliceThickness": 2,
  "SliceTiming": [0, 0.785, 0.1, 0.8825, 0.1975, 0.98, 0.295, 1.08, 0.3925, 1.1775, 0.49, 1.275, 0.59, 1.3725, 0.6875, 0, 0.785, 0.1, 0.8825, 0.1975, 0.98, 0.295, 1.08, 0.3925, 1.1775, 0.49, 1.275, 0.59, 1.3725, 0.6875, 0, 0.785, 0.1, 0.8825, 0.1975, 0.98, 0.295, 1.08, 0.3925, 1.1775, 0.49, 1.275, 0.59, 1.3725, 0.6875, 0, 0.785, 0.1, 0.8825, 0.1975, 0.98, 0.295, 1.08, 0.3925, 1.1775, 0.49, 1.275, 0.59, 1.3725, 0.6875],
  "SoftwareVersions": "syngo MR E11",
  "SpacingBetweenSlices": 2,
  "StationName": "MRC35049",
  "TaskName": "s05e13b",
  "TotalReadoutTime": 0.0576811,
  "TxRefAmp": 259.208,
  "WipMemBlock": "222be20d-f7fa-49fd-a7b9-69c5a68c2f9b||Sequence: R016 ve11c/master r/e634e98; Dec 19 2017 11:00:25 by eja",
  "dcmmeta_affine": [
    [-1.9993518590927124, 0.04292774572968483, -0.027373291552066803, 98.27679443359375],
    [0.050003014504909515, 1.8580169677734375, -0.7384256720542908, -72.3973159790039],
    [-0.00958054605871439, 0.7388707995414734, 1.8584880828857422, -66.3296127319336],
    [0.0, 0.0, 0.0, 1.0]
],
  "dcmmeta_reorient_transform": [
    [0.0, -1.0, 0.0, 103.0],
    [1.0, 0.0, 0.0, 0.0],
    [0.0, 0.0, 1.0, 0.0],
    [0.0, 0.0, 0.0, 1.0]
],
  "dcmmeta_shape": [104, 104, 60, 494],
  "dcmmeta_slice_dim": 2,
  "dcmmeta_version": 0.6,
  "global": {
    "const": {
      "AcquisitionMatrix": [104, 0, 0, 104],
      "AngioFlag": "N",
      "BitsAllocated": 16,
      "BitsStored": 16,
      "BodyPartExamined": "BRAIN",
      "Columns": 832,
      "EchoNumbers": 1,
      "EchoTime": 37.0,
      "EchoTrainLength": 104,
      "FlipAngle": 52.0,
      "HighBit": 15,
      "ImageOrientationPatient": [0.99967593644747, -0.0250015073716, -0.0047902731688, 0.02146387206865, 0.92900849990866, -0.3694353925834],
      "ImagePositionPatient": [-846.0881344805, -777.09552204502, 282.21036625632],
      "ImageType": [
        "ORIGINAL",
        "PRIMARY",
        "M",
        "MB",
        "ND",
        "MOSAIC"
],
      "ImagedNucleus": "1H",
      "ImagingFrequency": 123.258859,
      "InPlanePhaseEncodingDirection": "COL",
      "MRAcquisitionType": "2D",
      "MagneticFieldStrength": 3.0,
      "Manufacturer": "SIEMENS",
      "ManufacturerModelName": "Prisma_fit",
      "Modality": "MR",
      "NumberOfAverages": 1.0,
      "NumberOfPhaseEncodingSteps": 104,
      "PercentPhaseFieldOfView": 100.0,
      "PercentSampling": 100.0,
      "PerformedProcedureStepStartTime": "172414.440000",
      "PhotometricInterpretation": "MONOCHROME2",
      "PixelBandwidth": 2290.0,
      "PixelRepresentation": 0,
      "PixelSpacing": [2.0, 2.0],
      "ProtocolName": "func_task-friends-s05e13b",
      "RepetitionTime": 1490.0,
      "Rows": 832,
      "SAR": 0.04590161181169,
      "SamplesPerPixel": 1,
      "ScanOptions": "FS",
      "ScanningSequence": "EP",
      "SequenceName": "epfid2d1_104",
      "SequenceVariant": [
        "SK",
        "SS"
],
      "SeriesDescription": "func_task-friends-s05e13b",
      "SeriesNumber": 15,
      "SeriesTime": "180930.811000",
      "SliceLocation": -36.251454942079,
      "SliceThickness": 2.0,
      "SmallestImagePixelValue": 0,
      "SoftwareVersions": "syngo MR E11",
      "SpacingBetweenSlices": 1.9999999507222,
      "SpecificCharacterSet": "ISO_IR 100",
      "StudyID": "1",
      "StudyTime": "172414.332000",
      "TransmitCoilName": "Body",
      "VariableFlipAngleFlag": "N",
      "WindowCenterWidthExplanation": "Algo1",
      "dBdt": 0.0},
    "slices": {}
  },
  "time": {
    "samples": {
      "AcquisitionNumber": [1, 2, 3, 4, 5, 6, 7, 8, 9, 10, 11, 12, 13, 14, 15, 16, 17, 18, 19, 20, 21, 22, 23, 24, 25, 26, 27, 28, 29, 30, 31, 32, 33, 34, 35, 36, 37, 38, 39, 40, 41, 42, 43, 44, 45, 46, 47, 48, 49, 50, 51, 52, 53, 54, 55, 56, 57, 58, 59, 60, 61, 62, 63, 64, 65, 66, 67, 68, 69, 70, 71, 72, 73, 74, 75, 76, 77, 78, 79, 80, 81, 82, 83, 84, 85, 86, 87, 88, 89, 90, 91, 92, 93, 94, 95, 96, 97, 98, 99, 100, 101, 102, 103, 104, 105, 106, 107, 108, 109, 110, 111, 112, 113, 114, 115, 116, 117, 118, 119, 120, 121, 122, 123, 124, 125, 126, 127, 128, 129, 130, 131, 132, 133, 134, 135, 136, 137, 138, 139, 140, 141, 142, 143, 144, 145, 146, 147, 148, 149, 150, 151, 152, 153, 154, 155, 156, 157, 158, 159, 160, 161, 162, 163, 164, 165, 166, 167, 168, 169, 170, 171, 172, 173, 174, 175, 176, 177, 178, 179, 180, 181, 182, 183, 184, 185, 186, 187, 188, 189, 190, 191, 192, 193, 194, 195, 196, 197, 198, 199, 200, 201, 202, 203, 204, 205, 206, 207, 208, 209, 210, 211, 212, 213, 214, 215, 216, 217, 218, 219, 220, 221, 222, 223, 224, 225, 226, 227, 228, 229, 230, 231, 232, 233, 234, 235, 236, 237, 238, 239, 240, 241, 242, 243, 244, 245, 246, 247, 248, 249, 250, 251, 252, 253, 254, 255, 256, 257, 258, 259, 260, 261, 262, 263, 264, 265, 266, 267, 268, 269, 270, 271, 272, 273, 274, 275, 276, 277, 278, 279, 280, 281, 282, 283, 284, 285, 286, 287, 288, 289, 290, 291, 292, 293, 294, 295, 296, 297, 298, 299, 300, 301, 302, 303, 304, 305, 306, 307, 308, 309, 310, 311, 312, 313, 314, 315, 316, 317, 318, 319, 320, 321, 322, 323, 324, 325, 326, 327, 328, 329, 330, 331, 332, 333, 334, 335, 336, 337, 338, 339, 340, 341, 342, 343, 344, 345, 346, 347, 348, 349, 350, 351, 352, 353, 354, 355, 356, 357, 358, 359, 360, 361, 362, 363, 364, 365, 366, 367, 368, 369, 370, 371, 372, 373, 374, 375, 376, 377, 378, 379, 380, 381, 382, 383, 384, 385, 386, 387, 388, 389, 390, 391, 392, 393, 394, 395, 396, 397, 398, 399, 400, 401, 402, 403, 404, 405, 406, 407, 408, 409, 410, 411, 412, 413, 414, 415, 416, 417, 418, 419, 420, 421, 422, 423, 424, 425, 426, 427, 428, 429, 430, 431, 432, 433, 434, 435, 436, 437, 438, 439, 440, 441, 442, 443, 444, 445, 446, 447, 448, 449, 450, 451, 452, 453, 454, 455, 456, 457, 458, 459, 460, 461, 462, 463, 464, 465, 466, 467, 468, 469, 470, 471, 472, 473, 474, 475, 476, 477, 478, 479, 480, 481, 482, 483, 484, 485, 486, 487, 488, 489, 490, 491, 492, 493, 494],
      "AcquisitionTime": ["180819.010000", "180820.500000", "180821.990000", "180823.480000", "180824.970000", "180826.460000", "180827.950000", "180829.440000", "180830.930000", "180832.420000", "180833.910000", "180835.400000", "180836.890000", "180838.380000", "180839.870000", "180841.360000", "180842.850000", "180844.340000", "180845.830000", "180847.320000", "180848.810000", "180850.300000", "180851.790000", "180853.280000", "180854.770000", "180856.260000", "180857.750000", "180859.240000", "180900.730000", "180902.220000", "180903.710000", "180905.200000", "180906.690000", "180908.180000", "180909.670000", "180911.160000", "180912.650000", "180914.140000", "180915.630000", "180917.120000", "180918.610000", "180920.100000", "180921.590000", "180923.080000", "180924.570000", "180926.060000", "180927.550000", "180929.040000", "180930.530000", "180932.020000", "180933.510000", "180935.000000", "180936.490000", "180937.980000", "180939.470000", "180940.960000", "180942.450000", "180943.940000", "180945.430000", "180946.920000", "180948.410000", "180949.900000", "180951.390000", "180952.880000", "180954.370000", "180955.860000", "180957.350000", "180958.840000", "181000.330000", "181001.820000", "181003.310000", "181004.800000", "181006.290000", "181007.780000", "181009.270000", "181010.760000", "181012.250000", "181013.740000", "181015.230000", "181016.720000", "181018.210000", "181019.700000", "181021.190000", "181022.680000", "181024.170000", "181025.660000", "181027.150000", "181028.640000", "181030.130000", "181031.620000", "181033.110000", "181034.600000", "181036.090000", "181037.580000", "181039.070000", "181040.560000", "181042.050000", "181043.540000", "181045.030000", "181046.520000", "181048.010000", "181049.500000", "181050.990000", "181052.480000", "181053.970000", "181055.460000", "181056.950000", "181058.440000", "181059.930000", "181101.420000", "181102.910000", "181104.400000", "181105.890000", "181107.380000", "181108.870000", "181110.360000", "181111.850000", "181113.340000", "181114.830000", "181116.320000", "181117.810000", "181119.300000", "181120.790000", "181122.280000", "181123.770000", "181125.260000", "181126.750000", "181128.240000", "181129.730000", "181131.220000", "181132.710000", "181134.200000", "181135.690000", "181137.180000", "181138.670000", "181140.160000", "181141.650000", "181143.140000", "181144.630000", "181146.120000", "181147.610000", "181149.100000", "181150.590000", "181152.080000", "181153.570000", "181155.060000", "181156.550000", "181158.040000", "181159.530000", "181201.020000", "181202.510000", "181204.000000", "181205.490000", "181206.980000", "181208.470000", "181209.960000", "181211.450000", "181212.940000", "181214.430000", "181215.920000", "181217.410000", "181218.900000", "181220.390000", "181221.880000", "181223.370000", "181224.860000", "181226.350000", "181227.840000", "181229.330000", "181230.820000", "181232.310000", "181233.800000", "181235.290000", "181236.780000", "181238.270000", "181239.760000", "181241.250000", "181242.740000", "181244.230000", "181245.720000", "181247.210000", "181248.700000", "181250.190000", "181251.680000", "181253.170000", "181254.660000", "181256.150000", "181257.640000", "181259.130000", "181300.620000", "181302.110000", "181303.600000", "181305.090000", "181306.580000", "181308.070000", "181309.560000", "181311.050000", "181312.540000", "181314.030000", "181315.520000", "181317.010000", "181318.500000", "181319.990000", "181321.480000", "181322.970000", "181324.460000", "181325.950000", "181327.440000", "181328.930000", "181330.420000", "181331.910000", "181333.400000", "181334.890000", "181336.380000", "181337.870000", "181339.360000", "181340.850000", "181342.340000", "181343.830000", "181345.320000", "181346.810000", "181348.300000", "181349.790000", "181351.280000", "181352.770000", "181354.260000", "181355.750000", "181357.240000", "181358.730000", "181400.220000", "181401.710000", "181403.200000", "181404.690000", "181406.180000", "181407.670000", "181409.160000", "181410.650000", "181412.140000", "181413.630000", "181415.120000", "181416.610000", "181418.100000", "181419.590000", "181421.080000", "181422.570000", "181424.060000", "181425.550000", "181427.040000", "181428.530000", "181430.020000", "181431.510000", "181433.000000", "181434.490000", "181435.980000", "181437.470000", "181438.960000", "181440.450000", "181441.940000", "181443.430000", "181444.920000", "181446.410000", "181447.900000", "181449.390000", "181450.880000", "181452.370000", "181453.860000", "181455.350000", "181456.840000", "181458.330000", "181459.820000", "181501.310000", "181502.800000", "181504.290000", "181505.780000", "181507.270000", "181508.760000", "181510.250000", "181511.740000", "181513.230000", "181514.720000", "181516.210000", "181517.700000", "181519.190000", "181520.680000", "181522.170000", "181523.660000", "181525.150000", "181526.640000", "181528.130000", "181529.620000", "181531.110000", "181532.600000", "181534.090000", "181535.580000", "181537.070000", "181538.560000", "181540.050000", "181541.540000", "181543.030000", "181544.520000", "181546.010000", "181547.500000", "181548.990000", "181550.480000", "181551.970000", "181553.460000", "181554.950000", "181556.440000", "181557.930000", "181559.420000", "181600.910000", "181602.400000", "181603.890000", "181605.380000", "181606.870000", "181608.360000", "181609.850000", "181611.340000", "181612.830000", "181614.320000", "181615.810000", "181617.300000", "181618.790000", "181620.280000", "181621.770000", "181623.260000", "181624.750000", "181626.240000", "181627.730000", "181629.220000", "181630.710000", "181632.200000", "181633.690000", "181635.180000", "181636.670000", "181638.160000", "181639.650000", "181641.140000", "181642.630000", "181644.120000", "181645.610000", "181647.100000", "181648.590000", "181650.080000", "181651.570000", "181653.060000", "181654.550000", "181656.040000", "181657.530000", "181659.020000", "181700.510000", "181702.000000", "181703.490000", "181704.980000", "181706.470000", "181707.960000", "181709.450000", "181710.940000", "181712.430000", "181713.920000", "181715.410000", "181716.900000", "181718.390000", "181719.880000", "181721.370000", "181722.860000", "181724.350000", "181725.840000", "181727.330000", "181728.820000", "181730.310000", "181731.800000", "181733.290000", "181734.780000", "181736.270000", "181737.760000", "181739.250000", "181740.740000", "181742.230000", "181743.720000", "181745.210000", "181746.700000", "181748.190000", "181749.680000", "181751.170000", "181752.660000", "181754.150000", "181755.640000", "181757.130000", "181758.620000", "181800.110000", "181801.600000", "181803.090000", "181804.580000", "181806.070000", "181807.560000", "181809.050000", "181810.540000", "181812.030000", "181813.520000", "181815.010000", "181816.500000", "181817.990000", "181819.480000", "181820.970000", "181822.460000", "181823.950000", "181825.440000", "181826.930000", "181828.420000", "181829.910000", "181831.400000", "181832.890000", "181834.380000", "181835.870000", "181837.360000", "181838.850000", "181840.340000", "181841.830000", "181843.320000", "181844.810000", "181846.300000", "181847.790000", "181849.280000", "181850.770000", "181852.260000", "181853.750000", "181855.240000", "181856.730000", "181858.220000", "181859.710000", "181901.200000", "181902.690000", "181904.180000", "181905.670000", "181907.160000", "181908.650000", "181910.140000", "181911.630000", "181913.120000", "181914.610000", "181916.100000", "181917.590000", "181919.080000", "181920.570000", "181922.060000", "181923.550000", "181925.040000", "181926.530000", "181928.020000", "181929.510000", "181931.000000", "181932.490000", "181933.980000", "181935.470000", "181936.960000", "181938.450000", "181939.940000", "181941.430000", "181942.920000", "181944.410000", "181945.900000", "181947.390000", "181948.880000", "181950.370000", "181951.860000", "181953.350000", "181954.840000", "181956.330000", "181957.820000", "181959.310000", "182000.800000", "182002.290000", "182003.780000", "182005.270000", "182006.760000", "182008.250000", "182009.740000", "182011.230000", "182012.720000", "182014.210000", "182015.700000", "182017.190000", "182018.680000", "182020.170000", "182021.660000", "182023.150000", "182024.640000", "182026.130000", "182027.620000", "182029.110000", "182030.600000", "182032.090000", "182033.580000"],
      "ContentTime": ["180930.814000", "180930.818000", "180930.821000", "180930.824000", "180930.827000", "180930.830000", "180930.838000", "180930.841000", "180930.844000", "180930.847000", "180930.850000", "180930.853000", "180930.856000", "180930.859000", "180930.862000", "180930.865000", "180950.787000", "180950.790000", "180950.793000", "180950.796000", "180950.799000", "180950.802000", "180950.805000", "180950.807000", "180950.811000", "180950.814000", "180950.816000", "180950.819000", "180950.822000", "180950.825000", "180950.828000", "180950.831000", "180950.834000", "180950.837000", "180950.840000", "180950.843000", "180950.846000", "181010.787000", "181010.790000", "181010.793000", "181010.796000", "181010.799000", "181010.802000", "181010.809000", "181010.812000", "181010.815000", "181010.818000", "181010.820000", "181010.824000", "181010.827000", "181010.829000", "181010.833000", "181010.837000", "181010.840000", "181010.842000", "181010.845000", "181010.848000", "181030.787000", "181030.796000", "181030.799000", "181030.802000", "181030.805000", "181030.807000", "181030.810000", "181030.813000", "181030.816000", "181030.819000", "181030.822000", "181030.825000", "181030.828000", "181030.831000", "181030.834000", "181030.837000", "181030.840000", "181030.843000", "181030.846000", "181030.849000", "181050.787000", "181050.790000", "181050.793000", "181050.796000", "181050.799000", "181050.802000", "181050.805000", "181050.808000", "181050.811000", "181050.814000", "181050.817000", "181050.820000", "181050.823000", "181050.825000", "181050.828000", "181050.832000", "181050.834000", "181050.837000", "181050.840000", "181050.843000", "181130.787000", "181130.790000", "181130.793000", "181130.796000", "181130.799000", "181130.802000", "181130.805000", "181130.808000", "181130.811000", "181130.831000", "181130.834000", "181130.837000", "181130.840000", "181130.843000", "181130.846000", "181130.849000", "181130.852000", "181130.855000", "181130.858000", "181130.861000", "181130.863000", "181130.866000", "181130.869000", "181130.872000", "181130.875000", "181130.878000", "181130.881000", "181130.884000", "181130.887000", "181130.890000", "181130.893000", "181210.787000", "181210.875000", "181210.878000", "181210.881000", "181210.884000", "181210.887000", "181210.890000", "181210.893000", "181210.896000", "181210.899000", "181210.902000", "181210.905000", "181210.908000", "181210.911000", "181210.914000", "181210.917000", "181210.920000", "181210.923000", "181210.926000", "181210.929000", "181210.932000", "181210.935000", "181210.937000", "181210.940000", "181210.943000", "181210.946000", "181210.949000", "181250.787000", "181250.790000", "181250.793000", "181250.796000", "181250.799000", "181250.802000", "181250.805000", "181250.808000", "181250.811000", "181250.814000", "181250.817000", "181250.820000", "181250.823000", "181250.826000", "181250.829000", "181250.832000", "181250.835000", "181250.838000", "181250.841000", "181250.844000", "181250.847000", "181250.850000", "181250.853000", "181250.856000", "181250.859000", "181250.862000", "181330.787000", "181330.790000", "181330.793000", "181330.796000", "181330.799000", "181330.802000", "181330.805000", "181330.808000", "181330.811000", "181330.814000", "181330.817000", "181330.820000", "181330.823000", "181330.826000", "181330.829000", "181330.832000", "181330.835000", "181330.838000", "181330.841000", "181330.844000", "181330.846000", "181330.849000", "181330.852000", "181330.855000", "181330.858000", "181330.861000", "181330.864000", "181410.787000", "181410.790000", "181410.793000", "181410.796000", "181410.799000", "181410.802000", "181410.805000", "181410.808000", "181410.811000", "181410.814000", "181410.817000", "181410.820000", "181410.823000", "181410.826000", "181410.829000", "181410.832000", "181410.835000", "181410.838000", "181410.841000", "181410.844000", "181410.847000", "181410.850000", "181410.853000", "181410.856000", "181410.859000", "181410.862000", "181410.865000", "181450.786000", "181450.789000", "181450.792000", "181450.795000", "181450.798000", "181450.801000", "181450.804000", "181450.807000", "181450.810000", "181450.813000", "181450.826000", "181450.829000", "181450.832000", "181450.835000", "181450.838000", "181450.841000", "181450.844000", "181450.847000", "181450.850000", "181450.853000", "181450.856000", "181450.859000", "181450.862000", "181450.865000", "181450.868000", "181450.871000", "181450.874000", "181530.787000", "181530.790000", "181530.793000", "181530.796000", "181530.799000", "181530.802000", "181530.805000", "181530.808000", "181530.811000", "181530.814000", "181530.817000", "181530.820000", "181530.823000", "181530.826000", "181530.829000", "181530.832000", "181530.835000", "181530.838000", "181530.841000", "181530.844000", "181530.847000", "181530.850000", "181530.853000", "181530.856000", "181530.859000", "181530.862000", "181530.877000", "181610.787000", "181610.790000", "181610.793000", "181610.796000", "181610.799000", "181610.802000", "181610.805000", "181610.808000", "181610.811000", "181610.814000", "181610.817000", "181610.820000", "181610.823000", "181610.826000", "181610.829000", "181610.832000", "181610.835000", "181610.838000", "181610.841000", "181610.855000", "181610.858000", "181610.861000", "181610.864000", "181610.867000", "181610.870000", "181610.873000", "181610.876000", "181650.787000", "181650.790000", "181650.793000", "181650.796000", "181650.799000", "181650.802000", "181650.805000", "181650.808000", "181650.811000", "181650.814000", "181650.817000", "181650.820000", "181650.823000", "181650.826000", "181650.829000", "181650.832000", "181650.835000", "181650.838000", "181650.841000", "181650.844000", "181650.847000", "181650.850000", "181650.852000", "181650.855000", "181650.858000", "181650.861000", "181650.864000", "181710.786000", "181710.789000", "181710.792000", "181710.795000", "181710.798000", "181710.802000", "181710.805000", "181710.808000", "181710.811000", "181710.814000", "181710.817000", "181710.820000", "181710.823000", "181750.787000", "181750.790000", "181750.793000", "181750.796000", "181750.799000", "181750.803000", "181750.806000", "181750.809000", "181750.812000", "181750.815000", "181750.818000", "181750.821000", "181750.824000", "181750.827000", "181750.830000", "181750.833000", "181750.836000", "181750.838000", "181750.841000", "181750.844000", "181750.848000", "181750.850000", "181750.853000", "181750.856000", "181750.859000", "181750.862000", "181750.865000", "181830.787000", "181830.790000", "181830.793000", "181830.796000", "181830.799000", "181830.802000", "181830.805000", "181830.808000", "181830.811000", "181830.814000", "181830.827000", "181830.830000", "181830.833000", "181830.836000", "181830.838000", "181830.842000", "181830.844000", "181830.847000", "181830.850000", "181830.853000", "181830.856000", "181830.859000", "181830.862000", "181830.865000", "181830.868000", "181830.871000", "181830.874000", "181910.787000", "181910.790000", "181910.793000", "181910.796000", "181910.799000", "181910.802000", "181910.805000", "181910.808000", "181910.811000", "181910.814000", "181910.817000", "181910.820000", "181910.823000", "181910.826000", "181910.829000", "181910.832000", "181910.835000", "181910.838000", "181910.841000", "181910.844000", "181910.847000", "181910.850000", "181910.853000", "181910.856000", "181910.859000", "181910.862000", "181910.865000", "181950.787000", "181950.790000", "181950.793000", "181950.796000", "181950.799000", "181950.802000", "181950.805000", "181950.808000", "181950.811000", "181950.814000", "181950.817000", "181950.820000", "181950.823000", "181950.826000", "181950.829000", "181950.832000", "181950.835000", "181950.838000", "181950.841000", "181950.844000", "181950.847000", "181950.850000", "181950.852000", "181950.856000", "181950.858000", "181950.861000", "182030.787000", "182030.790000", "182030.793000", "182030.796000", "182030.799000", "182030.802000", "182030.805000", "182030.808000", "182030.811000", "182030.814000", "182030.817000", "182030.820000", "182030.823000", "182030.826000", "182030.829000", "182030.832000", "182030.835000", "182030.838000", "182030.841000", "182030.857000", "182030.871000", "182030.874000", "182030.877000", "182030.880000", "182030.883000", "182030.886000", "182030.889000", "182035.762000", "182035.765000", "182035.768000", "182035.771000"],
