{
  "AcquisitionMatrixPE": 104,
  "AcquisitionNumber": 1,
  "AcquisitionTime": "18:35:28.467500",
  "BandwidthPerPixelPhaseEncode": 17.17,
  "BaseResolution": 104,
  "BodyPartExamined": "BRAIN",
  "CoilCombinationMethod": "Sum of Squares",
  "ConsistencyInfo": "N4_VE11C_LATEST_20160120",
  "ConversionSoftware": "dcm2niix",
  "ConversionSoftwareVersion": "v1.0.20211006",
  "DerivedVendorReportedEchoSpacing": 0.000560011,
  "DeviceSerialNumber": "167006",
  "DwellTime": 2.1e-06,
  "EchoTime": 0.037,
  "EchoTrainLength": 104,
  "EffectiveEchoSpacing": 0.000560011,
  "FlipAngle": 52,
  "HeudiconvVersion": "0.5.3.post569+g418601f",
  "ImageComments": "Unaliased MB4/PE3/LB",
  "ImageOrientationPatientDICOM": [0.999676, -0.0250015, -0.00479027, 0.0214639, 0.929008, -0.369435],
  "ImageOrientationText": "Tra>Cor(-21.7)>Sag(-0.8)",
  "ImageType": [
    "ORIGINAL",
    "PRIMARY",
    "M",
    "MB",
    "ND",
    "MOSAIC"
],
  "ImagingFrequency": 123.259,
  "InPlanePhaseEncodingDirectionDICOM": "COL",
  "InstitutionAddress": "Chemin Queen-Mary 4565,Montreal,District,CA,H3W 1W5",
  "InstitutionName": "IUGM",
  "InstitutionalDepartmentName": "Department",
  "MRAcquisitionType": "2D",
  "MagneticFieldStrength": 3,
  "Manufacturer": "Siemens",
  "ManufacturersModelName": "Prisma_fit",
  "MatrixCoilMode": "SENSE",
  "Modality": "MR",
  "MultibandAccelerationFactor": 4,
  "PartialFourier": 1,
  "PatientPosition": "HFS",
  "PercentPhaseFOV": 100,
  "PercentSampling": 100,
  "PhaseEncodingDirection": "j",
  "PhaseEncodingSteps": 104,
  "PhaseResolution": 1,
  "PixelBandwidth": 2290,
  "ProcedureStepDescription": "video^friends",
  "ProtocolName": "func_task-friends-s05e14b",
  "PulseSequenceDetails": "%CustomerSeq%\\cmrr_mbep2d_bold",
  "ReceiveCoilActiveElements": "HC1-7;NC1,2",
  "ReceiveCoilName": "HeadNeck_64",
  "ReconMatrixPE": 104,
  "RepetitionTime": 1.49,
  "SAR": 0.0459108,
  "ScanOptions": "FS",
  "ScanningSequence": "EP",
  "SequenceName": "epfid2d1_104",
  "SequenceVariant": "SK\\SS",
  "SeriesDescription": "func_task-friends-s05e14b",
  "SeriesNumber": 19,
  "ShimSetting": [613, -7270, -8835, 378, 12, -406, 17, 3],
  "SliceThickness": 2,
  "SliceTiming": [0, 0.7825, 0.0975, 0.88, 0.195, 0.98, 0.2925, 1.0775, 0.39, 1.175, 0.49, 1.2725, 0.5875, 1.37, 0.685, 0, 0.7825, 0.0975, 0.88, 0.195, 0.98, 0.2925, 1.0775, 0.39, 1.175, 0.49, 1.2725, 0.5875, 1.37, 0.685, 0, 0.7825, 0.0975, 0.88, 0.195, 0.98, 0.2925, 1.0775, 0.39, 1.175, 0.49, 1.2725, 0.5875, 1.37, 0.685, 0, 0.7825, 0.0975, 0.88, 0.195, 0.98, 0.2925, 1.0775, 0.39, 1.175, 0.49, 1.2725, 0.5875, 1.37, 0.685],
  "SoftwareVersions": "syngo MR E11",
  "SpacingBetweenSlices": 2,
  "StationName": "MRC35049",
  "TaskName": "s05e14b",
  "TotalReadoutTime": 0.0576811,
  "TxRefAmp": 259.208,
  "WipMemBlock": "fd3b86a1-a748-4047-aa2e-5f6406469b48||Sequence: R016 ve11c/master r/e634e98; Dec 19 2017 11:00:25 by eja",
  "dcmmeta_affine": [
    [-1.9993518590927124, 0.04292774572968483, -0.027373291552066803, 98.27679443359375],
    [0.050003014504909515, 1.8580169677734375, -0.7384256720542908, -72.3973159790039],
    [-0.00958054605871439, 0.7388707995414734, 1.8584880828857422, -66.3296127319336],
    [0.0, 0.0, 0.0, 1.0]
],
  "dcmmeta_reorient_transform": [
    [0.0, -1.0, 0.0, 103.0],
    [1.0, 0.0, 0.0, 0.0],
    [0.0, 0.0, 1.0, 0.0],
    [0.0, 0.0, 0.0, 1.0]
],
  "dcmmeta_shape": [104, 104, 60, 520],
  "dcmmeta_slice_dim": 2,
  "dcmmeta_version": 0.6,
  "global": {
    "const": {
      "AcquisitionMatrix": [104, 0, 0, 104],
      "AngioFlag": "N",
      "BitsAllocated": 16,
      "BitsStored": 16,
      "BodyPartExamined": "BRAIN",
      "Columns": 832,
      "EchoNumbers": 1,
      "EchoTime": 37.0,
      "EchoTrainLength": 104,
      "FlipAngle": 52.0,
      "HighBit": 15,
      "ImageOrientationPatient": [0.99967593644747, -0.0250015073716, -0.0047902731688, 0.02146387206865, 0.92900849990866, -0.3694353925834],
      "ImagePositionPatient": [-846.0881344805, -777.09552204502, 282.21036625632],
      "ImageType": [
        "ORIGINAL",
        "PRIMARY",
        "M",
        "MB",
        "ND",
        "MOSAIC"
],
      "ImagedNucleus": "1H",
      "ImagingFrequency": 123.258862,
      "InPlanePhaseEncodingDirection": "COL",
      "MRAcquisitionType": "2D",
      "MagneticFieldStrength": 3.0,
      "Manufacturer": "SIEMENS",
      "ManufacturerModelName": "Prisma_fit",
      "Modality": "MR",
      "NumberOfAverages": 1.0,
      "NumberOfPhaseEncodingSteps": 104,
      "PercentPhaseFieldOfView": 100.0,
      "PercentSampling": 100.0,
      "PerformedProcedureStepStartTime": "172414.440000",
      "PhotometricInterpretation": "MONOCHROME2",
      "PixelBandwidth": 2290.0,
      "PixelRepresentation": 0,
      "PixelSpacing": [2.0, 2.0],
      "ProtocolName": "func_task-friends-s05e14b",
      "RepetitionTime": 1490.0,
      "Rows": 832,
      "SAR": 0.04591081064621,
      "SamplesPerPixel": 1,
      "ScanOptions": "FS",
      "ScanningSequence": "EP",
      "SequenceName": "epfid2d1_104",
      "SequenceVariant": [
        "SK",
        "SS"
],
      "SeriesDescription": "func_task-friends-s05e14b",
      "SeriesNumber": 19,
      "SeriesTime": "183652.556000",
      "SliceLocation": -36.251454942079,
      "SliceThickness": 2.0,
      "SmallestImagePixelValue": 0,
      "SoftwareVersions": "syngo MR E11",
      "SpacingBetweenSlices": 1.9999999507222,
      "SpecificCharacterSet": "ISO_IR 100",
      "StudyID": "1",
      "StudyTime": "172414.332000",
      "TransmitCoilName": "Body",
      "VariableFlipAngleFlag": "N",
      "WindowCenterWidthExplanation": "Algo1",
      "dBdt": 0.0},
    "slices": {}
  },
  "time": {
    "samples": {
      "AcquisitionNumber": [1, 2, 3, 4, 5, 6, 7, 8, 9, 10, 11, 12, 13, 14, 15, 16, 17, 18, 19, 20, 21, 22, 23, 24, 25, 26, 27, 28, 29, 30, 31, 32, 33, 34, 35, 36, 37, 38, 39, 40, 41, 42, 43, 44, 45, 46, 47, 48, 49, 50, 51, 52, 53, 54, 55, 56, 57, 58, 59, 60, 61, 62, 63, 64, 65, 66, 67, 68, 69, 70, 71, 72, 73, 74, 75, 76, 77, 78, 79, 80, 81, 82, 83, 84, 85, 86, 87, 88, 89, 90, 91, 92, 93, 94, 95, 96, 97, 98, 99, 100, 101, 102, 103, 104, 105, 106, 107, 108, 109, 110, 111, 112, 113, 114, 115, 116, 117, 118, 119, 120, 121, 122, 123, 124, 125, 126, 127, 128, 129, 130, 131, 132, 133, 134, 135, 136, 137, 138, 139, 140, 141, 142, 143, 144, 145, 146, 147, 148, 149, 150, 151, 152, 153, 154, 155, 156, 157, 158, 159, 160, 161, 162, 163, 164, 165, 166, 167, 168, 169, 170, 171, 172, 173, 174, 175, 176, 177, 178, 179, 180, 181, 182, 183, 184, 185, 186, 187, 188, 189, 190, 191, 192, 193, 194, 195, 196, 197, 198, 199, 200, 201, 202, 203, 204, 205, 206, 207, 208, 209, 210, 211, 212, 213, 214, 215, 216, 217, 218, 219, 220, 221, 222, 223, 224, 225, 226, 227, 228, 229, 230, 231, 232, 233, 234, 235, 236, 237, 238, 239, 240, 241, 242, 243, 244, 245, 246, 247, 248, 249, 250, 251, 252, 253, 254, 255, 256, 257, 258, 259, 260, 261, 262, 263, 264, 265, 266, 267, 268, 269, 270, 271, 272, 273, 274, 275, 276, 277, 278, 279, 280, 281, 282, 283, 284, 285, 286, 287, 288, 289, 290, 291, 292, 293, 294, 295, 296, 297, 298, 299, 300, 301, 302, 303, 304, 305, 306, 307, 308, 309, 310, 311, 312, 313, 314, 315, 316, 317, 318, 319, 320, 321, 322, 323, 324, 325, 326, 327, 328, 329, 330, 331, 332, 333, 334, 335, 336, 337, 338, 339, 340, 341, 342, 343, 344, 345, 346, 347, 348, 349, 350, 351, 352, 353, 354, 355, 356, 357, 358, 359, 360, 361, 362, 363, 364, 365, 366, 367, 368, 369, 370, 371, 372, 373, 374, 375, 376, 377, 378, 379, 380, 381, 382, 383, 384, 385, 386, 387, 388, 389, 390, 391, 392, 393, 394, 395, 396, 397, 398, 399, 400, 401, 402, 403, 404, 405, 406, 407, 408, 409, 410, 411, 412, 413, 414, 415, 416, 417, 418, 419, 420, 421, 422, 423, 424, 425, 426, 427, 428, 429, 430, 431, 432, 433, 434, 435, 436, 437, 438, 439, 440, 441, 442, 443, 444, 445, 446, 447, 448, 449, 450, 451, 452, 453, 454, 455, 456, 457, 458, 459, 460, 461, 462, 463, 464, 465, 466, 467, 468, 469, 470, 471, 472, 473, 474, 475, 476, 477, 478, 479, 480, 481, 482, 483, 484, 485, 486, 487, 488, 489, 490, 491, 492, 493, 494, 495, 496, 497, 498, 499, 500, 501, 502, 503, 504, 505, 506, 507, 508, 509, 510, 511, 512, 513, 514, 515, 516, 517, 518, 519, 520],
      "AcquisitionTime": ["183528.467500", "183529.957500", "183531.447500", "183532.937500", "183534.427500", "183535.917500", "183537.407500", "183538.897500", "183540.387500", "183541.877500", "183543.367500", "183544.857500", "183546.347500", "183547.837500", "183549.327500", "183550.817500", "183552.307500", "183553.797500", "183555.287500", "183556.777500", "183558.267500", "183559.757500", "183601.247500", "183602.737500", "183604.227500", "183605.717500", "183607.207500", "183608.697500", "183610.187500", "183611.677500", "183613.167500", "183614.657500", "183616.147500", "183617.637500", "183619.127500", "183620.617500", "183622.107500", "183623.597500", "183625.087500", "183626.577500", "183628.067500", "183629.557500", "183631.047500", "183632.537500", "183634.027500", "183635.517500", "183637.007500", "183638.497500", "183639.987500", "183641.477500", "183642.967500", "183644.457500", "183645.947500", "183647.437500", "183648.927500", "183650.417500", "183651.907500", "183653.397500", "183654.887500", "183656.377500", "183657.867500", "183659.357500", "183700.847500", "183702.337500", "183703.827500", "183705.317500", "183706.807500", "183708.297500", "183709.787500", "183711.277500", "183712.767500", "183714.257500", "183715.747500", "183717.237500", "183718.727500", "183720.217500", "183721.707500", "183723.197500", "183724.687500", "183726.177500", "183727.667500", "183729.157500", "183730.647500", "183732.137500", "183733.627500", "183735.117500", "183736.607500", "183738.097500", "183739.587500", "183741.077500", "183742.567500", "183744.057500", "183745.547500", "183747.037500", "183748.527500", "183750.017500", "183751.507500", "183752.997500", "183754.487500", "183755.977500", "183757.467500", "183758.957500", "183800.447500", "183801.937500", "183803.427500", "183804.917500", "183806.407500", "183807.897500", "183809.387500", "183810.877500", "183812.367500", "183813.857500", "183815.347500", "183816.837500", "183818.327500", "183819.817500", "183821.307500", "183822.797500", "183824.287500", "183825.777500", "183827.267500", "183828.757500", "183830.247500", "183831.737500", "183833.227500", "183834.717500", "183836.207500", "183837.697500", "183839.187500", "183840.677500", "183842.167500", "183843.657500", "183845.147500", "183846.637500", "183848.127500", "183849.617500", "183851.107500", "183852.597500", "183854.087500", "183855.577500", "183857.067500", "183858.557500", "183900.047500", "183901.537500", "183903.027500", "183904.517500", "183906.007500", "183907.497500", "183908.987500", "183910.477500", "183911.967500", "183913.457500", "183914.947500", "183916.437500", "183917.927500", "183919.417500", "183920.907500", "183922.397500", "183923.887500", "183925.377500", "183926.867500", "183928.357500", "183929.847500", "183931.337500", "183932.827500", "183934.317500", "183935.807500", "183937.297500", "183938.787500", "183940.277500", "183941.767500", "183943.257500", "183944.747500", "183946.237500", "183947.727500", "183949.217500", "183950.707500", "183952.197500", "183953.687500", "183955.177500", "183956.667500", "183958.157500", "183959.647500", "184001.137500", "184002.627500", "184004.117500", "184005.607500", "184007.097500", "184008.587500", "184010.077500", "184011.567500", "184013.057500", "184014.547500", "184016.037500", "184017.527500", "184019.017500", "184020.507500", "184021.997500", "184023.487500", "184024.977500", "184026.467500", "184027.957500", "184029.447500", "184030.937500", "184032.427500", "184033.917500", "184035.407500", "184036.897500", "184038.387500", "184039.877500", "184041.367500", "184042.857500", "184044.347500", "184045.837500", "184047.327500", "184048.817500", "184050.307500", "184051.797500", "184053.287500", "184054.777500", "184056.267500", "184057.757500", "184059.247500", "184100.737500", "184102.227500", "184103.717500", "184105.207500", "184106.697500", "184108.187500", "184109.677500", "184111.167500", "184112.657500", "184114.147500", "184115.637500", "184117.127500", "184118.617500", "184120.107500", "184121.597500", "184123.087500", "184124.577500", "184126.067500", "184127.557500", "184129.047500", "184130.537500", "184132.027500", "184133.517500", "184135.007500", "184136.497500", "184137.987500", "184139.477500", "184140.967500", "184142.457500", "184143.947500", "184145.437500", "184146.927500", "184148.417500", "184149.907500", "184151.397500", "184152.887500", "184154.377500", "184155.867500", "184157.357500", "184158.847500", "184200.337500", "184201.827500", "184203.317500", "184204.807500", "184206.297500", "184207.787500", "184209.277500", "184210.767500", "184212.257500", "184213.747500", "184215.237500", "184216.727500", "184218.217500", "184219.707500", "184221.197500", "184222.687500", "184224.177500", "184225.667500", "184227.157500", "184228.647500", "184230.137500", "184231.627500", "184233.117500", "184234.607500", "184236.097500", "184237.587500", "184239.077500", "184240.567500", "184242.057500", "184243.547500", "184245.037500", "184246.527500", "184248.017500", "184249.507500", "184250.997500", "184252.487500", "184253.977500", "184255.467500", "184256.957500", "184258.447500", "184259.937500", "184301.427500", "184302.917500", "184304.407500", "184305.897500", "184307.387500", "184308.877500", "184310.367500", "184311.857500", "184313.347500", "184314.837500", "184316.327500", "184317.817500", "184319.307500", "184320.797500", "184322.287500", "184323.777500", "184325.267500", "184326.757500", "184328.247500", "184329.737500", "184331.227500", "184332.717500", "184334.207500", "184335.697500", "184337.187500", "184338.677500", "184340.167500", "184341.657500", "184343.147500", "184344.637500", "184346.127500", "184347.617500", "184349.107500", "184350.597500", "184352.087500", "184353.577500", "184355.067500", "184356.557500", "184358.047500", "184359.537500", "184401.027500", "184402.517500", "184404.007500", "184405.497500", "184406.987500", "184408.477500", "184409.967500", "184411.457500", "184412.947500", "184414.437500", "184415.927500", "184417.417500", "184418.907500", "184420.397500", "184421.887500", "184423.377500", "184424.867500", "184426.357500", "184427.847500", "184429.337500", "184430.827500", "184432.317500", "184433.807500", "184435.297500", "184436.787500", "184438.277500", "184439.767500", "184441.257500", "184442.747500", "184444.237500", "184445.727500", "184447.217500", "184448.707500", "184450.197500", "184451.687500", "184453.177500", "184454.667500", "184456.157500", "184457.647500", "184459.137500", "184500.627500", "184502.117500", "184503.607500", "184505.097500", "184506.587500", "184508.077500", "184509.567500", "184511.057500", "184512.547500", "184514.037500", "184515.527500", "184517.017500", "184518.507500", "184519.997500", "184521.487500", "184522.977500", "184524.467500", "184525.957500", "184527.447500", "184528.937500", "184530.427500", "184531.917500", "184533.407500", "184534.897500", "184536.387500", "184537.877500", "184539.367500", "184540.857500", "184542.347500", "184543.837500", "184545.327500", "184546.817500", "184548.307500", "184549.797500", "184551.287500", "184552.777500", "184554.267500", "184555.757500", "184557.247500", "184558.737500", "184600.227500", "184601.717500", "184603.207500", "184604.697500", "184606.187500", "184607.677500", "184609.167500", "184610.657500", "184612.147500", "184613.637500", "184615.127500", "184616.617500", "184618.107500", "184619.597500", "184621.087500", "184622.577500", "184624.067500", "184625.557500", "184627.047500", "184628.537500", "184630.027500", "184631.517500", "184633.007500", "184634.497500", "184635.987500", "184637.477500", "184638.967500", "184640.457500", "184641.947500", "184643.437500", "184644.927500", "184646.417500", "184647.907500", "184649.397500", "184650.887500", "184652.377500", "184653.867500", "184655.357500", "184656.847500", "184658.337500", "184659.827500", "184701.317500", "184702.807500", "184704.297500", "184705.787500", "184707.277500", "184708.767500", "184710.257500", "184711.747500", "184713.237500", "184714.727500", "184716.217500", "184717.707500", "184719.197500", "184720.687500", "184722.177500", "184723.667500", "184725.157500", "184726.647500", "184728.137500", "184729.627500", "184731.117500", "184732.607500", "184734.097500", "184735.587500", "184737.077500", "184738.567500", "184740.057500", "184741.547500", "184743.037500", "184744.527500", "184746.017500", "184747.507500", "184748.997500", "184750.487500", "184751.977500", "184753.467500", "184754.957500", "184756.447500", "184757.937500", "184759.427500", "184800.917500", "184802.407500", "184803.897500", "184805.387500", "184806.877500", "184808.367500", "184809.857500", "184811.347500", "184812.837500", "184814.327500", "184815.817500", "184817.307500", "184818.797500", "184820.287500", "184821.777500"],
      "ContentTime": ["183652.558000", "183652.562000", "183652.565000", "183652.568000", "183652.573000", "183652.576000", "183652.579000", "183652.582000", "183652.585000", "183652.588000", "183652.591000", "183652.594000", "183652.597000", "183652.600000", "183652.603000", "183652.606000", "183652.610000", "183652.613000", "183652.615000", "183652.619000", "183652.621000", "183652.624000", "183652.632000", "183652.635000", "183652.638000", "183652.641000", "183652.644000", "183652.647000", "183652.650000", "183652.653000", "183712.510000", "183712.513000", "183712.516000", "183712.519000", "183712.522000", "183712.525000", "183712.528000", "183712.531000", "183712.534000", "183712.537000", "183712.540000", "183712.543000", "183712.546000", "183712.548000", "183712.551000", "183712.554000", "183712.557000", "183712.560000", "183712.563000", "183712.566000", "183732.510000", "183732.513000", "183732.516000", "183732.520000", "183732.524000", "183732.527000", "183732.532000", "183732.535000", "183732.538000", "183732.541000", "183732.544000", "183732.547000", "183732.550000", "183732.553000", "183732.556000", "183732.558000", "183732.573000", "183732.576000", "183732.579000", "183732.582000", "183752.510000", "183752.517000", "183752.520000", "183752.522000", "183752.525000", "183752.528000", "183752.531000", "183752.534000", "183752.546000", "183752.550000", "183752.552000", "183752.555000", "183752.558000", "183752.561000", "183752.564000", "183752.567000", "183752.570000", "183752.573000", "183752.576000", "183752.579000", "183752.582000", "183832.511000", "183832.514000", "183832.517000", "183832.520000", "183832.523000", "183832.526000", "183832.529000", "183832.532000", "183832.535000", "183832.538000", "183832.541000", "183832.544000", "183832.547000", "183832.550000", "183832.553000", "183832.557000", "183832.560000", "183832.563000", "183832.567000", "183832.576000", "183832.579000", "183832.582000", "183832.585000", "183832.588000", "183832.591000", "183832.593000", "183832.596000", "183832.599000", "183832.602000", "183832.605000", "183832.608000", "183912.511000", "183912.514000", "183912.517000", "183912.520000", "183912.523000", "183912.526000", "183912.529000", "183912.532000", "183912.535000", "183912.538000", "183912.541000", "183912.544000", "183912.547000", "183912.550000", "183912.553000", "183912.556000", "183912.559000", "183912.561000", "183912.564000", "183912.567000", "183912.571000", "183912.573000", "183912.576000", "183912.579000", "183912.582000", "183912.585000", "183912.588000", "183952.510000", "183952.513000", "183952.516000", "183952.519000", "183952.522000", "183952.525000", "183952.528000", "183952.531000", "183952.534000", "183952.537000", "183952.540000", "183952.543000", "183952.546000", "183952.549000", "183952.552000", "183952.555000", "183952.558000", "183952.560000", "183952.564000", "183952.567000", "183952.570000", "183952.573000", "183952.576000", "183952.579000", "183952.582000", "183952.585000", "183952.588000", "184032.511000", "184032.514000", "184032.517000", "184032.520000", "184032.523000", "184032.526000", "184032.529000", "184032.532000", "184032.535000", "184032.538000", "184032.541000", "184032.544000", "184032.547000", "184032.550000", "184032.553000", "184032.556000", "184032.558000", "184032.561000", "184032.564000", "184032.567000", "184032.570000", "184032.573000", "184032.576000", "184032.579000", "184032.582000", "184032.585000", "184032.588000", "184112.511000", "184112.514000", "184112.525000", "184112.528000", "184112.531000", "184112.534000", "184112.537000", "184112.540000", "184112.543000", "184112.546000", "184112.549000", "184112.552000", "184112.555000", "184112.558000", "184112.560000", "184112.563000", "184112.566000", "184112.569000", "184112.572000", "184112.575000", "184112.578000", "184112.581000", "184112.584000", "184112.587000", "184112.590000", "184112.593000", "184112.596000", "184152.510000", "184152.513000", "184152.516000", "184152.519000", "184152.522000", "184152.525000", "184152.528000", "184152.531000", "184152.534000", "184152.537000", "184152.540000", "184152.543000", "184152.546000", "184152.549000", "184152.552000", "184152.555000", "184152.558000", "184152.561000", "184152.564000", "184152.567000", "184152.570000", "184152.572000", "184152.575000", "184152.578000", "184152.581000", "184152.584000", "184152.587000", "184232.510000", "184232.513000", "184232.520000", "184232.523000", "184232.526000", "184232.529000", "184232.532000", "184232.535000", "184232.538000", "184232.541000", "184232.544000", "184232.547000", "184232.550000", "184232.553000", "184232.556000", "184232.559000", "184232.562000", "184232.565000", "184232.568000", "184232.571000", "184232.574000", "184232.577000", "184232.580000", "184232.582000", "184232.585000", "184232.588000", "184232.591000", "184312.511000", "184312.514000", "184312.517000", "184312.520000", "184312.523000", "184312.526000", "184312.529000", "184312.532000", "184312.535000", "184312.538000", "184312.541000", "184312.544000", "184312.547000", "184312.550000", "184312.554000", "184312.557000", "184312.560000", "184312.562000", "184312.565000", "184312.568000", "184312.571000", "184312.574000", "184312.577000", "184312.580000", "184312.583000", "184312.586000", "184352.511000", "184352.514000", "184352.517000", "184352.520000", "184352.523000", "184352.526000", "184352.529000", "184352.532000", "184352.535000", "184352.538000", "184352.541000", "184352.544000", "184352.547000", "184352.550000", "184352.553000", "184352.556000", "184352.559000", "184352.562000", "184352.565000", "184352.568000", "184352.571000", "184352.574000", "184352.577000", "184352.580000", "184352.583000", "184352.586000", "184352.589000", "184432.510000", "184432.513000", "184432.516000", "184432.519000", "184432.522000", "184432.525000", "184432.528000", "184432.531000", "184432.534000", "184432.537000", "184432.540000", "184432.543000", "184432.546000", "184432.549000", "184432.552000", "184432.555000", "184432.558000", "184432.561000", "184432.564000", "184432.567000", "184432.570000", "184432.573000", "184432.576000", "184432.579000", "184432.582000", "184432.585000", "184432.588000", "184512.511000", "184512.514000", "184512.518000", "184512.521000", "184512.524000", "184512.527000", "184512.530000", "184512.533000", "184512.536000", "184512.539000", "184512.542000", "184512.545000", "184512.548000", "184512.551000", "184512.554000", "184512.557000", "184512.560000", "184512.563000", "184512.566000", "184512.569000", "184512.572000", "184512.575000", "184512.578000", "184512.581000", "184512.584000", "184512.587000", "184512.590000", "184552.511000", "184552.514000", "184552.517000", "184552.520000", "184552.523000", "184552.526000", "184552.529000", "184552.532000", "184552.535000", "184552.538000", "184552.541000", "184552.544000", "184552.547000", "184552.550000", "184552.553000", "184552.556000", "184552.559000", "184552.562000", "184552.564000", "184552.567000", "184552.571000", "184552.574000", "184552.576000", "184552.579000", "184552.583000", "184552.586000", "184552.588000", "184632.511000", "184632.514000", "184632.517000", "184632.520000", "184632.523000", "184632.526000", "184632.529000", "184632.532000", "184632.535000", "184632.538000", "184632.541000", "184632.544000", "184632.547000", "184632.550000", "184632.553000", "184632.556000", "184632.559000", "184632.562000", "184632.565000", "184632.568000", "184632.571000", "184632.574000", "184632.577000", "184632.581000", "184632.596000", "184632.599000", "184632.602000", "184712.510000", "184712.513000", "184712.526000", "184712.529000", "184712.532000", "184712.535000", "184712.538000", "184712.541000", "184712.544000", "184712.547000", "184712.550000", "184712.553000", "184712.557000", "184712.559000", "184712.562000", "184712.565000", "184712.568000", "184712.571000", "184712.574000", "184712.577000", "184712.580000", "184712.583000", "184712.586000", "184712.589000", "184712.592000", "184712.595000", "184752.511000", "184752.514000", "184752.517000", "184752.520000", "184752.523000", "184752.526000", "184752.529000", "184752.532000", "184752.535000", "184752.538000", "184752.541000", "184752.544000", "184752.547000", "184752.550000", "184752.553000", "184752.556000", "184752.559000", "184752.562000", "184752.565000", "184752.568000", "184752.571000", "184752.574000", "184752.576000", "184752.579000", "184752.583000", "184752.586000", "184752.589000", "184824.148000", "184824.157000", "184824.160000", "184824.163000", "184824.166000", "184824.169000", "184824.172000", "184824.175000", "184824.178000", "184824.181000", "184824.184000", "184824.187000", "184824.190000", "184824.193000", "184824.196000", "184824.199000", "184824.202000", "184824.205000", "184824.208000", "184824.210000", "184824.213000", "184824.216000"],
