{
  "AcquisitionMatrixPE": 104,
  "AcquisitionNumber": 1,
  "AcquisitionTime": "17:55:5.015000",
  "BandwidthPerPixelPhaseEncode": 17.17,
  "BaseResolution": 104,
  "BodyPartExamined": "BRAIN",
  "CoilCombinationMethod": "Sum of Squares",
  "ConsistencyInfo": "N4_VE11C_LATEST_20160120",
  "ConversionSoftware": "dcm2niix",
  "ConversionSoftwareVersion": "v1.0.20211006",
  "DerivedVendorReportedEchoSpacing": 0.000560011,
  "DeviceSerialNumber": "167006",
  "DwellTime": 2.1e-06,
  "EchoTime": 0.037,
  "EchoTrainLength": 104,
  "EffectiveEchoSpacing": 0.000560011,
  "FlipAngle": 52,
  "HeudiconvVersion": "0.5.3.post569+g418601f",
  "ImageComments": "Unaliased MB4/PE3/LB",
  "ImageOrientationPatientDICOM": [0.999676, -0.0250015, -0.00479027, 0.0214639, 0.929008, -0.369435],
  "ImageOrientationText": "Tra>Cor(-21.7)>Sag(-0.8)",
  "ImageType": [
    "ORIGINAL",
    "PRIMARY",
    "M",
    "MB",
    "ND",
    "MOSAIC"
],
  "ImagingFrequency": 123.259,
  "InPlanePhaseEncodingDirectionDICOM": "COL",
  "InstitutionAddress": "Chemin Queen-Mary 4565,Montreal,District,CA,H3W 1W5",
  "InstitutionName": "IUGM",
  "InstitutionalDepartmentName": "Department",
  "MRAcquisitionType": "2D",
  "MagneticFieldStrength": 3,
  "Manufacturer": "Siemens",
  "ManufacturersModelName": "Prisma_fit",
  "MatrixCoilMode": "SENSE",
  "Modality": "MR",
  "MultibandAccelerationFactor": 4,
  "PartialFourier": 1,
  "PatientPosition": "HFS",
  "PercentPhaseFOV": 100,
  "PercentSampling": 100,
  "PhaseEncodingDirection": "j",
  "PhaseEncodingSteps": 104,
  "PhaseResolution": 1,
  "PixelBandwidth": 2290,
  "ProcedureStepDescription": "video^friends",
  "ProtocolName": "func_task-friends-s05e13a",
  "PulseSequenceDetails": "%CustomerSeq%\\cmrr_mbep2d_bold",
  "ReceiveCoilActiveElements": "HC1-7;NC1,2",
  "ReceiveCoilName": "HeadNeck_64",
  "ReconMatrixPE": 104,
  "RepetitionTime": 1.49,
  "SAR": 0.045888,
  "ScanOptions": "FS",
  "ScanningSequence": "EP",
  "SequenceName": "epfid2d1_104",
  "SequenceVariant": "SK\\SS",
  "SeriesDescription": "func_task-friends-s05e13a",
  "SeriesNumber": 13,
  "ShimSetting": [613, -7270, -8835, 378, 12, -406, 17, 3],
  "SliceThickness": 2,
  "SliceTiming": [0, 0.785, 0.1, 0.8825, 0.1975, 0.98, 0.295, 1.08, 0.3925, 1.1775, 0.49, 1.275, 0.59, 1.3725, 0.6875, 0, 0.785, 0.1, 0.8825, 0.1975, 0.98, 0.295, 1.08, 0.3925, 1.1775, 0.49, 1.275, 0.59, 1.3725, 0.6875, 0, 0.785, 0.1, 0.8825, 0.1975, 0.98, 0.295, 1.08, 0.3925, 1.1775, 0.49, 1.275, 0.59, 1.3725, 0.6875, 0, 0.785, 0.1, 0.8825, 0.1975, 0.98, 0.295, 1.08, 0.3925, 1.1775, 0.49, 1.275, 0.59, 1.3725, 0.6875],
  "SoftwareVersions": "syngo MR E11",
  "SpacingBetweenSlices": 2,
  "StationName": "MRC35049",
  "TaskName": "s05e13a",
  "TotalReadoutTime": 0.0576811,
  "TxRefAmp": 259.208,
  "WipMemBlock": "a81f1755-3a7a-44c0-9166-b3ad2364916f||Sequence: R016 ve11c/master r/e634e98; Dec 19 2017 11:00:25 by eja",
  "dcmmeta_affine": [
    [-1.9993518590927124, 0.04292774572968483, -0.027373291552066803, 98.27679443359375],
    [0.050003014504909515, 1.8580169677734375, -0.7384256720542908, -72.3973159790039],
    [-0.00958054605871439, 0.7388707995414734, 1.8584880828857422, -66.3296127319336],
    [0.0, 0.0, 0.0, 1.0]
],
  "dcmmeta_reorient_transform": [
    [0.0, -1.0, 0.0, 103.0],
    [1.0, 0.0, 0.0, 0.0],
    [0.0, 0.0, 1.0, 0.0],
    [0.0, 0.0, 0.0, 1.0]
],
  "dcmmeta_shape": [104, 104, 60, 460],
  "dcmmeta_slice_dim": 2,
  "dcmmeta_version": 0.6,
  "global": {
    "const": {
      "AcquisitionMatrix": [104, 0, 0, 104],
      "AngioFlag": "N",
      "BitsAllocated": 16,
      "BitsStored": 16,
      "BodyPartExamined": "BRAIN",
      "Columns": 832,
      "EchoNumbers": 1,
      "EchoTime": 37.0,
      "EchoTrainLength": 104,
      "FlipAngle": 52.0,
      "HighBit": 15,
      "ImageOrientationPatient": [0.99967593644747, -0.0250015073716, -0.0047902731688, 0.02146387206865, 0.92900849990866, -0.3694353925834],
      "ImagePositionPatient": [-846.0881344805, -777.09552204502, 282.21036625632],
      "ImageType": [
        "ORIGINAL",
        "PRIMARY",
        "M",
        "MB",
        "ND",
        "MOSAIC"
],
      "ImagedNucleus": "1H",
      "ImagingFrequency": 123.258859,
      "InPlanePhaseEncodingDirection": "COL",
      "MRAcquisitionType": "2D",
      "MagneticFieldStrength": 3.0,
      "Manufacturer": "SIEMENS",
      "ManufacturerModelName": "Prisma_fit",
      "Modality": "MR",
      "NumberOfAverages": 1.0,
      "NumberOfPhaseEncodingSteps": 104,
      "PercentPhaseFieldOfView": 100.0,
      "PercentSampling": 100.0,
      "PerformedProcedureStepStartTime": "172414.440000",
      "PhotometricInterpretation": "MONOCHROME2",
      "PixelBandwidth": 2290.0,
      "PixelRepresentation": 0,
      "PixelSpacing": [2.0, 2.0],
      "ProtocolName": "func_task-friends-s05e13a",
      "RepetitionTime": 1490.0,
      "Rows": 832,
      "SAR": 0.04588804135541,
      "SamplesPerPixel": 1,
      "ScanOptions": "FS",
      "ScanningSequence": "EP",
      "SequenceName": "epfid2d1_104",
      "SequenceVariant": [
        "SK",
        "SS"
],
      "SeriesDescription": "func_task-friends-s05e13a",
      "SeriesNumber": 13,
      "SeriesTime": "175632.539000",
      "SliceLocation": -36.251454942079,
      "SliceThickness": 2.0,
      "SmallestImagePixelValue": 0,
      "SoftwareVersions": "syngo MR E11",
      "SpacingBetweenSlices": 1.9999999507222,
      "SpecificCharacterSet": "ISO_IR 100",
      "StudyID": "1",
      "StudyTime": "172414.332000",
      "TransmitCoilName": "Body",
      "VariableFlipAngleFlag": "N",
      "WindowCenterWidthExplanation": "Algo1",
      "dBdt": 0.0},
    "slices": {}
  },
  "time": {
    "samples": {
      "AcquisitionNumber": [1, 2, 3, 4, 5, 6, 7, 8, 9, 10, 11, 12, 13, 14, 15, 16, 17, 18, 19, 20, 21, 22, 23, 24, 25, 26, 27, 28, 29, 30, 31, 32, 33, 34, 35, 36, 37, 38, 39, 40, 41, 42, 43, 44, 45, 46, 47, 48, 49, 50, 51, 52, 53, 54, 55, 56, 57, 58, 59, 60, 61, 62, 63, 64, 65, 66, 67, 68, 69, 70, 71, 72, 73, 74, 75, 76, 77, 78, 79, 80, 81, 82, 83, 84, 85, 86, 87, 88, 89, 90, 91, 92, 93, 94, 95, 96, 97, 98, 99, 100, 101, 102, 103, 104, 105, 106, 107, 108, 109, 110, 111, 112, 113, 114, 115, 116, 117, 118, 119, 120, 121, 122, 123, 124, 125, 126, 127, 128, 129, 130, 131, 132, 133, 134, 135, 136, 137, 138, 139, 140, 141, 142, 143, 144, 145, 146, 147, 148, 149, 150, 151, 152, 153, 154, 155, 156, 157, 158, 159, 160, 161, 162, 163, 164, 165, 166, 167, 168, 169, 170, 171, 172, 173, 174, 175, 176, 177, 178, 179, 180, 181, 182, 183, 184, 185, 186, 187, 188, 189, 190, 191, 192, 193, 194, 195, 196, 197, 198, 199, 200, 201, 202, 203, 204, 205, 206, 207, 208, 209, 210, 211, 212, 213, 214, 215, 216, 217, 218, 219, 220, 221, 222, 223, 224, 225, 226, 227, 228, 229, 230, 231, 232, 233, 234, 235, 236, 237, 238, 239, 240, 241, 242, 243, 244, 245, 246, 247, 248, 249, 250, 251, 252, 253, 254, 255, 256, 257, 258, 259, 260, 261, 262, 263, 264, 265, 266, 267, 268, 269, 270, 271, 272, 273, 274, 275, 276, 277, 278, 279, 280, 281, 282, 283, 284, 285, 286, 287, 288, 289, 290, 291, 292, 293, 294, 295, 296, 297, 298, 299, 300, 301, 302, 303, 304, 305, 306, 307, 308, 309, 310, 311, 312, 313, 314, 315, 316, 317, 318, 319, 320, 321, 322, 323, 324, 325, 326, 327, 328, 329, 330, 331, 332, 333, 334, 335, 336, 337, 338, 339, 340, 341, 342, 343, 344, 345, 346, 347, 348, 349, 350, 351, 352, 353, 354, 355, 356, 357, 358, 359, 360, 361, 362, 363, 364, 365, 366, 367, 368, 369, 370, 371, 372, 373, 374, 375, 376, 377, 378, 379, 380, 381, 382, 383, 384, 385, 386, 387, 388, 389, 390, 391, 392, 393, 394, 395, 396, 397, 398, 399, 400, 401, 402, 403, 404, 405, 406, 407, 408, 409, 410, 411, 412, 413, 414, 415, 416, 417, 418, 419, 420, 421, 422, 423, 424, 425, 426, 427, 428, 429, 430, 431, 432, 433, 434, 435, 436, 437, 438, 439, 440, 441, 442, 443, 444, 445, 446, 447, 448, 449, 450, 451, 452, 453, 454, 455, 456, 457, 458, 459, 460],
      "AcquisitionTime": ["175505.015000", "175506.505000", "175507.995000", "175509.485000", "175510.975000", "175512.465000", "175513.955000", "175515.445000", "175516.935000", "175518.425000", "175519.915000", "175521.405000", "175522.895000", "175524.385000", "175525.875000", "175527.365000", "175528.855000", "175530.345000", "175531.835000", "175533.325000", "175534.815000", "175536.305000", "175537.795000", "175539.285000", "175540.775000", "175542.265000", "175543.755000", "175545.245000", "175546.735000", "175548.225000", "175549.715000", "175551.205000", "175552.695000", "175554.185000", "175555.675000", "175557.165000", "175558.655000", "175600.145000", "175601.635000", "175603.125000", "175604.615000", "175606.105000", "175607.595000", "175609.085000", "175610.575000", "175612.065000", "175613.555000", "175615.045000", "175616.535000", "175618.025000", "175619.515000", "175621.005000", "175622.495000", "175623.985000", "175625.475000", "175626.965000", "175628.455000", "175629.945000", "175631.435000", "175632.925000", "175634.415000", "175635.905000", "175637.395000", "175638.885000", "175640.375000", "175641.865000", "175643.355000", "175644.845000", "175646.335000", "175647.825000", "175649.315000", "175650.805000", "175652.295000", "175653.785000", "175655.275000", "175656.765000", "175658.255000", "175659.745000", "175701.235000", "175702.725000", "175704.215000", "175705.705000", "175707.195000", "175708.685000", "175710.175000", "175711.665000", "175713.155000", "175714.645000", "175716.135000", "175717.625000", "175719.115000", "175720.605000", "175722.095000", "175723.585000", "175725.075000", "175726.565000", "175728.055000", "175729.545000", "175731.035000", "175732.525000", "175734.015000", "175735.505000", "175736.995000", "175738.485000", "175739.975000", "175741.465000", "175742.955000", "175744.445000", "175745.935000", "175747.425000", "175748.915000", "175750.405000", "175751.895000", "175753.385000", "175754.875000", "175756.365000", "175757.855000", "175759.345000", "175800.835000", "175802.325000", "175803.815000", "175805.305000", "175806.795000", "175808.285000", "175809.775000", "175811.265000", "175812.755000", "175814.245000", "175815.735000", "175817.225000", "175818.715000", "175820.205000", "175821.695000", "175823.185000", "175824.675000", "175826.165000", "175827.655000", "175829.145000", "175830.635000", "175832.125000", "175833.615000", "175835.105000", "175836.595000", "175838.085000", "175839.575000", "175841.065000", "175842.555000", "175844.045000", "175845.535000", "175847.025000", "175848.515000", "175850.005000", "175851.495000", "175852.985000", "175854.475000", "175855.965000", "175857.455000", "175858.945000", "175900.435000", "175901.925000", "175903.415000", "175904.905000", "175906.395000", "175907.885000", "175909.375000", "175910.865000", "175912.355000", "175913.845000", "175915.335000", "175916.825000", "175918.315000", "175919.805000", "175921.295000", "175922.785000", "175924.275000", "175925.765000", "175927.255000", "175928.745000", "175930.235000", "175931.725000", "175933.215000", "175934.705000", "175936.195000", "175937.685000", "175939.175000", "175940.665000", "175942.155000", "175943.645000", "175945.135000", "175946.625000", "175948.115000", "175949.605000", "175951.095000", "175952.585000", "175954.075000", "175955.565000", "175957.055000", "175958.545000", "180000.035000", "180001.525000", "180003.015000", "180004.505000", "180005.995000", "180007.485000", "180008.975000", "180010.465000", "180011.955000", "180013.445000", "180014.935000", "180016.425000", "180017.915000", "180019.405000", "180020.895000", "180022.385000", "180023.875000", "180025.365000", "180026.855000", "180028.345000", "180029.835000", "180031.325000", "180032.815000", "180034.305000", "180035.795000", "180037.285000", "180038.775000", "180040.265000", "180041.755000", "180043.245000", "180044.735000", "180046.225000", "180047.715000", "180049.205000", "180050.695000", "180052.185000", "180053.675000", "180055.165000", "180056.655000", "180058.145000", "180059.635000", "180101.125000", "180102.615000", "180104.105000", "180105.595000", "180107.085000", "180108.575000", "180110.065000", "180111.555000", "180113.045000", "180114.535000", "180116.025000", "180117.515000", "180119.005000", "180120.495000", "180121.985000", "180123.475000", "180124.965000", "180126.455000", "180127.945000", "180129.435000", "180130.925000", "180132.415000", "180133.905000", "180135.395000", "180136.885000", "180138.375000", "180139.865000", "180141.355000", "180142.845000", "180144.335000", "180145.825000", "180147.315000", "180148.805000", "180150.295000", "180151.785000", "180153.275000", "180154.765000", "180156.255000", "180157.745000", "180159.235000", "180200.725000", "180202.215000", "180203.705000", "180205.195000", "180206.685000", "180208.175000", "180209.665000", "180211.155000", "180212.645000", "180214.135000", "180215.625000", "180217.115000", "180218.605000", "180220.095000", "180221.585000", "180223.075000", "180224.565000", "180226.055000", "180227.545000", "180229.035000", "180230.525000", "180232.015000", "180233.505000", "180234.995000", "180236.485000", "180237.975000", "180239.465000", "180240.955000", "180242.445000", "180243.935000", "180245.425000", "180246.915000", "180248.405000", "180249.895000", "180251.385000", "180252.875000", "180254.365000", "180255.855000", "180257.345000", "180258.835000", "180300.325000", "180301.815000", "180303.305000", "180304.795000", "180306.285000", "180307.775000", "180309.265000", "180310.755000", "180312.245000", "180313.735000", "180315.225000", "180316.715000", "180318.205000", "180319.695000", "180321.185000", "180322.675000", "180324.165000", "180325.655000", "180327.145000", "180328.635000", "180330.125000", "180331.615000", "180333.105000", "180334.595000", "180336.085000", "180337.575000", "180339.065000", "180340.555000", "180342.045000", "180343.535000", "180345.025000", "180346.515000", "180348.005000", "180349.495000", "180350.985000", "180352.475000", "180353.965000", "180355.455000", "180356.945000", "180358.435000", "180359.925000", "180401.415000", "180402.905000", "180404.395000", "180405.885000", "180407.375000", "180408.865000", "180410.355000", "180411.845000", "180413.335000", "180414.825000", "180416.315000", "180417.805000", "180419.295000", "180420.785000", "180422.275000", "180423.765000", "180425.255000", "180426.745000", "180428.235000", "180429.725000", "180431.215000", "180432.705000", "180434.195000", "180435.685000", "180437.175000", "180438.665000", "180440.155000", "180441.645000", "180443.135000", "180444.625000", "180446.115000", "180447.605000", "180449.095000", "180450.585000", "180452.075000", "180453.565000", "180455.055000", "180456.545000", "180458.035000", "180459.525000", "180501.015000", "180502.505000", "180503.995000", "180505.485000", "180506.975000", "180508.465000", "180509.955000", "180511.445000", "180512.935000", "180514.425000", "180515.915000", "180517.405000", "180518.895000", "180520.385000", "180521.875000", "180523.365000", "180524.855000", "180526.345000", "180527.835000", "180529.325000", "180530.815000", "180532.305000", "180533.795000", "180535.285000", "180536.775000", "180538.265000", "180539.755000", "180541.245000", "180542.735000", "180544.225000", "180545.715000", "180547.205000", "180548.695000", "180550.185000", "180551.675000", "180553.165000", "180554.655000", "180556.145000", "180557.635000", "180559.125000", "180600.615000", "180602.105000", "180603.595000", "180605.085000", "180606.575000", "180608.065000", "180609.555000", "180611.045000", "180612.535000", "180614.025000", "180615.515000", "180617.005000", "180618.495000", "180619.985000", "180621.475000", "180622.965000", "180624.455000", "180625.945000", "180627.435000", "180628.925000"],
      "ContentTime": ["175632.541000", "175632.545000", "175632.547000", "175632.551000", "175632.553000", "175632.556000", "175632.559000", "175632.562000", "175632.565000", "175632.568000", "175632.571000", "175632.574000", "175632.587000", "175632.595000", "175632.598000", "175632.601000", "175632.604000", "175632.606000", "175632.609000", "175632.612000", "175632.615000", "175632.618000", "175632.621000", "175632.624000", "175632.627000", "175632.630000", "175632.633000", "175632.636000", "175632.642000", "175632.645000", "175632.648000", "175632.651000", "175632.654000", "175632.657000", "175632.660000", "175652.511000", "175652.514000", "175652.517000", "175652.520000", "175652.523000", "175652.526000", "175652.529000", "175652.532000", "175652.535000", "175652.537000", "175652.540000", "175652.543000", "175652.546000", "175652.549000", "175652.562000", "175652.565000", "175652.568000", "175652.571000", "175652.574000", "175652.577000", "175712.511000", "175712.514000", "175712.517000", "175712.520000", "175712.523000", "175712.526000", "175712.529000", "175712.532000", "175712.535000", "175712.538000", "175712.541000", "175712.544000", "175712.547000", "175712.550000", "175712.553000", "175712.556000", "175712.559000", "175712.562000", "175712.565000", "175712.568000", "175732.511000", "175732.514000", "175732.517000", "175732.520000", "175732.523000", "175732.526000", "175732.529000", "175732.532000", "175732.535000", "175732.537000", "175732.540000", "175732.543000", "175732.546000", "175732.549000", "175732.552000", "175732.555000", "175732.558000", "175732.561000", "175732.564000", "175732.567000", "175812.510000", "175812.513000", "175812.516000", "175812.519000", "175812.522000", "175812.525000", "175812.528000", "175812.531000", "175812.534000", "175812.537000", "175812.540000", "175812.543000", "175812.546000", "175812.548000", "175812.551000", "175812.554000", "175812.557000", "175812.560000", "175812.563000", "175812.566000", "175812.569000", "175812.572000", "175812.575000", "175812.578000", "175812.581000", "175812.584000", "175812.587000", "175812.590000", "175812.593000", "175812.596000", "175852.511000", "175852.514000", "175852.517000", "175852.520000", "175852.523000", "175852.526000", "175852.529000", "175852.532000", "175852.535000", "175852.538000", "175852.541000", "175852.544000", "175852.546000", "175852.549000", "175852.552000", "175852.555000", "175852.558000", "175852.561000", "175852.564000", "175852.567000", "175852.570000", "175852.573000", "175852.576000", "175852.579000", "175852.582000", "175852.585000", "175932.511000", "175932.514000", "175932.517000", "175932.520000", "175932.523000", "175932.526000", "175932.529000", "175932.532000", "175932.535000", "175932.538000", "175932.541000", "175932.544000", "175932.547000", "175932.550000", "175932.553000", "175932.556000", "175932.559000", "175932.562000", "175932.565000", "175932.567000", "175932.570000", "175932.574000", "175932.576000", "175932.579000", "175932.582000", "175932.585000", "175932.588000", "180012.510000", "180012.513000", "180012.516000", "180012.519000", "180012.522000", "180012.525000", "180012.528000", "180012.531000", "180012.534000", "180012.537000", "180012.540000", "180012.543000", "180012.546000", "180012.549000", "180012.552000", "180012.554000", "180012.557000", "180012.560000", "180012.563000", "180012.566000", "180012.569000", "180012.572000", "180012.575000", "180012.578000", "180012.581000", "180012.584000", "180012.587000", "180052.510000", "180052.513000", "180052.516000", "180052.519000", "180052.522000", "180052.525000", "180052.528000", "180052.531000", "180052.543000", "180052.546000", "180052.549000", "180052.552000", "180052.555000", "180052.558000", "180052.561000", "180052.564000", "180052.567000", "180052.570000", "180052.573000", "180052.576000", "180052.579000", "180052.581000", "180052.584000", "180052.587000", "180052.590000", "180052.593000", "180052.596000", "180132.511000", "180132.514000", "180132.517000", "180132.520000", "180132.523000", "180132.526000", "180132.529000", "180132.532000", "180132.535000", "180132.538000", "180132.541000", "180132.544000", "180132.547000", "180132.550000", "180132.553000", "180132.556000", "180132.558000", "180132.561000", "180132.564000", "180132.567000", "180132.570000", "180132.583000", "180132.587000", "180132.590000", "180132.592000", "180132.595000", "180132.598000", "180212.511000", "180212.514000", "180212.517000", "180212.520000", "180212.523000", "180212.526000", "180212.529000", "180212.532000", "180212.535000", "180212.538000", "180212.541000", "180212.544000", "180212.547000", "180212.550000", "180212.553000", "180212.556000", "180212.559000", "180212.562000", "180212.565000", "180212.568000", "180212.571000", "180212.574000", "180212.577000", "180212.580000", "180212.583000", "180212.586000", "180212.589000", "180252.510000", "180252.513000", "180252.516000", "180252.519000", "180252.522000", "180252.525000", "180252.528000", "180252.531000", "180252.534000", "180252.537000", "180252.540000", "180252.543000", "180252.546000", "180252.549000", "180252.552000", "180252.555000", "180252.558000", "180252.561000", "180252.563000", "180252.566000", "180252.570000", "180252.572000", "180252.575000", "180252.578000", "180252.581000", "180252.584000", "180252.587000", "180332.511000", "180332.514000", "180332.517000", "180332.520000", "180332.523000", "180332.526000", "180332.529000", "180332.532000", "180332.535000", "180332.538000", "180332.541000", "180332.544000", "180332.547000", "180332.550000", "180332.553000", "180332.556000", "180332.559000", "180332.562000", "180332.565000", "180332.568000", "180332.571000", "180332.574000", "180332.577000", "180332.580000", "180332.583000", "180332.586000", "180412.511000", "180412.514000", "180412.517000", "180412.520000", "180412.523000", "180412.526000", "180412.529000", "180412.532000", "180412.535000", "180412.538000", "180412.541000", "180412.544000", "180412.547000", "180412.550000", "180412.553000", "180412.556000", "180412.559000", "180412.562000", "180412.565000", "180412.568000", "180412.571000", "180412.574000", "180412.577000", "180412.580000", "180412.582000", "180412.586000", "180412.589000", "180452.510000", "180452.514000", "180452.516000", "180452.519000", "180452.523000", "180452.526000", "180452.528000", "180452.531000", "180452.534000", "180452.537000", "180452.540000", "180452.543000", "180452.546000", "180452.549000", "180452.552000", "180452.555000", "180452.558000", "180452.561000", "180452.564000", "180452.567000", "180452.570000", "180452.573000", "180452.576000", "180452.579000", "180452.582000", "180452.585000", "180452.588000", "180532.510000", "180532.513000", "180532.516000", "180532.519000", "180532.522000", "180532.525000", "180532.528000", "180532.531000", "180532.534000", "180532.554000", "180532.557000", "180532.560000", "180532.563000", "180532.566000", "180532.569000", "180532.572000", "180532.575000", "180532.578000", "180532.581000", "180532.584000", "180532.587000", "180532.590000", "180532.593000", "180532.596000", "180532.599000", "180532.602000", "180532.605000", "180612.511000", "180612.514000", "180612.517000", "180612.520000", "180612.523000", "180612.526000", "180612.529000", "180612.532000", "180612.535000", "180612.538000", "180612.541000", "180612.544000", "180612.547000", "180612.550000", "180612.553000", "180612.556000", "180612.559000", "180612.562000", "180612.565000", "180612.568000", "180612.571000", "180612.574000", "180612.577000", "180612.580000", "180612.583000", "180612.586000", "180612.589000", "180631.467000", "180631.470000", "180631.473000", "180631.476000", "180631.479000", "180631.482000", "180631.485000", "180631.488000", "180631.491000", "180631.494000", "180631.497000", "180631.500000", "180631.503000"],
