{
  "AcquisitionMatrixPE": 104,
  "AcquisitionNumber": 1,
  "AcquisitionTime": "17:28:49.547500",
  "BandwidthPerPixelPhaseEncode": 17.17,
  "BaseResolution": 104,
  "BodyPartExamined": "BRAIN",
  "CoilCombinationMethod": "Sum of Squares",
  "ConsistencyInfo": "N4_VE11C_LATEST_20160120",
  "ConversionSoftware": "dcm2niix",
  "ConversionSoftwareVersion": "v1.0.20211006",
  "DerivedVendorReportedEchoSpacing": 0.000560011,
  "DeviceSerialNumber": "167006",
  "DwellTime": 2.1e-06,
  "EchoTime": 0.037,
  "EchoTrainLength": 104,
  "EffectiveEchoSpacing": 0.000560011,
  "FlipAngle": 52,
  "HeudiconvVersion": "0.5.3.post569+g418601f",
  "ImageComments": "Unaliased MB4/PE3/LB",
  "ImageOrientationPatientDICOM": [0.999676, -0.0250015, -0.00479027, 0.0214639, 0.929008, -0.369435],
  "ImageOrientationText": "Tra>Cor(-21.7)>Sag(-0.8)",
  "ImageType": [
    "ORIGINAL",
    "PRIMARY",
    "M",
    "MB",
    "ND",
    "MOSAIC"
],
  "ImagingFrequency": 123.259,
  "InPlanePhaseEncodingDirectionDICOM": "COL",
  "InstitutionAddress": "Chemin Queen-Mary 4565,Montreal,District,CA,H3W 1W5",
  "InstitutionName": "IUGM",
  "InstitutionalDepartmentName": "Department",
  "MRAcquisitionType": "2D",
  "MagneticFieldStrength": 3,
  "Manufacturer": "Siemens",
  "ManufacturersModelName": "Prisma_fit",
  "MatrixCoilMode": "SENSE",
  "Modality": "MR",
  "MultibandAccelerationFactor": 4,
  "PartialFourier": 1,
  "PatientPosition": "HFS",
  "PercentPhaseFOV": 100,
  "PercentSampling": 100,
  "PhaseEncodingDirection": "j",
  "PhaseEncodingSteps": 104,
  "PhaseResolution": 1,
  "PixelBandwidth": 2290,
  "ProcedureStepDescription": "video^friends",
  "ProtocolName": "func_task-friends-s05e12a",
  "PulseSequenceDetails": "%CustomerSeq%\\cmrr_mbep2d_bold",
  "ReceiveCoilActiveElements": "HC1-7;NC1,2",
  "ReceiveCoilName": "HeadNeck_64",
  "ReconMatrixPE": 104,
  "RepetitionTime": 1.49,
  "SAR": 0.0458814,
  "ScanOptions": "FS",
  "ScanningSequence": "EP",
  "SequenceName": "epfid2d1_104",
  "SequenceVariant": "SK\\SS",
  "SeriesDescription": "func_task-friends-s05e12a",
  "SeriesNumber": 9,
  "ShimSetting": [613, -7270, -8835, 378, 12, -406, 17, 3],
  "SliceThickness": 2,
  "SliceTiming": [0, 0.785, 0.0975, 0.8825, 0.195, 0.98, 0.295, 1.0775, 0.3925, 1.175, 0.49, 1.275, 0.5875, 1.3725, 0.685, 0, 0.785, 0.0975, 0.8825, 0.195, 0.98, 0.295, 1.0775, 0.3925, 1.175, 0.49, 1.275, 0.5875, 1.3725, 0.685, 0, 0.785, 0.0975, 0.8825, 0.195, 0.98, 0.295, 1.0775, 0.3925, 1.175, 0.49, 1.275, 0.5875, 1.3725, 0.685, 0, 0.785, 0.0975, 0.8825, 0.195, 0.98, 0.295, 1.0775, 0.3925, 1.175, 0.49, 1.275, 0.5875, 1.3725, 0.685],
  "SoftwareVersions": "syngo MR E11",
  "SpacingBetweenSlices": 2,
  "StationName": "MRC35049",
  "TaskName": "s05e12a",
  "TotalReadoutTime": 0.0576811,
  "TxRefAmp": 259.208,
  "WipMemBlock": "f4fa095e-7e74-4f95-9781-517db5718439||Sequence: R016 ve11c/master r/e634e98; Dec 19 2017 11:00:25 by eja",
  "dcmmeta_affine": [
    [-1.9993518590927124, 0.04292774572968483, -0.027373291552066803, 98.27679443359375],
    [0.050003014504909515, 1.8580169677734375, -0.7384256720542908, -72.3973159790039],
    [-0.00958054605871439, 0.7388707995414734, 1.8584880828857422, -66.3296127319336],
    [0.0, 0.0, 0.0, 1.0]
],
  "dcmmeta_reorient_transform": [
    [0.0, -1.0, 0.0, 103.0],
    [1.0, 0.0, 0.0, 0.0],
    [0.0, 0.0, 1.0, 0.0],
    [0.0, 0.0, 0.0, 1.0]
],
  "dcmmeta_shape": [104, 104, 60, 445],
  "dcmmeta_slice_dim": 2,
  "dcmmeta_version": 0.6,
  "global": {
    "const": {
      "AcquisitionMatrix": [104, 0, 0, 104],
      "AngioFlag": "N",
      "BitsAllocated": 16,
      "BitsStored": 16,
      "BodyPartExamined": "BRAIN",
      "Columns": 832,
      "EchoNumbers": 1,
      "EchoTime": 37.0,
      "EchoTrainLength": 104,
      "FlipAngle": 52.0,
      "HighBit": 15,
      "ImageOrientationPatient": [0.99967593644747, -0.0250015073716, -0.0047902731688, 0.02146387206865, 0.92900849990866, -0.3694353925834],
      "ImagePositionPatient": [-846.0881344805, -777.09552204502, 282.21036625632],
      "ImageType": [
        "ORIGINAL",
        "PRIMARY",
        "M",
        "MB",
        "ND",
        "MOSAIC"
],
      "ImagedNucleus": "1H",
      "ImagingFrequency": 123.258852,
      "InPlanePhaseEncodingDirection": "COL",
      "MRAcquisitionType": "2D",
      "MagneticFieldStrength": 3.0,
      "Manufacturer": "SIEMENS",
      "ManufacturerModelName": "Prisma_fit",
      "Modality": "MR",
      "NumberOfAverages": 1.0,
      "NumberOfPhaseEncodingSteps": 104,
      "PercentPhaseFieldOfView": 100.0,
      "PercentSampling": 100.0,
      "PerformedProcedureStepStartTime": "172414.440000",
      "PhotometricInterpretation": "MONOCHROME2",
      "PixelBandwidth": 2290.0,
      "PixelRepresentation": 0,
      "PixelSpacing": [2.0, 2.0],
      "ProtocolName": "func_task-friends-s05e12a",
      "RepetitionTime": 1490.0,
      "Rows": 832,
      "SAR": 0.04588140764319,
      "SamplesPerPixel": 1,
      "ScanOptions": "FS",
      "ScanningSequence": "EP",
      "SequenceName": "epfid2d1_104",
      "SequenceVariant": [
        "SK",
        "SS"
],
      "SeriesDescription": "func_task-friends-s05e12a",
      "SeriesNumber": 9,
      "SeriesTime": "173010.822000",
      "SliceLocation": -36.251454942079,
      "SliceThickness": 2.0,
      "SmallestImagePixelValue": 0,
      "SoftwareVersions": "syngo MR E11",
      "SpacingBetweenSlices": 1.9999999507222,
      "SpecificCharacterSet": "ISO_IR 100",
      "StudyID": "1",
      "StudyTime": "172414.332000",
      "TransmitCoilName": "Body",
      "VariableFlipAngleFlag": "N",
      "WindowCenterWidthExplanation": "Algo1",
      "dBdt": 0.0},
    "slices": {}
  },
  "time": {
    "samples": {
      "AcquisitionNumber": [1, 2, 3, 4, 5, 6, 7, 8, 9, 10, 11, 12, 13, 14, 15, 16, 17, 18, 19, 20, 21, 22, 23, 24, 25, 26, 27, 28, 29, 30, 31, 32, 33, 34, 35, 36, 37, 38, 39, 40, 41, 42, 43, 44, 45, 46, 47, 48, 49, 50, 51, 52, 53, 54, 55, 56, 57, 58, 59, 60, 61, 62, 63, 64, 65, 66, 67, 68, 69, 70, 71, 72, 73, 74, 75, 76, 77, 78, 79, 80, 81, 82, 83, 84, 85, 86, 87, 88, 89, 90, 91, 92, 93, 94, 95, 96, 97, 98, 99, 100, 101, 102, 103, 104, 105, 106, 107, 108, 109, 110, 111, 112, 113, 114, 115, 116, 117, 118, 119, 120, 121, 122, 123, 124, 125, 126, 127, 128, 129, 130, 131, 132, 133, 134, 135, 136, 137, 138, 139, 140, 141, 142, 143, 144, 145, 146, 147, 148, 149, 150, 151, 152, 153, 154, 155, 156, 157, 158, 159, 160, 161, 162, 163, 164, 165, 166, 167, 168, 169, 170, 171, 172, 173, 174, 175, 176, 177, 178, 179, 180, 181, 182, 183, 184, 185, 186, 187, 188, 189, 190, 191, 192, 193, 194, 195, 196, 197, 198, 199, 200, 201, 202, 203, 204, 205, 206, 207, 208, 209, 210, 211, 212, 213, 214, 215, 216, 217, 218, 219, 220, 221, 222, 223, 224, 225, 226, 227, 228, 229, 230, 231, 232, 233, 234, 235, 236, 237, 238, 239, 240, 241, 242, 243, 244, 245, 246, 247, 248, 249, 250, 251, 252, 253, 254, 255, 256, 257, 258, 259, 260, 261, 262, 263, 264, 265, 266, 267, 268, 269, 270, 271, 272, 273, 274, 275, 276, 277, 278, 279, 280, 281, 282, 283, 284, 285, 286, 287, 288, 289, 290, 291, 292, 293, 294, 295, 296, 297, 298, 299, 300, 301, 302, 303, 304, 305, 306, 307, 308, 309, 310, 311, 312, 313, 314, 315, 316, 317, 318, 319, 320, 321, 322, 323, 324, 325, 326, 327, 328, 329, 330, 331, 332, 333, 334, 335, 336, 337, 338, 339, 340, 341, 342, 343, 344, 345, 346, 347, 348, 349, 350, 351, 352, 353, 354, 355, 356, 357, 358, 359, 360, 361, 362, 363, 364, 365, 366, 367, 368, 369, 370, 371, 372, 373, 374, 375, 376, 377, 378, 379, 380, 381, 382, 383, 384, 385, 386, 387, 388, 389, 390, 391, 392, 393, 394, 395, 396, 397, 398, 399, 400, 401, 402, 403, 404, 405, 406, 407, 408, 409, 410, 411, 412, 413, 414, 415, 416, 417, 418, 419, 420, 421, 422, 423, 424, 425, 426, 427, 428, 429, 430, 431, 432, 433, 434, 435, 436, 437, 438, 439, 440, 441, 442, 443, 444, 445],
      "AcquisitionTime": ["172849.547500", "172851.037500", "172852.527500", "172854.017500", "172855.507500", "172856.997500", "172858.487500", "172859.977500", "172901.467500", "172902.957500", "172904.447500", "172905.937500", "172907.427500", "172908.917500", "172910.407500", "172911.897500", "172913.387500", "172914.877500", "172916.367500", "172917.857500", "172919.347500", "172920.837500", "172922.327500", "172923.817500", "172925.307500", "172926.797500", "172928.287500", "172929.777500", "172931.267500", "172932.757500", "172934.247500", "172935.737500", "172937.227500", "172938.717500", "172940.207500", "172941.697500", "172943.187500", "172944.677500", "172946.167500", "172947.657500", "172949.147500", "172950.637500", "172952.127500", "172953.617500", "172955.107500", "172956.597500", "172958.087500", "172959.577500", "173001.067500", "173002.557500", "173004.047500", "173005.537500", "173007.027500", "173008.517500", "173010.007500", "173011.497500", "173012.987500", "173014.477500", "173015.967500", "173017.457500", "173018.947500", "173020.437500", "173021.927500", "173023.417500", "173024.907500", "173026.397500", "173027.887500", "173029.377500", "173030.867500", "173032.357500", "173033.847500", "173035.337500", "173036.827500", "173038.317500", "173039.807500", "173041.297500", "173042.787500", "173044.277500", "173045.767500", "173047.257500", "173048.747500", "173050.237500", "173051.727500", "173053.217500", "173054.707500", "173056.197500", "173057.687500", "173059.177500", "173100.667500", "173102.157500", "173103.647500", "173105.137500", "173106.627500", "173108.117500", "173109.607500", "173111.097500", "173112.587500", "173114.077500", "173115.567500", "173117.057500", "173118.547500", "173120.037500", "173121.527500", "173123.017500", "173124.507500", "173125.997500", "173127.487500", "173128.977500", "173130.467500", "173131.957500", "173133.447500", "173134.937500", "173136.427500", "173137.917500", "173139.407500", "173140.897500", "173142.387500", "173143.877500", "173145.367500", "173146.857500", "173148.347500", "173149.837500", "173151.327500", "173152.817500", "173154.307500", "173155.797500", "173157.287500", "173158.777500", "173200.267500", "173201.757500", "173203.247500", "173204.737500", "173206.227500", "173207.717500", "173209.207500", "173210.697500", "173212.187500", "173213.677500", "173215.167500", "173216.657500", "173218.147500", "173219.637500", "173221.127500", "173222.617500", "173224.107500", "173225.597500", "173227.087500", "173228.577500", "173230.067500", "173231.557500", "173233.047500", "173234.537500", "173236.027500", "173237.517500", "173239.007500", "173240.497500", "173241.987500", "173243.477500", "173244.967500", "173246.457500", "173247.947500", "173249.437500", "173250.927500", "173252.417500", "173253.907500", "173255.397500", "173256.887500", "173258.377500", "173259.867500", "173301.357500", "173302.847500", "173304.337500", "173305.827500", "173307.317500", "173308.807500", "173310.297500", "173311.787500", "173313.277500", "173314.767500", "173316.257500", "173317.747500", "173319.237500", "173320.727500", "173322.217500", "173323.707500", "173325.197500", "173326.687500", "173328.177500", "173329.667500", "173331.157500", "173332.647500", "173334.137500", "173335.627500", "173337.117500", "173338.607500", "173340.097500", "173341.587500", "173343.077500", "173344.567500", "173346.057500", "173347.547500", "173349.037500", "173350.527500", "173352.017500", "173353.507500", "173354.997500", "173356.487500", "173357.977500", "173359.467500", "173400.957500", "173402.447500", "173403.937500", "173405.427500", "173406.917500", "173408.407500", "173409.897500", "173411.387500", "173412.877500", "173414.367500", "173415.857500", "173417.347500", "173418.837500", "173420.327500", "173421.817500", "173423.307500", "173424.797500", "173426.287500", "173427.777500", "173429.267500", "173430.757500", "173432.247500", "173433.737500", "173435.227500", "173436.717500", "173438.207500", "173439.697500", "173441.187500", "173442.677500", "173444.167500", "173445.657500", "173447.147500", "173448.637500", "173450.127500", "173451.617500", "173453.107500", "173454.597500", "173456.087500", "173457.577500", "173459.067500", "173500.557500", "173502.047500", "173503.537500", "173505.027500", "173506.517500", "173508.007500", "173509.497500", "173510.987500", "173512.477500", "173513.967500", "173515.457500", "173516.947500", "173518.437500", "173519.927500", "173521.417500", "173522.907500", "173524.397500", "173525.887500", "173527.377500", "173528.867500", "173530.357500", "173531.847500", "173533.337500", "173534.827500", "173536.317500", "173537.807500", "173539.297500", "173540.787500", "173542.277500", "173543.767500", "173545.257500", "173546.747500", "173548.237500", "173549.727500", "173551.217500", "173552.707500", "173554.197500", "173555.687500", "173557.177500", "173558.667500", "173600.157500", "173601.647500", "173603.137500", "173604.627500", "173606.117500", "173607.607500", "173609.097500", "173610.587500", "173612.077500", "173613.567500", "173615.057500", "173616.547500", "173618.037500", "173619.527500", "173621.017500", "173622.507500", "173623.997500", "173625.487500", "173626.977500", "173628.467500", "173629.957500", "173631.447500", "173632.937500", "173634.427500", "173635.917500", "173637.407500", "173638.897500", "173640.387500", "173641.877500", "173643.367500", "173644.857500", "173646.347500", "173647.837500", "173649.327500", "173650.817500", "173652.307500", "173653.797500", "173655.287500", "173656.777500", "173658.267500", "173659.757500", "173701.247500", "173702.737500", "173704.227500", "173705.717500", "173707.207500", "173708.697500", "173710.187500", "173711.677500", "173713.167500", "173714.657500", "173716.147500", "173717.637500", "173719.127500", "173720.617500", "173722.107500", "173723.597500", "173725.087500", "173726.577500", "173728.067500", "173729.557500", "173731.047500", "173732.537500", "173734.027500", "173735.517500", "173737.007500", "173738.497500", "173739.987500", "173741.477500", "173742.967500", "173744.457500", "173745.947500", "173747.437500", "173748.927500", "173750.417500", "173751.907500", "173753.397500", "173754.887500", "173756.377500", "173757.867500", "173759.357500", "173800.847500", "173802.337500", "173803.827500", "173805.317500", "173806.807500", "173808.297500", "173809.787500", "173811.277500", "173812.767500", "173814.257500", "173815.747500", "173817.237500", "173818.727500", "173820.217500", "173821.707500", "173823.197500", "173824.687500", "173826.177500", "173827.667500", "173829.157500", "173830.647500", "173832.137500", "173833.627500", "173835.117500", "173836.607500", "173838.097500", "173839.587500", "173841.077500", "173842.567500", "173844.057500", "173845.547500", "173847.037500", "173848.527500", "173850.017500", "173851.507500", "173852.997500", "173854.487500", "173855.977500", "173857.467500", "173858.957500", "173900.447500", "173901.937500", "173903.427500", "173904.917500", "173906.407500", "173907.897500", "173909.387500", "173910.877500", "173912.367500", "173913.857500", "173915.347500", "173916.837500", "173918.327500", "173919.817500", "173921.307500", "173922.797500", "173924.287500", "173925.777500", "173927.267500", "173928.757500", "173930.247500", "173931.737500", "173933.227500", "173934.717500", "173936.207500", "173937.697500", "173939.187500", "173940.677500", "173942.167500", "173943.657500", "173945.147500", "173946.637500", "173948.127500", "173949.617500", "173951.107500"],
      "ContentTime": ["173010.824000", "173010.828000", "173010.831000", "173010.834000", "173010.837000", "173010.840000", "173010.843000", "173010.846000", "173010.849000", "173010.852000", "173010.855000", "173010.863000", "173010.866000", "173010.869000", "173010.872000", "173010.875000", "173010.878000", "173010.881000", "173010.887000", "173010.889000", "173010.892000", "173010.895000", "173010.898000", "173010.901000", "173010.904000", "173010.907000", "173010.910000", "173010.913000", "173030.787000", "173030.790000", "173030.793000", "173030.803000", "173030.806000", "173030.809000", "173030.812000", "173030.815000", "173030.818000", "173030.821000", "173030.824000", "173030.827000", "173030.830000", "173030.833000", "173030.836000", "173030.838000", "173030.841000", "173030.844000", "173030.847000", "173030.850000", "173030.853000", "173050.786000", "173050.789000", "173050.792000", "173050.795000", "173050.798000", "173050.801000", "173050.804000", "173050.806000", "173050.809000", "173050.812000", "173050.815000", "173050.818000", "173050.821000", "173050.824000", "173050.827000", "173050.836000", "173050.841000", "173050.862000", "173050.865000", "173050.868000", "173110.787000", "173110.790000", "173110.793000", "173110.796000", "173110.799000", "173110.802000", "173110.805000", "173110.808000", "173110.819000", "173110.822000", "173110.825000", "173110.828000", "173110.831000", "173110.834000", "173110.837000", "173110.840000", "173110.843000", "173110.846000", "173110.848000", "173110.851000", "173150.787000", "173150.790000", "173150.793000", "173150.796000", "173150.799000", "173150.812000", "173150.815000", "173150.817000", "173150.821000", "173150.823000", "173150.826000", "173150.829000", "173150.832000", "173150.835000", "173150.838000", "173150.841000", "173150.844000", "173150.847000", "173150.850000", "173150.853000", "173150.856000", "173150.859000", "173150.862000", "173150.865000", "173150.868000", "173150.871000", "173150.874000", "173150.876000", "173150.880000", "173150.883000", "173150.886000", "173150.889000", "173230.787000", "173230.790000", "173230.793000", "173230.796000", "173230.799000", "173230.802000", "173230.805000", "173230.808000", "173230.811000", "173230.814000", "173230.818000", "173230.821000", "173230.824000", "173230.827000", "173230.830000", "173230.833000", "173230.836000", "173230.839000", "173230.842000", "173230.845000", "173230.847000", "173230.850000", "173230.853000", "173230.856000", "173230.859000", "173230.862000", "173230.865000", "173310.786000", "173310.800000", "173310.803000", "173310.806000", "173310.809000", "173310.812000", "173310.814000", "173310.817000", "173310.820000", "173310.823000", "173310.826000", "173310.829000", "173310.832000", "173310.835000", "173310.838000", "173310.841000", "173310.844000", "173310.847000", "173310.850000", "173310.853000", "173310.856000", "173310.859000", "173310.862000", "173310.865000", "173310.868000", "173310.871000", "173310.874000", "173350.787000", "173350.790000", "173350.794000", "173350.797000", "173350.800000", "173350.803000", "173350.806000", "173350.809000", "173350.812000", "173350.815000", "173350.818000", "173350.820000", "173350.823000", "173350.826000", "173350.829000", "173350.832000", "173350.835000", "173350.838000", "173350.841000", "173350.844000", "173350.852000", "173350.855000", "173350.858000", "173350.861000", "173350.864000", "173350.867000", "173430.787000", "173430.790000", "173430.793000", "173430.796000", "173430.799000", "173430.802000", "173430.805000", "173430.808000", "173430.811000", "173430.819000", "173430.822000", "173430.825000", "173430.828000", "173430.831000", "173430.834000", "173430.837000", "173430.840000", "173430.843000", "173430.846000", "173430.849000", "173430.852000", "173430.855000", "173430.858000", "173430.861000", "173430.863000", "173430.866000", "173430.869000", "173510.787000", "173510.790000", "173510.793000", "173510.796000", "173510.799000", "173510.802000", "173510.805000", "173510.808000", "173510.810000", "173510.814000", "173510.817000", "173510.820000", "173510.836000", "173510.839000", "173510.842000", "173510.845000", "173510.848000", "173510.851000", "173510.854000", "173510.857000", "173510.859000", "173510.863000", "173510.865000", "173510.868000", "173510.871000", "173510.874000", "173510.877000", "173550.787000", "173550.790000", "173550.793000", "173550.796000", "173550.799000", "173550.802000", "173550.805000", "173550.808000", "173550.811000", "173550.814000", "173550.817000", "173550.820000", "173550.823000", "173550.826000", "173550.829000", "173550.832000", "173550.835000", "173550.838000", "173550.841000", "173550.844000", "173550.848000", "173550.851000", "173550.854000", "173550.856000", "173550.860000", "173550.863000", "173550.865000", "173630.787000", "173630.790000", "173630.793000", "173630.796000", "173630.799000", "173630.802000", "173630.805000", "173630.808000", "173630.811000", "173630.814000", "173630.817000", "173630.820000", "173630.823000", "173630.826000", "173630.829000", "173630.832000", "173630.835000", "173630.838000", "173630.841000", "173630.844000", "173630.847000", "173630.850000", "173630.853000", "173630.856000", "173630.859000", "173630.862000", "173630.864000", "173710.787000", "173710.791000", "173710.794000", "173710.797000", "173710.800000", "173710.803000", "173710.806000", "173710.809000", "173710.812000", "173710.815000", "173710.818000", "173710.821000", "173710.824000", "173710.827000", "173710.830000", "173710.833000", "173710.836000", "173710.839000", "173710.842000", "173710.845000", "173710.848000", "173710.851000", "173710.854000", "173710.857000", "173710.860000", "173710.863000", "173710.866000", "173750.786000", "173750.789000", "173750.792000", "173750.795000", "173750.798000", "173750.801000", "173750.804000", "173750.807000", "173750.810000", "173750.813000", "173750.816000", "173750.819000", "173750.822000", "173750.825000", "173750.828000", "173750.831000", "173750.834000", "173750.837000", "173750.840000", "173750.843000", "173750.846000", "173750.849000", "173750.852000", "173750.855000", "173750.858000", "173750.861000", "173830.787000", "173830.790000", "173830.793000", "173830.797000", "173830.800000", "173830.803000", "173830.806000", "173830.809000", "173830.812000", "173830.815000", "173830.818000", "173830.821000", "173830.824000", "173830.827000", "173830.830000", "173830.833000", "173830.836000", "173830.839000", "173830.841000", "173830.844000", "173830.847000", "173830.850000", "173830.853000", "173830.856000", "173830.859000", "173830.862000", "173830.883000", "173910.787000", "173910.790000", "173910.793000", "173910.796000", "173910.799000", "173910.802000", "173910.805000", "173910.808000", "173910.811000", "173910.814000", "173910.817000", "173910.820000", "173910.823000", "173910.826000", "173910.829000", "173910.832000", "173910.835000", "173910.838000", "173910.841000", "173910.844000", "173910.846000", "173910.849000", "173910.852000", "173910.855000", "173910.858000", "173910.861000", "173910.864000", "173950.787000", "173950.790000", "173950.793000", "173950.796000", "173950.799000", "173950.802000", "173950.805000", "173950.808000", "173950.811000", "173950.814000", "173950.817000", "173950.820000", "173950.823000", "173950.826000", "173950.829000", "173950.832000", "173950.835000", "173950.838000", "173950.841000", "173950.844000", "173950.847000", "173950.850000", "173950.853000", "173950.855000", "173950.858000", "173950.861000", "173950.864000", "173953.027000", "173953.030000"],
