{
  "AcquisitionMatrixPE": 104,
  "AcquisitionNumber": 1,
  "AcquisitionTime": "17:41:27.487500",
  "BandwidthPerPixelPhaseEncode": 17.17,
  "BaseResolution": 104,
  "BodyPartExamined": "BRAIN",
  "CoilCombinationMethod": "Sum of Squares",
  "ConsistencyInfo": "N4_VE11C_LATEST_20160120",
  "ConversionSoftware": "dcm2niix",
  "ConversionSoftwareVersion": "v1.0.20211006",
  "DerivedVendorReportedEchoSpacing": 0.000560011,
  "DeviceSerialNumber": "167006",
  "DwellTime": 2.1e-06,
  "EchoTime": 0.037,
  "EchoTrainLength": 104,
  "EffectiveEchoSpacing": 0.000560011,
  "FlipAngle": 52,
  "HeudiconvVersion": "0.5.3.post569+g418601f",
  "ImageComments": "Unaliased MB4/PE3/LB",
  "ImageOrientationPatientDICOM": [0.999676, -0.0250015, -0.00479027, 0.0214639, 0.929008, -0.369435],
  "ImageOrientationText": "Tra>Cor(-21.7)>Sag(-0.8)",
  "ImageType": [
    "ORIGINAL",
    "PRIMARY",
    "M",
    "MB",
    "ND",
    "MOSAIC"
],
  "ImagingFrequency": 123.259,
  "InPlanePhaseEncodingDirectionDICOM": "COL",
  "InstitutionAddress": "Chemin Queen-Mary 4565,Montreal,District,CA,H3W 1W5",
  "InstitutionName": "IUGM",
  "InstitutionalDepartmentName": "Department",
  "MRAcquisitionType": "2D",
  "MagneticFieldStrength": 3,
  "Manufacturer": "Siemens",
  "ManufacturersModelName": "Prisma_fit",
  "MatrixCoilMode": "SENSE",
  "Modality": "MR",
  "MultibandAccelerationFactor": 4,
  "PartialFourier": 1,
  "PatientPosition": "HFS",
  "PercentPhaseFOV": 100,
  "PercentSampling": 100,
  "PhaseEncodingDirection": "j",
  "PhaseEncodingSteps": 104,
  "PhaseResolution": 1,
  "PixelBandwidth": 2290,
  "ProcedureStepDescription": "video^friends",
  "ProtocolName": "func_task-friends-s05e12b",
  "PulseSequenceDetails": "%CustomerSeq%\\cmrr_mbep2d_bold",
  "ReceiveCoilActiveElements": "HC1-7;NC1,2",
  "ReceiveCoilName": "HeadNeck_64",
  "ReconMatrixPE": 104,
  "RepetitionTime": 1.49,
  "SAR": 0.0458963,
  "ScanOptions": "FS",
  "ScanningSequence": "EP",
  "SequenceName": "epfid2d1_104",
  "SequenceVariant": "SK\\SS",
  "SeriesDescription": "func_task-friends-s05e12b",
  "SeriesNumber": 11,
  "ShimSetting": [613, -7270, -8835, 378, 12, -406, 17, 3],
  "SliceThickness": 2,
  "SliceTiming": [0, 0.7825, 0.0975, 0.8825, 0.195, 0.98, 0.2925, 1.0775, 0.3925, 1.175, 0.49, 1.2725, 0.5875, 1.3725, 0.685, 0, 0.7825, 0.0975, 0.8825, 0.195, 0.98, 0.2925, 1.0775, 0.3925, 1.175, 0.49, 1.2725, 0.5875, 1.3725, 0.685, 0, 0.7825, 0.0975, 0.8825, 0.195, 0.98, 0.2925, 1.0775, 0.3925, 1.175, 0.49, 1.2725, 0.5875, 1.3725, 0.685, 0, 0.7825, 0.0975, 0.8825, 0.195, 0.98, 0.2925, 1.0775, 0.3925, 1.175, 0.49, 1.2725, 0.5875, 1.3725, 0.685],
  "SoftwareVersions": "syngo MR E11",
  "SpacingBetweenSlices": 2,
  "StationName": "MRC35049",
  "TaskName": "s05e12b",
  "TotalReadoutTime": 0.0576811,
  "TxRefAmp": 259.208,
  "WipMemBlock": "f0f3a6ba-86cf-40ae-aca0-9966316303b3||Sequence: R016 ve11c/master r/e634e98; Dec 19 2017 11:00:25 by eja",
  "dcmmeta_affine": [
    [-1.9993518590927124, 0.04292774572968483, -0.027373291552066803, 98.27679443359375],
    [0.050003014504909515, 1.8580169677734375, -0.7384256720542908, -72.3973159790039],
    [-0.00958054605871439, 0.7388707995414734, 1.8584880828857422, -66.3296127319336],
    [0.0, 0.0, 0.0, 1.0]
],
  "dcmmeta_reorient_transform": [
    [0.0, -1.0, 0.0, 103.0],
    [1.0, 0.0, 0.0, 0.0],
    [0.0, 0.0, 1.0, 0.0],
    [0.0, 0.0, 0.0, 1.0]
],
  "dcmmeta_shape": [104, 104, 60, 480],
  "dcmmeta_slice_dim": 2,
  "dcmmeta_version": 0.6,
  "global": {
    "const": {
      "AcquisitionMatrix": [104, 0, 0, 104],
      "AngioFlag": "N",
      "BitsAllocated": 16,
      "BitsStored": 16,
      "BodyPartExamined": "BRAIN",
      "Columns": 832,
      "EchoNumbers": 1,
      "EchoTime": 37.0,
      "EchoTrainLength": 104,
      "FlipAngle": 52.0,
      "HighBit": 15,
      "ImageOrientationPatient": [0.99967593644747, -0.0250015073716, -0.0047902731688, 0.02146387206865, 0.92900849990866, -0.3694353925834],
      "ImagePositionPatient": [-846.0881344805, -777.09552204502, 282.21036625632],
      "ImageType": [
        "ORIGINAL",
        "PRIMARY",
        "M",
        "MB",
        "ND",
        "MOSAIC"
],
      "ImagedNucleus": "1H",
      "ImagingFrequency": 123.258854,
      "InPlanePhaseEncodingDirection": "COL",
      "MRAcquisitionType": "2D",
      "MagneticFieldStrength": 3.0,
      "Manufacturer": "SIEMENS",
      "ManufacturerModelName": "Prisma_fit",
      "Modality": "MR",
      "NumberOfAverages": 1.0,
      "NumberOfPhaseEncodingSteps": 104,
      "PercentPhaseFieldOfView": 100.0,
      "PercentSampling": 100.0,
      "PerformedProcedureStepStartTime": "172414.440000",
      "PhotometricInterpretation": "MONOCHROME2",
      "PixelBandwidth": 2290.0,
      "PixelRepresentation": 0,
      "PixelSpacing": [2.0, 2.0],
      "ProtocolName": "func_task-friends-s05e12b",
      "RepetitionTime": 1490.0,
      "Rows": 832,
      "SAR": 0.04589625585194,
      "SamplesPerPixel": 1,
      "ScanOptions": "FS",
      "ScanningSequence": "EP",
      "SequenceName": "epfid2d1_104",
      "SequenceVariant": [
        "SK",
        "SS"
],
      "SeriesDescription": "func_task-friends-s05e12b",
      "SeriesNumber": 11,
      "SeriesTime": "174251.983000",
      "SliceLocation": -36.251454942079,
      "SliceThickness": 2.0,
      "SmallestImagePixelValue": 0,
      "SoftwareVersions": "syngo MR E11",
      "SpacingBetweenSlices": 1.9999999507222,
      "SpecificCharacterSet": "ISO_IR 100",
      "StudyID": "1",
      "StudyTime": "172414.332000",
      "TransmitCoilName": "Body",
      "VariableFlipAngleFlag": "N",
      "WindowCenterWidthExplanation": "Algo1",
      "dBdt": 0.0},
    "slices": {}
  },
  "time": {
    "samples": {
      "AcquisitionNumber": [1, 2, 3, 4, 5, 6, 7, 8, 9, 10, 11, 12, 13, 14, 15, 16, 17, 18, 19, 20, 21, 22, 23, 24, 25, 26, 27, 28, 29, 30, 31, 32, 33, 34, 35, 36, 37, 38, 39, 40, 41, 42, 43, 44, 45, 46, 47, 48, 49, 50, 51, 52, 53, 54, 55, 56, 57, 58, 59, 60, 61, 62, 63, 64, 65, 66, 67, 68, 69, 70, 71, 72, 73, 74, 75, 76, 77, 78, 79, 80, 81, 82, 83, 84, 85, 86, 87, 88, 89, 90, 91, 92, 93, 94, 95, 96, 97, 98, 99, 100, 101, 102, 103, 104, 105, 106, 107, 108, 109, 110, 111, 112, 113, 114, 115, 116, 117, 118, 119, 120, 121, 122, 123, 124, 125, 126, 127, 128, 129, 130, 131, 132, 133, 134, 135, 136, 137, 138, 139, 140, 141, 142, 143, 144, 145, 146, 147, 148, 149, 150, 151, 152, 153, 154, 155, 156, 157, 158, 159, 160, 161, 162, 163, 164, 165, 166, 167, 168, 169, 170, 171, 172, 173, 174, 175, 176, 177, 178, 179, 180, 181, 182, 183, 184, 185, 186, 187, 188, 189, 190, 191, 192, 193, 194, 195, 196, 197, 198, 199, 200, 201, 202, 203, 204, 205, 206, 207, 208, 209, 210, 211, 212, 213, 214, 215, 216, 217, 218, 219, 220, 221, 222, 223, 224, 225, 226, 227, 228, 229, 230, 231, 232, 233, 234, 235, 236, 237, 238, 239, 240, 241, 242, 243, 244, 245, 246, 247, 248, 249, 250, 251, 252, 253, 254, 255, 256, 257, 258, 259, 260, 261, 262, 263, 264, 265, 266, 267, 268, 269, 270, 271, 272, 273, 274, 275, 276, 277, 278, 279, 280, 281, 282, 283, 284, 285, 286, 287, 288, 289, 290, 291, 292, 293, 294, 295, 296, 297, 298, 299, 300, 301, 302, 303, 304, 305, 306, 307, 308, 309, 310, 311, 312, 313, 314, 315, 316, 317, 318, 319, 320, 321, 322, 323, 324, 325, 326, 327, 328, 329, 330, 331, 332, 333, 334, 335, 336, 337, 338, 339, 340, 341, 342, 343, 344, 345, 346, 347, 348, 349, 350, 351, 352, 353, 354, 355, 356, 357, 358, 359, 360, 361, 362, 363, 364, 365, 366, 367, 368, 369, 370, 371, 372, 373, 374, 375, 376, 377, 378, 379, 380, 381, 382, 383, 384, 385, 386, 387, 388, 389, 390, 391, 392, 393, 394, 395, 396, 397, 398, 399, 400, 401, 402, 403, 404, 405, 406, 407, 408, 409, 410, 411, 412, 413, 414, 415, 416, 417, 418, 419, 420, 421, 422, 423, 424, 425, 426, 427, 428, 429, 430, 431, 432, 433, 434, 435, 436, 437, 438, 439, 440, 441, 442, 443, 444, 445, 446, 447, 448, 449, 450, 451, 452, 453, 454, 455, 456, 457, 458, 459, 460, 461, 462, 463, 464, 465, 466, 467, 468, 469, 470, 471, 472, 473, 474, 475, 476, 477, 478, 479, 480],
      "AcquisitionTime": ["174127.487500", "174128.977500", "174130.467500", "174131.957500", "174133.447500", "174134.937500", "174136.427500", "174137.917500", "174139.407500", "174140.897500", "174142.387500", "174143.877500", "174145.367500", "174146.857500", "174148.347500", "174149.837500", "174151.327500", "174152.817500", "174154.307500", "174155.797500", "174157.287500", "174158.777500", "174200.267500", "174201.757500", "174203.247500", "174204.737500", "174206.227500", "174207.717500", "174209.207500", "174210.697500", "174212.187500", "174213.677500", "174215.167500", "174216.657500", "174218.147500", "174219.637500", "174221.127500", "174222.617500", "174224.107500", "174225.597500", "174227.087500", "174228.577500", "174230.067500", "174231.557500", "174233.047500", "174234.537500", "174236.027500", "174237.517500", "174239.007500", "174240.497500", "174241.987500", "174243.477500", "174244.967500", "174246.457500", "174247.947500", "174249.437500", "174250.927500", "174252.417500", "174253.907500", "174255.397500", "174256.887500", "174258.377500", "174259.867500", "174301.357500", "174302.847500", "174304.337500", "174305.827500", "174307.317500", "174308.807500", "174310.297500", "174311.787500", "174313.277500", "174314.767500", "174316.257500", "174317.747500", "174319.237500", "174320.727500", "174322.217500", "174323.707500", "174325.197500", "174326.687500", "174328.177500", "174329.667500", "174331.157500", "174332.647500", "174334.137500", "174335.627500", "174337.117500", "174338.607500", "174340.097500", "174341.587500", "174343.077500", "174344.567500", "174346.057500", "174347.547500", "174349.037500", "174350.527500", "174352.017500", "174353.507500", "174354.997500", "174356.487500", "174357.977500", "174359.467500", "174400.957500", "174402.447500", "174403.937500", "174405.427500", "174406.917500", "174408.407500", "174409.897500", "174411.387500", "174412.877500", "174414.367500", "174415.857500", "174417.347500", "174418.837500", "174420.327500", "174421.817500", "174423.307500", "174424.797500", "174426.287500", "174427.777500", "174429.267500", "174430.757500", "174432.247500", "174433.737500", "174435.227500", "174436.717500", "174438.207500", "174439.697500", "174441.187500", "174442.677500", "174444.167500", "174445.657500", "174447.147500", "174448.637500", "174450.127500", "174451.617500", "174453.107500", "174454.597500", "174456.087500", "174457.577500", "174459.067500", "174500.557500", "174502.047500", "174503.537500", "174505.027500", "174506.517500", "174508.007500", "174509.497500", "174510.987500", "174512.477500", "174513.967500", "174515.457500", "174516.947500", "174518.437500", "174519.927500", "174521.417500", "174522.907500", "174524.397500", "174525.887500", "174527.377500", "174528.867500", "174530.357500", "174531.847500", "174533.337500", "174534.827500", "174536.317500", "174537.807500", "174539.297500", "174540.787500", "174542.277500", "174543.767500", "174545.257500", "174546.747500", "174548.237500", "174549.727500", "174551.217500", "174552.707500", "174554.197500", "174555.687500", "174557.177500", "174558.667500", "174600.157500", "174601.647500", "174603.137500", "174604.627500", "174606.117500", "174607.607500", "174609.097500", "174610.587500", "174612.077500", "174613.567500", "174615.057500", "174616.547500", "174618.037500", "174619.527500", "174621.017500", "174622.507500", "174623.997500", "174625.487500", "174626.977500", "174628.467500", "174629.957500", "174631.447500", "174632.937500", "174634.427500", "174635.917500", "174637.407500", "174638.897500", "174640.387500", "174641.877500", "174643.367500", "174644.857500", "174646.347500", "174647.837500", "174649.327500", "174650.817500", "174652.307500", "174653.797500", "174655.287500", "174656.777500", "174658.267500", "174659.757500", "174701.247500", "174702.737500", "174704.227500", "174705.717500", "174707.207500", "174708.697500", "174710.187500", "174711.677500", "174713.167500", "174714.657500", "174716.147500", "174717.637500", "174719.127500", "174720.617500", "174722.107500", "174723.597500", "174725.087500", "174726.577500", "174728.067500", "174729.557500", "174731.047500", "174732.537500", "174734.027500", "174735.517500", "174737.007500", "174738.497500", "174739.987500", "174741.477500", "174742.967500", "174744.457500", "174745.947500", "174747.437500", "174748.927500", "174750.417500", "174751.907500", "174753.397500", "174754.887500", "174756.377500", "174757.867500", "174759.357500", "174800.847500", "174802.337500", "174803.827500", "174805.317500", "174806.807500", "174808.297500", "174809.787500", "174811.277500", "174812.767500", "174814.257500", "174815.747500", "174817.237500", "174818.727500", "174820.217500", "174821.707500", "174823.197500", "174824.687500", "174826.177500", "174827.667500", "174829.157500", "174830.647500", "174832.137500", "174833.627500", "174835.117500", "174836.607500", "174838.097500", "174839.587500", "174841.077500", "174842.567500", "174844.057500", "174845.547500", "174847.037500", "174848.527500", "174850.017500", "174851.507500", "174852.997500", "174854.487500", "174855.977500", "174857.467500", "174858.957500", "174900.447500", "174901.937500", "174903.427500", "174904.917500", "174906.407500", "174907.897500", "174909.387500", "174910.877500", "174912.367500", "174913.857500", "174915.347500", "174916.837500", "174918.327500", "174919.817500", "174921.307500", "174922.797500", "174924.287500", "174925.777500", "174927.267500", "174928.757500", "174930.247500", "174931.737500", "174933.227500", "174934.717500", "174936.207500", "174937.697500", "174939.187500", "174940.677500", "174942.167500", "174943.657500", "174945.147500", "174946.637500", "174948.127500", "174949.617500", "174951.107500", "174952.597500", "174954.087500", "174955.577500", "174957.067500", "174958.557500", "175000.047500", "175001.537500", "175003.027500", "175004.517500", "175006.007500", "175007.497500", "175008.987500", "175010.477500", "175011.967500", "175013.457500", "175014.947500", "175016.437500", "175017.927500", "175019.417500", "175020.907500", "175022.397500", "175023.887500", "175025.377500", "175026.867500", "175028.357500", "175029.847500", "175031.337500", "175032.827500", "175034.317500", "175035.807500", "175037.297500", "175038.787500", "175040.277500", "175041.767500", "175043.257500", "175044.747500", "175046.237500", "175047.727500", "175049.217500", "175050.707500", "175052.197500", "175053.687500", "175055.177500", "175056.667500", "175058.157500", "175059.647500", "175101.137500", "175102.627500", "175104.117500", "175105.607500", "175107.097500", "175108.587500", "175110.077500", "175111.567500", "175113.057500", "175114.547500", "175116.037500", "175117.527500", "175119.017500", "175120.507500", "175121.997500", "175123.487500", "175124.977500", "175126.467500", "175127.957500", "175129.447500", "175130.937500", "175132.427500", "175133.917500", "175135.407500", "175136.897500", "175138.387500", "175139.877500", "175141.367500", "175142.857500", "175144.347500", "175145.837500", "175147.327500", "175148.817500", "175150.307500", "175151.797500", "175153.287500", "175154.777500", "175156.267500", "175157.757500", "175159.247500", "175200.737500", "175202.227500", "175203.717500", "175205.207500", "175206.697500", "175208.187500", "175209.677500", "175211.167500", "175212.657500", "175214.147500", "175215.637500", "175217.127500", "175218.617500", "175220.107500", "175221.597500", "175223.087500", "175224.577500", "175226.067500", "175227.557500", "175229.047500", "175230.537500", "175232.027500", "175233.517500", "175235.007500", "175236.497500", "175237.987500", "175239.477500", "175240.967500", "175242.457500", "175243.947500", "175245.437500", "175246.927500", "175248.417500", "175249.907500", "175251.397500", "175252.887500", "175254.377500", "175255.867500", "175257.357500", "175258.847500", "175300.337500", "175301.827500", "175303.317500", "175304.807500", "175306.297500", "175307.787500", "175309.277500", "175310.767500", "175312.257500", "175313.747500", "175315.237500", "175316.727500", "175318.217500", "175319.707500", "175321.197500"],
      "ContentTime": ["174251.986000", "174251.994000", "174251.997000", "174252.001000", "174252.004000", "174252.007000", "174252.010000", "174252.013000", "174252.016000", "174252.019000", "174252.022000", "174252.025000", "174252.028000", "174252.031000", "174252.034000", "174252.037000", "174252.040000", "174252.043000", "174252.046000", "174252.049000", "174252.052000", "174252.055000", "174252.058000", "174252.061000", "174252.063000", "174252.066000", "174252.069000", "174252.072000", "174252.075000", "174252.078000", "174331.954000", "174331.957000", "174331.960000", "174331.963000", "174331.966000", "174331.969000", "174331.972000", "174331.975000", "174331.978000", "174331.981000", "174331.983000", "174331.986000", "174331.989000", "174331.992000", "174331.995000", "174331.998000", "174332.007000", "174332.010000", "174332.013000", "174332.016000", "174332.019000", "174332.022000", "174332.025000", "174332.027000", "174332.031000", "174332.033000", "174332.036000", "174332.039000", "174332.042000", "174332.045000", "174332.048000", "174332.051000", "174332.054000", "174332.057000", "174332.060000", "174332.063000", "174332.066000", "174332.069000", "174332.071000", "174332.074000", "174351.954000", "174351.958000", "174351.961000", "174351.964000", "174351.967000", "174351.970000", "174351.973000", "174351.976000", "174351.979000", "174351.982000", "174351.985000", "174351.988000", "174351.991000", "174351.994000", "174351.996000", "174351.999000", "174352.002000", "174352.005000", "174352.008000", "174352.011000", "174411.954000", "174411.957000", "174411.960000", "174411.963000", "174411.966000", "174411.969000", "174411.972000", "174411.975000", "174411.978000", "174411.981000", "174411.984000", "174411.987000", "174411.990000", "174411.993000", "174411.996000", "174412.000000", "174412.003000", "174412.006000", "174412.009000", "174412.022000", "174451.955000", "174451.958000", "174451.961000", "174451.964000", "174451.967000", "174451.970000", "174451.973000", "174451.983000", "174451.986000", "174451.989000", "174451.992000", "174451.995000", "174451.998000", "174452.001000", "174452.004000", "174452.007000", "174452.010000", "174452.013000", "174452.016000", "174452.019000", "174452.022000", "174452.025000", "174452.028000", "174452.044000", "174452.047000", "174452.050000", "174452.053000", "174531.955000", "174531.958000", "174531.961000", "174531.964000", "174531.967000", "174531.970000", "174531.973000", "174531.976000", "174531.979000", "174531.982000", "174531.985000", "174531.988000", "174531.991000", "174531.994000", "174531.996000", "174532.001000", "174532.004000", "174532.006000", "174532.009000", "174532.013000", "174532.016000", "174532.019000", "174532.022000", "174532.025000", "174532.027000", "174532.051000", "174611.954000", "174611.957000", "174611.960000", "174611.963000", "174611.966000", "174611.969000", "174611.972000", "174611.975000", "174611.978000", "174611.981000", "174611.984000", "174611.987000", "174611.990000", "174611.993000", "174611.996000", "174612.000000", "174612.003000", "174612.006000", "174612.008000", "174612.012000", "174612.014000", "174612.017000", "174612.020000", "174612.023000", "174612.026000", "174612.029000", "174612.032000", "174651.954000", "174651.957000", "174651.960000", "174651.963000", "174651.966000", "174651.969000", "174651.972000", "174651.975000", "174651.978000", "174651.981000", "174651.984000", "174651.987000", "174651.990000", "174651.993000", "174651.996000", "174652.000000", "174652.003000", "174652.006000", "174652.009000", "174652.012000", "174652.014000", "174652.017000", "174652.020000", "174652.023000", "174652.026000", "174652.029000", "174652.032000", "174711.955000", "174711.958000", "174711.961000", "174711.964000", "174711.967000", "174711.970000", "174711.973000", "174711.976000", "174711.979000", "174711.982000", "174711.985000", "174711.994000", "174711.997000", "174712.000000", "174751.955000", "174751.958000", "174751.961000", "174751.964000", "174751.967000", "174751.970000", "174751.973000", "174751.976000", "174751.979000", "174751.982000", "174751.985000", "174751.988000", "174751.991000", "174751.994000", "174751.997000", "174752.001000", "174752.004000", "174752.007000", "174752.010000", "174752.013000", "174752.016000", "174752.019000", "174752.022000", "174752.025000", "174752.028000", "174752.031000", "174831.954000", "174831.957000", "174831.960000", "174831.963000", "174831.966000", "174831.969000", "174831.972000", "174831.975000", "174831.978000", "174831.981000", "174831.984000", "174831.987000", "174831.990000", "174831.993000", "174831.996000", "174831.999000", "174832.002000", "174832.005000", "174832.008000", "174832.011000", "174832.014000", "174832.017000", "174832.019000", "174832.022000", "174832.025000", "174832.028000", "174832.031000", "174911.954000", "174911.957000", "174911.960000", "174911.963000", "174911.966000", "174911.969000", "174911.972000", "174911.975000", "174911.978000", "174911.981000", "174911.984000", "174911.987000", "174911.990000", "174911.993000", "174911.996000", "174911.999000", "174912.002000", "174912.005000", "174912.008000", "174912.011000", "174912.014000", "174912.017000", "174912.020000", "174912.022000", "174912.026000", "174912.029000", "174912.031000", "174951.955000", "174951.958000", "174951.961000", "174951.964000", "174951.967000", "174951.970000", "174951.973000", "174951.976000", "174951.979000", "174951.982000", "174952.000000", "174952.004000", "174952.006000", "174952.009000", "174952.012000", "174952.015000", "174952.018000", "174952.021000", "174952.024000", "174952.027000", "174952.030000", "174952.033000", "174952.036000", "174952.039000", "174952.042000", "174952.045000", "174952.048000", "175031.954000", "175031.957000", "175031.960000", "175031.963000", "175031.966000", "175031.969000", "175031.972000", "175031.975000", "175031.978000", "175031.981000", "175031.984000", "175031.987000", "175031.990000", "175031.993000", "175031.996000", "175032.000000", "175032.003000", "175032.006000", "175032.009000", "175032.012000", "175032.014000", "175032.017000", "175032.025000", "175032.027000", "175032.030000", "175032.033000", "175032.036000", "175111.954000", "175111.957000", "175111.960000", "175111.963000", "175111.966000", "175111.969000", "175111.972000", "175111.975000", "175111.978000", "175111.981000", "175111.984000", "175111.987000", "175111.990000", "175111.993000", "175111.996000", "175112.000000", "175112.003000", "175112.006000", "175112.008000", "175112.011000", "175112.014000", "175112.017000", "175112.020000", "175112.023000", "175112.026000", "175112.029000", "175112.032000", "175151.955000", "175151.958000", "175151.961000", "175151.964000", "175151.967000", "175151.970000", "175151.973000", "175151.976000", "175151.979000", "175151.982000", "175151.985000", "175151.988000", "175151.991000", "175151.994000", "175151.997000", "175152.000000", "175152.003000", "175152.006000", "175152.009000", "175152.012000", "175152.015000", "175152.018000", "175152.021000", "175152.024000", "175152.027000", "175152.029000", "175231.955000", "175231.958000", "175231.961000", "175231.964000", "175231.967000", "175231.970000", "175231.973000", "175231.976000", "175231.979000", "175231.982000", "175231.985000", "175231.988000", "175231.991000", "175231.994000", "175232.004000", "175232.007000", "175232.010000", "175232.013000", "175232.016000", "175232.019000", "175232.022000", "175232.025000", "175232.028000", "175232.031000", "175232.034000", "175232.037000", "175232.040000", "175311.954000", "175311.957000", "175311.960000", "175311.963000", "175311.966000", "175311.969000", "175311.972000", "175311.975000", "175311.978000", "175311.981000", "175311.984000", "175311.987000", "175311.990000", "175311.993000", "175311.996000", "175312.000000", "175312.003000", "175312.006000", "175312.009000", "175312.012000", "175312.015000", "175312.018000", "175312.021000", "175312.024000", "175312.027000", "175312.030000", "175312.033000", "175322.883000", "175322.886000", "175322.889000", "175322.892000", "175322.895000", "175322.898000", "175322.901000", "175322.909000"],
