{
  "AcquisitionMatrixPE": 104,
  "AcquisitionNumber": 1,
  "AcquisitionTime": "15:34:33.325000",
  "BandwidthPerPixelPhaseEncode": 17.17,
  "BaseResolution": 104,
  "BodyPartExamined": "BRAIN",
  "CoilString": "HC1-7;NC1_2",
  "ConsistencyInfo": "N4_VE11C_LATEST_20160120",
  "ConversionSoftware": "dcm2niix",
  "ConversionSoftwareVersion": "v1.0.20190902",
  "DerivedVendorReportedEchoSpacing": 0.000560011,
  "DeviceSerialNumber": "167006",
  "DwellTime": 2.1e-06,
  "EchoTime": 0.037,
  "EchoTrainLength": 104,
  "EffectiveEchoSpacing": 0.000560011,
  "FlipAngle": 52,
  "ImageComments": "Unaliased_MB4_PE3_LB",
  "ImageOrientationPatientDICOM": [0.999186, -0.0402095, 0.003179, 0.0390835, 0.945692, -0.322705],
  "ImageType": [
    "ORIGINAL",
    "PRIMARY",
    "M",
    "MB",
    "ND",
    "MOSAIC"
],
  "ImagingFrequency": 123.259,
  "InPlanePhaseEncodingDirectionDICOM": "COL",
  "InstitutionAddress": "Chemin_Queen-Mary_4565_Montreal_District_CA_H3W_1W5",
  "InstitutionName": "IUGM",
  "InstitutionalDepartmentName": "Department",
  "MRAcquisitionType": "2D",
  "MagneticFieldStrength": 3,
  "Manufacturer": "Siemens",
  "ManufacturersModelName": "Prisma_fit",
  "Modality": "MR",
  "MultibandAccelerationFactor": 4,
  "PartialFourier": 1,
  "PatientPosition": "HFS",
  "PercentPhaseFOV": 100,
  "PhaseEncodingDirection": "j",
  "PhaseEncodingSteps": 104,
  "PhaseResolution": 1,
  "PixelBandwidth": 2290,
  "ProcedureStepDescription": "video_friends",
  "ProtocolName": "func_task-friends-s05e23b",
  "PulseSequenceDetails": "%CustomerSeq%_cmrr_mbep2d_bold",
  "ReceiveCoilActiveElements": "HC1-7;NC1,2",
  "ReceiveCoilName": "HeadNeck_64",
  "ReconMatrixPE": 104,
  "RepetitionTime": 1.49,
  "SAR": 0.0300032,
  "ScanOptions": "FS",
  "ScanningSequence": "EP",
  "SequenceName": "epfid2d1_104",
  "SequenceVariant": "SK_SS",
  "SeriesDescription": "func_task-friends-s05e23b",
  "SeriesNumber": 11,
  "ShimSetting": [638, -7257, -8834, 638, 24, -232, -33, -2],
  "SliceThickness": 2,
  "SliceTiming": [0, 0.785, 0.1, 0.8825, 0.1975, 0.98, 0.295, 1.08, 0.3925, 1.1775, 0.49, 1.275, 0.59, 1.3725, 0.6875, 0, 0.785, 0.1, 0.8825, 0.1975, 0.98, 0.295, 1.08, 0.3925, 1.1775, 0.49, 1.275, 0.59, 1.3725, 0.6875, 0, 0.785, 0.1, 0.8825, 0.1975, 0.98, 0.295, 1.08, 0.3925, 1.1775, 0.49, 1.275, 0.59, 1.3725, 0.6875, 0, 0.785, 0.1, 0.8825, 0.1975, 0.98, 0.295, 1.08, 0.3925, 1.1775, 0.49, 1.275, 0.59, 1.3725, 0.6875],
  "SoftwareVersions": "syngo_MR_E11",
  "SpacingBetweenSlices": 2,
  "StationName": "MRC35049",
  "TaskName": "s05e23b",
  "TotalReadoutTime": 0.0576811,
  "TxRefAmp": 218,
  "WipMemBlock": "a359c3dc-a37f-427e-9a33-c336c266dd6a||Sequence: R016 ve11c/master r/e634e98; Dec 19 2017 11:00:25 by eja",
  "dcmmeta_affine": [
    [-1.9983724355697632, 0.07816696912050247, -0.019938912242650986, 98.47528076171875],
    [0.08041897416114807, 1.891384482383728, -0.6451336741447449, -79.20326232910156],
    [0.006357998121529818, 0.645410418510437, 1.8929883241653442, -64.99724578857422],
    [0.0, 0.0, 0.0, 1.0]
],
  "dcmmeta_reorient_transform": [
    [0.0, -1.0, 0.0, 103.0],
    [1.0, 0.0, 0.0, 0.0],
    [0.0, 0.0, 1.0, 0.0],
    [0.0, 0.0, 0.0, 1.0]
],
  "dcmmeta_shape": [104, 104, 60, 458],
  "dcmmeta_slice_dim": 2,
  "dcmmeta_version": 0.6,
  "global": {
    "const": {
      "AcquisitionMatrix": [104, 0, 0, 104],
      "AngioFlag": "N",
      "BitsAllocated": 16,
      "BitsStored": 16,
      "BodyPartExamined": "BRAIN",
      "Columns": 832,
      "EchoNumbers": 1,
      "EchoTime": 37.0,
      "EchoTrainLength": 104,
      "FlipAngle": 52.0,
      "HighBit": 15,
      "ImageOrientationPatient": [0.99918621447675, -0.0402094860057, 0.00317899902021, 0.03908348423023, 0.94569224459103, -0.3227052211862],
      "ImagePositionPatient": [-862.38681621649, -774.80078783341, 234.09512065982],
      "ImageType": [
        "ORIGINAL",
        "PRIMARY",
        "M",
        "MB",
        "ND",
        "MOSAIC"
],
      "ImagedNucleus": "1H",
      "ImagingFrequency": 123.25896,
      "InPlanePhaseEncodingDirection": "COL",
      "MRAcquisitionType": "2D",
      "MagneticFieldStrength": 3.0,
      "Manufacturer": "SIEMENS",
      "ManufacturerModelName": "Prisma_fit",
      "Modality": "MR",
      "NumberOfAverages": 1.0,
      "NumberOfPhaseEncodingSteps": 104,
      "PercentPhaseFieldOfView": 100.0,
      "PercentSampling": 100.0,
      "PerformedProcedureStepStartTime": "150457.849000",
      "PhotometricInterpretation": "MONOCHROME2",
      "PixelBandwidth": 2290.0,
      "PixelRepresentation": 0,
      "PixelSpacing": [2.0, 2.0],
      "ProtocolName": "func_task-friends-s05e23b",
      "RepetitionTime": 1490.0,
      "Rows": 832,
      "SAR": 0.03000316438305,
      "SamplesPerPixel": 1,
      "ScanOptions": "FS",
      "ScanningSequence": "EP",
      "SequenceName": "epfid2d1_104",
      "SequenceVariant": [
        "SK",
        "SS"
],
      "SeriesDescription": "func_task-friends-s05e23b",
      "SeriesNumber": 11,
      "SeriesTime": "153548.685000",
      "SliceLocation": -36.952911437046,
      "SliceThickness": 2.0,
      "SmallestImagePixelValue": 0,
      "SoftwareVersions": "syngo MR E11",
      "SpacingBetweenSlices": 1.999999965166,
      "SpecificCharacterSet": "ISO_IR 100",
      "StudyID": "1",
      "StudyTime": "150457.807000",
      "TransmitCoilName": "Body",
      "VariableFlipAngleFlag": "N",
      "WindowCenterWidthExplanation": "Algo1",
      "dBdt": 0.0},
    "slices": {}
  },
  "time": {
    "samples": {
      "AcquisitionNumber": [1, 2, 3, 4, 5, 6, 7, 8, 9, 10, 11, 12, 13, 14, 15, 16, 17, 18, 19, 20, 21, 22, 23, 24, 25, 26, 27, 28, 29, 30, 31, 32, 33, 34, 35, 36, 37, 38, 39, 40, 41, 42, 43, 44, 45, 46, 47, 48, 49, 50, 51, 52, 53, 54, 55, 56, 57, 58, 59, 60, 61, 62, 63, 64, 65, 66, 67, 68, 69, 70, 71, 72, 73, 74, 75, 76, 77, 78, 79, 80, 81, 82, 83, 84, 85, 86, 87, 88, 89, 90, 91, 92, 93, 94, 95, 96, 97, 98, 99, 100, 101, 102, 103, 104, 105, 106, 107, 108, 109, 110, 111, 112, 113, 114, 115, 116, 117, 118, 119, 120, 121, 122, 123, 124, 125, 126, 127, 128, 129, 130, 131, 132, 133, 134, 135, 136, 137, 138, 139, 140, 141, 142, 143, 144, 145, 146, 147, 148, 149, 150, 151, 152, 153, 154, 155, 156, 157, 158, 159, 160, 161, 162, 163, 164, 165, 166, 167, 168, 169, 170, 171, 172, 173, 174, 175, 176, 177, 178, 179, 180, 181, 182, 183, 184, 185, 186, 187, 188, 189, 190, 191, 192, 193, 194, 195, 196, 197, 198, 199, 200, 201, 202, 203, 204, 205, 206, 207, 208, 209, 210, 211, 212, 213, 214, 215, 216, 217, 218, 219, 220, 221, 222, 223, 224, 225, 226, 227, 228, 229, 230, 231, 232, 233, 234, 235, 236, 237, 238, 239, 240, 241, 242, 243, 244, 245, 246, 247, 248, 249, 250, 251, 252, 253, 254, 255, 256, 257, 258, 259, 260, 261, 262, 263, 264, 265, 266, 267, 268, 269, 270, 271, 272, 273, 274, 275, 276, 277, 278, 279, 280, 281, 282, 283, 284, 285, 286, 287, 288, 289, 290, 291, 292, 293, 294, 295, 296, 297, 298, 299, 300, 301, 302, 303, 304, 305, 306, 307, 308, 309, 310, 311, 312, 313, 314, 315, 316, 317, 318, 319, 320, 321, 322, 323, 324, 325, 326, 327, 328, 329, 330, 331, 332, 333, 334, 335, 336, 337, 338, 339, 340, 341, 342, 343, 344, 345, 346, 347, 348, 349, 350, 351, 352, 353, 354, 355, 356, 357, 358, 359, 360, 361, 362, 363, 364, 365, 366, 367, 368, 369, 370, 371, 372, 373, 374, 375, 376, 377, 378, 379, 380, 381, 382, 383, 384, 385, 386, 387, 388, 389, 390, 391, 392, 393, 394, 395, 396, 397, 398, 399, 400, 401, 402, 403, 404, 405, 406, 407, 408, 409, 410, 411, 412, 413, 414, 415, 416, 417, 418, 419, 420, 421, 422, 423, 424, 425, 426, 427, 428, 429, 430, 431, 432, 433, 434, 435, 436, 437, 438, 439, 440, 441, 442, 443, 444, 445, 446, 447, 448, 449, 450, 451, 452, 453, 454, 455, 456, 457, 458],
      "AcquisitionTime": ["153433.325000", "153434.815000", "153436.305000", "153437.795000", "153439.285000", "153440.775000", "153442.265000", "153443.755000", "153445.245000", "153446.735000", "153448.225000", "153449.715000", "153451.205000", "153452.695000", "153454.185000", "153455.675000", "153457.165000", "153458.655000", "153500.145000", "153501.635000", "153503.125000", "153504.615000", "153506.105000", "153507.595000", "153509.085000", "153510.575000", "153512.065000", "153513.555000", "153515.045000", "153516.535000", "153518.025000", "153519.515000", "153521.005000", "153522.495000", "153523.985000", "153525.475000", "153526.965000", "153528.455000", "153529.945000", "153531.435000", "153532.925000", "153534.415000", "153535.905000", "153537.395000", "153538.885000", "153540.375000", "153541.865000", "153543.355000", "153544.845000", "153546.335000", "153547.825000", "153549.315000", "153550.805000", "153552.295000", "153553.785000", "153555.275000", "153556.765000", "153558.255000", "153559.745000", "153601.235000", "153602.725000", "153604.215000", "153605.705000", "153607.195000", "153608.685000", "153610.175000", "153611.665000", "153613.155000", "153614.645000", "153616.135000", "153617.625000", "153619.115000", "153620.605000", "153622.095000", "153623.585000", "153625.075000", "153626.565000", "153628.055000", "153629.545000", "153631.035000", "153632.525000", "153634.015000", "153635.505000", "153636.995000", "153638.485000", "153639.975000", "153641.465000", "153642.955000", "153644.445000", "153645.935000", "153647.425000", "153648.915000", "153650.405000", "153651.895000", "153653.385000", "153654.875000", "153656.365000", "153657.855000", "153659.345000", "153700.835000", "153702.325000", "153703.815000", "153705.305000", "153706.795000", "153708.285000", "153709.775000", "153711.265000", "153712.755000", "153714.245000", "153715.735000", "153717.225000", "153718.715000", "153720.205000", "153721.695000", "153723.185000", "153724.675000", "153726.165000", "153727.655000", "153729.145000", "153730.635000", "153732.125000", "153733.615000", "153735.105000", "153736.595000", "153738.085000", "153739.575000", "153741.065000", "153742.555000", "153744.045000", "153745.535000", "153747.025000", "153748.515000", "153750.005000", "153751.495000", "153752.985000", "153754.475000", "153755.965000", "153757.455000", "153758.945000", "153800.435000", "153801.925000", "153803.415000", "153804.905000", "153806.395000", "153807.885000", "153809.375000", "153810.865000", "153812.355000", "153813.845000", "153815.335000", "153816.825000", "153818.315000", "153819.805000", "153821.295000", "153822.785000", "153824.275000", "153825.765000", "153827.255000", "153828.745000", "153830.235000", "153831.725000", "153833.215000", "153834.705000", "153836.195000", "153837.685000", "153839.175000", "153840.665000", "153842.155000", "153843.645000", "153845.135000", "153846.625000", "153848.115000", "153849.605000", "153851.095000", "153852.585000", "153854.075000", "153855.565000", "153857.055000", "153858.545000", "153900.035000", "153901.525000", "153903.015000", "153904.505000", "153905.995000", "153907.485000", "153908.975000", "153910.465000", "153911.955000", "153913.445000", "153914.935000", "153916.425000", "153917.915000", "153919.405000", "153920.895000", "153922.385000", "153923.875000", "153925.365000", "153926.855000", "153928.345000", "153929.835000", "153931.325000", "153932.815000", "153934.305000", "153935.795000", "153937.285000", "153938.775000", "153940.265000", "153941.755000", "153943.245000", "153944.735000", "153946.225000", "153947.715000", "153949.205000", "153950.695000", "153952.185000", "153953.675000", "153955.165000", "153956.655000", "153958.145000", "153959.635000", "154001.125000", "154002.615000", "154004.105000", "154005.595000", "154007.085000", "154008.575000", "154010.065000", "154011.555000", "154013.045000", "154014.535000", "154016.025000", "154017.515000", "154019.005000", "154020.495000", "154021.985000", "154023.475000", "154024.965000", "154026.455000", "154027.945000", "154029.435000", "154030.925000", "154032.415000", "154033.905000", "154035.395000", "154036.885000", "154038.375000", "154039.865000", "154041.355000", "154042.845000", "154044.335000", "154045.825000", "154047.315000", "154048.805000", "154050.295000", "154051.785000", "154053.275000", "154054.765000", "154056.255000", "154057.745000", "154059.235000", "154100.725000", "154102.215000", "154103.705000", "154105.195000", "154106.685000", "154108.175000", "154109.665000", "154111.155000", "154112.645000", "154114.135000", "154115.625000", "154117.115000", "154118.605000", "154120.095000", "154121.585000", "154123.075000", "154124.565000", "154126.055000", "154127.545000", "154129.035000", "154130.525000", "154132.015000", "154133.505000", "154134.995000", "154136.485000", "154137.975000", "154139.465000", "154140.955000", "154142.445000", "154143.935000", "154145.425000", "154146.915000", "154148.405000", "154149.895000", "154151.385000", "154152.875000", "154154.365000", "154155.855000", "154157.345000", "154158.835000", "154200.325000", "154201.815000", "154203.305000", "154204.795000", "154206.285000", "154207.775000", "154209.265000", "154210.755000", "154212.245000", "154213.735000", "154215.225000", "154216.715000", "154218.205000", "154219.695000", "154221.185000", "154222.675000", "154224.165000", "154225.655000", "154227.145000", "154228.635000", "154230.125000", "154231.615000", "154233.105000", "154234.595000", "154236.085000", "154237.575000", "154239.065000", "154240.555000", "154242.045000", "154243.535000", "154245.025000", "154246.515000", "154248.005000", "154249.495000", "154250.985000", "154252.475000", "154253.965000", "154255.455000", "154256.945000", "154258.435000", "154259.925000", "154301.415000", "154302.905000", "154304.395000", "154305.885000", "154307.375000", "154308.865000", "154310.355000", "154311.845000", "154313.335000", "154314.825000", "154316.315000", "154317.805000", "154319.295000", "154320.785000", "154322.275000", "154323.765000", "154325.255000", "154326.745000", "154328.235000", "154329.725000", "154331.215000", "154332.705000", "154334.195000", "154335.685000", "154337.175000", "154338.665000", "154340.155000", "154341.645000", "154343.135000", "154344.625000", "154346.115000", "154347.605000", "154349.095000", "154350.585000", "154352.075000", "154353.565000", "154355.055000", "154356.545000", "154358.035000", "154359.525000", "154401.015000", "154402.505000", "154403.995000", "154405.485000", "154406.975000", "154408.465000", "154409.955000", "154411.445000", "154412.935000", "154414.425000", "154415.915000", "154417.405000", "154418.895000", "154420.385000", "154421.875000", "154423.365000", "154424.855000", "154426.345000", "154427.835000", "154429.325000", "154430.815000", "154432.305000", "154433.795000", "154435.285000", "154436.775000", "154438.265000", "154439.755000", "154441.245000", "154442.735000", "154444.225000", "154445.715000", "154447.205000", "154448.695000", "154450.185000", "154451.675000", "154453.165000", "154454.655000", "154456.145000", "154457.635000", "154459.125000", "154500.615000", "154502.105000", "154503.595000", "154505.085000", "154506.575000", "154508.065000", "154509.555000", "154511.045000", "154512.535000", "154514.025000", "154515.515000", "154517.005000", "154518.495000", "154519.985000", "154521.475000", "154522.965000", "154524.455000", "154525.945000", "154527.435000", "154528.925000", "154530.415000", "154531.905000", "154533.395000", "154534.885000", "154536.375000", "154537.865000", "154539.355000", "154540.845000", "154542.335000", "154543.825000", "154545.315000", "154546.805000", "154548.295000", "154549.785000", "154551.275000", "154552.765000", "154554.255000"],
      "ContentTime": ["153548.687000", "153548.691000", "153548.693000", "153548.696000", "153548.699000", "153548.702000", "153548.713000", "153548.716000", "153548.719000", "153548.722000", "153548.725000", "153548.728000", "153548.731000", "153548.733000", "153548.742000", "153548.745000", "153548.748000", "153548.751000", "153548.754000", "153548.757000", "153608.658000", "153608.661000", "153608.664000", "153608.667000", "153608.670000", "153608.673000", "153608.676000", "153608.679000", "153608.681000", "153608.684000", "153608.687000", "153608.690000", "153608.693000", "153608.696000", "153608.699000", "153608.702000", "153608.705000", "153608.708000", "153608.711000", "153608.730000", "153628.658000", "153628.661000", "153628.664000", "153628.667000", "153628.670000", "153628.673000", "153628.675000", "153628.678000", "153628.681000", "153628.684000", "153628.687000", "153628.690000", "153628.693000", "153628.697000", "153628.700000", "153628.703000", "153628.706000", "153628.710000", "153628.713000", "153628.716000", "153648.658000", "153648.661000", "153648.664000", "153648.667000", "153648.670000", "153648.673000", "153648.675000", "153648.678000", "153648.681000", "153648.684000", "153648.687000", "153648.690000", "153648.693000", "153648.696000", "153648.699000", "153648.702000", "153648.705000", "153648.708000", "153648.711000", "153648.720000", "153648.723000", "153708.658000", "153708.661000", "153708.664000", "153708.667000", "153708.670000", "153708.673000", "153708.676000", "153708.679000", "153708.681000", "153708.684000", "153708.687000", "153708.690000", "153708.693000", "153708.696000", "153708.699000", "153708.702000", "153708.705000", "153708.708000", "153708.711000", "153708.714000", "153748.658000", "153748.661000", "153748.677000", "153748.680000", "153748.683000", "153748.686000", "153748.689000", "153748.692000", "153748.703000", "153748.706000", "153748.709000", "153748.712000", "153748.715000", "153748.718000", "153748.721000", "153748.724000", "153748.726000", "153748.729000", "153748.732000", "153748.735000", "153748.738000", "153748.741000", "153748.744000", "153748.747000", "153748.750000", "153748.753000", "153748.756000", "153748.759000", "153748.762000", "153828.658000", "153828.661000", "153828.664000", "153828.667000", "153828.670000", "153828.673000", "153828.676000", "153828.679000", "153828.682000", "153828.684000", "153828.687000", "153828.690000", "153828.693000", "153828.696000", "153828.699000", "153828.702000", "153828.705000", "153828.708000", "153828.711000", "153828.714000", "153828.717000", "153828.720000", "153828.723000", "153828.726000", "153828.729000", "153828.732000", "153828.735000", "153908.658000", "153908.661000", "153908.664000", "153908.667000", "153908.670000", "153908.673000", "153908.676000", "153908.679000", "153908.682000", "153908.684000", "153908.687000", "153908.690000", "153908.693000", "153908.696000", "153908.699000", "153908.702000", "153908.705000", "153908.708000", "153908.711000", "153908.714000", "153908.722000", "153908.725000", "153908.727000", "153908.730000", "153908.733000", "153908.736000", "153908.739000", "153948.658000", "153948.661000", "153948.664000", "153948.667000", "153948.670000", "153948.673000", "153948.676000", "153948.679000", "153948.682000", "153948.684000", "153948.687000", "153948.690000", "153948.693000", "153948.704000", "153948.707000", "153948.710000", "153948.712000", "153948.715000", "153948.718000", "153948.721000", "153948.724000", "153948.727000", "153948.730000", "153948.733000", "153948.736000", "153948.739000", "153948.742000", "154028.658000", "154028.661000", "154028.664000", "154028.667000", "154028.670000", "154028.673000", "154028.676000", "154028.679000", "154028.682000", "154028.685000", "154028.688000", "154028.691000", "154028.694000", "154028.697000", "154028.699000", "154028.702000", "154028.705000", "154028.708000", "154028.711000", "154028.714000", "154028.717000", "154028.720000", "154028.723000", "154028.726000", "154028.729000", "154028.732000", "154028.735000", "154108.658000", "154108.661000", "154108.664000", "154108.667000", "154108.670000", "154108.673000", "154108.676000", "154108.679000", "154108.682000", "154108.685000", "154108.688000", "154108.691000", "154108.694000", "154108.697000", "154108.699000", "154108.702000", "154108.705000", "154108.708000", "154108.711000", "154108.714000", "154108.717000", "154108.720000", "154108.723000", "154108.726000", "154108.729000", "154108.732000", "154108.734000", "154148.658000", "154148.661000", "154148.664000", "154148.667000", "154148.670000", "154148.673000", "154148.676000", "154148.679000", "154148.682000", "154148.685000", "154148.688000", "154148.691000", "154148.694000", "154148.696000", "154148.699000", "154148.702000", "154148.705000", "154148.708000", "154148.711000", "154148.714000", "154148.717000", "154148.720000", "154148.723000", "154148.726000", "154148.729000", "154148.732000", "154228.658000", "154228.661000", "154228.664000", "154228.667000", "154228.670000", "154228.673000", "154228.676000", "154228.679000", "154228.682000", "154228.694000", "154228.697000", "154228.700000", "154228.703000", "154228.706000", "154228.708000", "154228.711000", "154228.714000", "154228.717000", "154228.720000", "154228.723000", "154228.726000", "154228.729000", "154228.732000", "154228.735000", "154228.738000", "154228.741000", "154228.746000", "154308.658000", "154308.661000", "154308.664000", "154308.667000", "154308.670000", "154308.674000", "154308.677000", "154308.680000", "154308.683000", "154308.686000", "154308.689000", "154308.692000", "154308.695000", "154308.697000", "154308.700000", "154308.703000", "154308.706000", "154308.709000", "154308.712000", "154308.715000", "154308.718000", "154308.721000", "154308.724000", "154308.727000", "154308.730000", "154308.733000", "154308.736000", "154348.658000", "154348.661000", "154348.664000", "154348.667000", "154348.670000", "154348.673000", "154348.676000", "154348.679000", "154348.682000", "154348.685000", "154348.688000", "154348.691000", "154348.693000", "154348.696000", "154348.699000", "154348.702000", "154348.705000", "154348.708000", "154348.711000", "154348.714000", "154348.717000", "154348.720000", "154348.723000", "154348.726000", "154348.729000", "154348.732000", "154348.735000", "154428.658000", "154428.661000", "154428.664000", "154428.667000", "154428.670000", "154428.673000", "154428.676000", "154428.679000", "154428.682000", "154428.685000", "154428.688000", "154428.691000", "154428.694000", "154428.697000", "154428.699000", "154428.702000", "154428.705000", "154428.708000", "154428.711000", "154428.714000", "154428.717000", "154428.720000", "154428.723000", "154428.726000", "154428.729000", "154428.732000", "154428.735000", "154508.658000", "154508.661000", "154508.664000", "154508.667000", "154508.670000", "154508.673000", "154508.676000", "154508.679000", "154508.682000", "154508.685000", "154508.688000", "154508.691000", "154508.694000", "154508.697000", "154508.700000", "154508.703000", "154508.706000", "154508.708000", "154508.711000", "154508.714000", "154508.717000", "154508.720000", "154508.723000", "154508.726000", "154508.729000", "154508.732000", "154508.735000", "154548.659000", "154548.664000", "154548.667000", "154548.671000", "154548.674000", "154548.677000", "154548.680000", "154548.683000", "154548.686000", "154548.689000", "154548.692000", "154548.695000", "154548.698000", "154548.701000", "154548.704000", "154548.707000", "154548.709000", "154548.712000", "154548.715000", "154548.718000", "154548.721000", "154548.724000", "154548.727000", "154548.730000", "154548.733000", "154548.736000", "154556.181000", "154556.185000", "154556.188000", "154556.190000", "154556.193000", "154556.197000"],
