{
  "AcquisitionMatrixPE": 104,
  "AcquisitionNumber": 1,
  "AcquisitionTime": "16:44:42.022500",
  "BandwidthPerPixelPhaseEncode": 17.17,
  "BaseResolution": 104,
  "BodyPartExamined": "BRAIN",
  "CoilString": "HC1-7;NC1_2",
  "ConsistencyInfo": "N4_VE11C_LATEST_20160120",
  "ConversionSoftware": "dcm2niix",
  "ConversionSoftwareVersion": "v1.0.20190902",
  "DerivedVendorReportedEchoSpacing": 0.000560011,
  "DeviceSerialNumber": "167006",
  "DwellTime": 2.1e-06,
  "EchoTime": 0.037,
  "EchoTrainLength": 104,
  "EffectiveEchoSpacing": 0.000560011,
  "FlipAngle": 52,
  "ImageComments": "Unaliased_MB4_PE3_LB",
  "ImageOrientationPatientDICOM": [0.998426, -0.0555837, 0.00754388, 0.0547719, 0.937029, -0.344929],
  "ImageType": [
    "ORIGINAL",
    "PRIMARY",
    "M",
    "MB",
    "ND",
    "MOSAIC"
],
  "ImagingFrequency": 123.259,
  "InPlanePhaseEncodingDirectionDICOM": "COL",
  "InstitutionAddress": "Chemin_Queen-Mary_4565_Montreal_District_CA_H3W_1W5",
  "InstitutionName": "IUGM",
  "InstitutionalDepartmentName": "Department",
  "MRAcquisitionType": "2D",
  "MagneticFieldStrength": 3,
  "Manufacturer": "Siemens",
  "ManufacturersModelName": "Prisma_fit",
  "Modality": "MR",
  "MultibandAccelerationFactor": 4,
  "PartialFourier": 1,
  "PatientPosition": "HFS",
  "PercentPhaseFOV": 100,
  "PhaseEncodingDirection": "j",
  "PhaseEncodingSteps": 104,
  "PhaseResolution": 1,
  "PixelBandwidth": 2290,
  "ProcedureStepDescription": "video_friends",
  "ProtocolName": "func_task-friends-s03e17a",
  "PulseSequenceDetails": "%CustomerSeq%_cmrr_mbep2d_bold",
  "ReceiveCoilActiveElements": "HC1-7;NC1,2",
  "ReceiveCoilName": "HeadNeck_64",
  "ReconMatrixPE": 104,
  "RepetitionTime": 1.49,
  "SAR": 0.0323135,
  "ScanOptions": "FS",
  "ScanningSequence": "EP",
  "SequenceName": "epfid2d1_104",
  "SequenceVariant": "SK_SS",
  "SeriesDescription": "func_task-friends-s03e17a",
  "SeriesNumber": 13,
  "ShimSetting": [633, -7256, -8837, 610, 20, -205, -63, -8],
  "SliceThickness": 2,
  "SliceTiming": [0, 0.785, 0.0975, 0.8825, 0.195, 0.98, 0.295, 1.0775, 0.3925, 1.175, 0.49, 1.275, 0.5875, 1.3725, 0.685, 0, 0.785, 0.0975, 0.8825, 0.195, 0.98, 0.295, 1.0775, 0.3925, 1.175, 0.49, 1.275, 0.5875, 1.3725, 0.685, 0, 0.785, 0.0975, 0.8825, 0.195, 0.98, 0.295, 1.0775, 0.3925, 1.175, 0.49, 1.275, 0.5875, 1.3725, 0.685, 0, 0.785, 0.0975, 0.8825, 0.195, 0.98, 0.295, 1.0775, 0.3925, 1.175, 0.49, 1.275, 0.5875, 1.3725, 0.685],
  "SoftwareVersions": "syngo_MR_E11",
  "SpacingBetweenSlices": 2,
  "StationName": "MRC35049",
  "TaskName": "s03e17a",
  "TotalReadoutTime": 0.0576811,
  "TxRefAmp": 221.982,
  "WipMemBlock": "0a96d824-ee90-462b-a49d-0ce7943d42fa||Sequence: R016 ve11c/master r/e634e98; Dec 19 2017 11:00:25 by eja",
  "dcmmeta_affine": [
    [-1.9968510866165161, 0.10954376310110092, -0.024207189679145813, 97.44151306152344],
    [0.11116737127304077, 1.874058723449707, -0.6895983219146729, -77.92752075195312],
    [0.015087750740349293, 0.689858078956604, 1.8771969079971313, -68.77281188964844],
    [0.0, 0.0, 0.0, 1.0]
],
  "dcmmeta_reorient_transform": [
    [0.0, -1.0, 0.0, 103.0],
    [1.0, 0.0, 0.0, 0.0],
    [0.0, 0.0, 1.0, 0.0],
    [0.0, 0.0, 0.0, 1.0]
],
  "dcmmeta_shape": [104, 104, 60, 454],
  "dcmmeta_slice_dim": 2,
  "dcmmeta_version": 0.6,
  "global": {
    "const": {
      "AcquisitionMatrix": [104, 0, 0, 104],
      "AngioFlag": "N",
      "BitsAllocated": 16,
      "BitsStored": 16,
      "BodyPartExamined": "BRAIN",
      "Columns": 832,
      "EchoNumbers": 1,
      "EchoTime": 37.0,
      "EchoTrainLength": 104,
      "FlipAngle": 52.0,
      "HighBit": 15,
      "ImageOrientationPatient": [0.99842553253271, -0.0555836840203, 0.00754387549674, 0.05477188131431, 0.93702934361157, -0.3449290510064],
      "ImagePositionPatient": [-875.45223655047, -756.79296456119, 247.8989774376],
      "ImageType": [
        "ORIGINAL",
        "PRIMARY",
        "M",
        "MB",
        "ND",
        "MOSAIC"
],
      "ImagedNucleus": "1H",
      "ImagingFrequency": 123.259333,
      "InPlanePhaseEncodingDirection": "COL",
      "MRAcquisitionType": "2D",
      "MagneticFieldStrength": 3.0,
      "Manufacturer": "SIEMENS",
      "ManufacturerModelName": "Prisma_fit",
      "Modality": "MR",
      "NumberOfAverages": 1.0,
      "NumberOfPhaseEncodingSteps": 104,
      "PercentPhaseFieldOfView": 100.0,
      "PercentSampling": 100.0,
      "PerformedProcedureStepStartTime": "160720.582000",
      "PhotometricInterpretation": "MONOCHROME2",
      "PixelBandwidth": 2290.0,
      "PixelRepresentation": 0,
      "PixelSpacing": [2.0, 2.0],
      "ProtocolName": "func_task-friends-s03e17a",
      "RepetitionTime": 1490.0,
      "Rows": 832,
      "SAR": 0.03231354502609,
      "SamplesPerPixel": 1,
      "ScanOptions": "FS",
      "ScanningSequence": "EP",
      "SequenceName": "epfid2d1_104",
      "SequenceVariant": [
        "SK",
        "SS"
],
      "SeriesDescription": "func_task-friends-s03e17a",
      "SeriesNumber": 13,
      "SeriesTime": "164554.786000",
      "SliceLocation": -38.860105720512,
      "SliceThickness": 2.0,
      "SmallestImagePixelValue": 0,
      "SoftwareVersions": "syngo MR E11",
      "SpacingBetweenSlices": 1.9999999837522,
      "SpecificCharacterSet": "ISO_IR 100",
      "StudyID": "1",
      "StudyTime": "160720.495000",
      "TransmitCoilName": "Body",
      "VariableFlipAngleFlag": "N",
      "WindowCenterWidthExplanation": "Algo1",
      "dBdt": 0.0},
    "slices": {}
  },
  "time": {
    "samples": {
      "AcquisitionNumber": [1, 2, 3, 4, 5, 6, 7, 8, 9, 10, 11, 12, 13, 14, 15, 16, 17, 18, 19, 20, 21, 22, 23, 24, 25, 26, 27, 28, 29, 30, 31, 32, 33, 34, 35, 36, 37, 38, 39, 40, 41, 42, 43, 44, 45, 46, 47, 48, 49, 50, 51, 52, 53, 54, 55, 56, 57, 58, 59, 60, 61, 62, 63, 64, 65, 66, 67, 68, 69, 70, 71, 72, 73, 74, 75, 76, 77, 78, 79, 80, 81, 82, 83, 84, 85, 86, 87, 88, 89, 90, 91, 92, 93, 94, 95, 96, 97, 98, 99, 100, 101, 102, 103, 104, 105, 106, 107, 108, 109, 110, 111, 112, 113, 114, 115, 116, 117, 118, 119, 120, 121, 122, 123, 124, 125, 126, 127, 128, 129, 130, 131, 132, 133, 134, 135, 136, 137, 138, 139, 140, 141, 142, 143, 144, 145, 146, 147, 148, 149, 150, 151, 152, 153, 154, 155, 156, 157, 158, 159, 160, 161, 162, 163, 164, 165, 166, 167, 168, 169, 170, 171, 172, 173, 174, 175, 176, 177, 178, 179, 180, 181, 182, 183, 184, 185, 186, 187, 188, 189, 190, 191, 192, 193, 194, 195, 196, 197, 198, 199, 200, 201, 202, 203, 204, 205, 206, 207, 208, 209, 210, 211, 212, 213, 214, 215, 216, 217, 218, 219, 220, 221, 222, 223, 224, 225, 226, 227, 228, 229, 230, 231, 232, 233, 234, 235, 236, 237, 238, 239, 240, 241, 242, 243, 244, 245, 246, 247, 248, 249, 250, 251, 252, 253, 254, 255, 256, 257, 258, 259, 260, 261, 262, 263, 264, 265, 266, 267, 268, 269, 270, 271, 272, 273, 274, 275, 276, 277, 278, 279, 280, 281, 282, 283, 284, 285, 286, 287, 288, 289, 290, 291, 292, 293, 294, 295, 296, 297, 298, 299, 300, 301, 302, 303, 304, 305, 306, 307, 308, 309, 310, 311, 312, 313, 314, 315, 316, 317, 318, 319, 320, 321, 322, 323, 324, 325, 326, 327, 328, 329, 330, 331, 332, 333, 334, 335, 336, 337, 338, 339, 340, 341, 342, 343, 344, 345, 346, 347, 348, 349, 350, 351, 352, 353, 354, 355, 356, 357, 358, 359, 360, 361, 362, 363, 364, 365, 366, 367, 368, 369, 370, 371, 372, 373, 374, 375, 376, 377, 378, 379, 380, 381, 382, 383, 384, 385, 386, 387, 388, 389, 390, 391, 392, 393, 394, 395, 396, 397, 398, 399, 400, 401, 402, 403, 404, 405, 406, 407, 408, 409, 410, 411, 412, 413, 414, 415, 416, 417, 418, 419, 420, 421, 422, 423, 424, 425, 426, 427, 428, 429, 430, 431, 432, 433, 434, 435, 436, 437, 438, 439, 440, 441, 442, 443, 444, 445, 446, 447, 448, 449, 450, 451, 452, 453, 454],
      "AcquisitionTime": ["164442.022500", "164443.512500", "164445.002500", "164446.492500", "164447.982500", "164449.472500", "164450.962500", "164452.452500", "164453.942500", "164455.432500", "164456.922500", "164458.412500", "164459.902500", "164501.392500", "164502.882500", "164504.372500", "164505.862500", "164507.352500", "164508.842500", "164510.332500", "164511.822500", "164513.312500", "164514.802500", "164516.292500", "164517.782500", "164519.272500", "164520.762500", "164522.252500", "164523.742500", "164525.232500", "164526.722500", "164528.212500", "164529.702500", "164531.192500", "164532.682500", "164534.172500", "164535.662500", "164537.152500", "164538.642500", "164540.132500", "164541.622500", "164543.112500", "164544.602500", "164546.092500", "164547.582500", "164549.072500", "164550.562500", "164552.052500", "164553.542500", "164555.032500", "164556.522500", "164558.012500", "164559.502500", "164600.992500", "164602.482500", "164603.972500", "164605.462500", "164606.952500", "164608.442500", "164609.932500", "164611.422500", "164612.912500", "164614.402500", "164615.892500", "164617.382500", "164618.872500", "164620.362500", "164621.852500", "164623.342500", "164624.832500", "164626.322500", "164627.812500", "164629.302500", "164630.792500", "164632.282500", "164633.772500", "164635.262500", "164636.752500", "164638.242500", "164639.732500", "164641.222500", "164642.712500", "164644.202500", "164645.692500", "164647.182500", "164648.672500", "164650.162500", "164651.652500", "164653.142500", "164654.632500", "164656.122500", "164657.612500", "164659.102500", "164700.592500", "164702.082500", "164703.572500", "164705.062500", "164706.552500", "164708.042500", "164709.532500", "164711.022500", "164712.512500", "164714.002500", "164715.492500", "164716.982500", "164718.472500", "164719.962500", "164721.452500", "164722.942500", "164724.432500", "164725.922500", "164727.412500", "164728.902500", "164730.392500", "164731.882500", "164733.372500", "164734.862500", "164736.352500", "164737.842500", "164739.332500", "164740.822500", "164742.312500", "164743.802500", "164745.292500", "164746.782500", "164748.272500", "164749.762500", "164751.252500", "164752.742500", "164754.232500", "164755.722500", "164757.212500", "164758.702500", "164800.192500", "164801.682500", "164803.172500", "164804.662500", "164806.152500", "164807.642500", "164809.132500", "164810.622500", "164812.112500", "164813.602500", "164815.092500", "164816.582500", "164818.072500", "164819.562500", "164821.052500", "164822.542500", "164824.032500", "164825.522500", "164827.012500", "164828.502500", "164829.992500", "164831.482500", "164832.972500", "164834.462500", "164835.952500", "164837.442500", "164838.932500", "164840.422500", "164841.912500", "164843.402500", "164844.892500", "164846.382500", "164847.872500", "164849.362500", "164850.852500", "164852.342500", "164853.832500", "164855.322500", "164856.812500", "164858.302500", "164859.792500", "164901.282500", "164902.772500", "164904.262500", "164905.752500", "164907.242500", "164908.732500", "164910.222500", "164911.712500", "164913.202500", "164914.692500", "164916.182500", "164917.672500", "164919.162500", "164920.652500", "164922.142500", "164923.632500", "164925.122500", "164926.612500", "164928.102500", "164929.592500", "164931.082500", "164932.572500", "164934.062500", "164935.552500", "164937.042500", "164938.532500", "164940.022500", "164941.512500", "164943.002500", "164944.492500", "164945.982500", "164947.472500", "164948.962500", "164950.452500", "164951.942500", "164953.432500", "164954.922500", "164956.412500", "164957.902500", "164959.392500", "165000.882500", "165002.372500", "165003.862500", "165005.352500", "165006.842500", "165008.332500", "165009.822500", "165011.312500", "165012.802500", "165014.292500", "165015.782500", "165017.272500", "165018.762500", "165020.252500", "165021.742500", "165023.232500", "165024.722500", "165026.212500", "165027.702500", "165029.192500", "165030.682500", "165032.172500", "165033.662500", "165035.152500", "165036.642500", "165038.132500", "165039.622500", "165041.112500", "165042.602500", "165044.092500", "165045.582500", "165047.072500", "165048.562500", "165050.052500", "165051.542500", "165053.032500", "165054.522500", "165056.012500", "165057.502500", "165058.992500", "165100.482500", "165101.972500", "165103.462500", "165104.952500", "165106.442500", "165107.932500", "165109.422500", "165110.912500", "165112.402500", "165113.892500", "165115.382500", "165116.872500", "165118.362500", "165119.852500", "165121.342500", "165122.832500", "165124.322500", "165125.812500", "165127.302500", "165128.792500", "165130.282500", "165131.772500", "165133.262500", "165134.752500", "165136.242500", "165137.732500", "165139.222500", "165140.712500", "165142.202500", "165143.692500", "165145.182500", "165146.672500", "165148.162500", "165149.652500", "165151.142500", "165152.632500", "165154.122500", "165155.612500", "165157.102500", "165158.592500", "165200.082500", "165201.572500", "165203.062500", "165204.552500", "165206.042500", "165207.532500", "165209.022500", "165210.512500", "165212.002500", "165213.492500", "165214.982500", "165216.472500", "165217.962500", "165219.452500", "165220.942500", "165222.432500", "165223.922500", "165225.412500", "165226.902500", "165228.392500", "165229.882500", "165231.372500", "165232.862500", "165234.352500", "165235.842500", "165237.332500", "165238.822500", "165240.312500", "165241.802500", "165243.292500", "165244.782500", "165246.272500", "165247.762500", "165249.252500", "165250.742500", "165252.232500", "165253.722500", "165255.212500", "165256.702500", "165258.192500", "165259.682500", "165301.172500", "165302.662500", "165304.152500", "165305.642500", "165307.132500", "165308.622500", "165310.112500", "165311.602500", "165313.092500", "165314.582500", "165316.072500", "165317.562500", "165319.052500", "165320.542500", "165322.032500", "165323.522500", "165325.012500", "165326.502500", "165327.992500", "165329.482500", "165330.972500", "165332.462500", "165333.952500", "165335.442500", "165336.932500", "165338.422500", "165339.912500", "165341.402500", "165342.892500", "165344.382500", "165345.872500", "165347.362500", "165348.852500", "165350.342500", "165351.832500", "165353.322500", "165354.812500", "165356.302500", "165357.792500", "165359.282500", "165400.772500", "165402.262500", "165403.752500", "165405.242500", "165406.732500", "165408.222500", "165409.712500", "165411.202500", "165412.692500", "165414.182500", "165415.672500", "165417.162500", "165418.652500", "165420.142500", "165421.632500", "165423.122500", "165424.612500", "165426.102500", "165427.592500", "165429.082500", "165430.572500", "165432.062500", "165433.552500", "165435.042500", "165436.532500", "165438.022500", "165439.512500", "165441.002500", "165442.492500", "165443.982500", "165445.472500", "165446.962500", "165448.452500", "165449.942500", "165451.432500", "165452.922500", "165454.412500", "165455.902500", "165457.392500", "165458.882500", "165500.372500", "165501.862500", "165503.352500", "165504.842500", "165506.332500", "165507.822500", "165509.312500", "165510.802500", "165512.292500", "165513.782500", "165515.272500", "165516.762500", "165518.252500", "165519.742500", "165521.232500", "165522.722500", "165524.212500", "165525.702500", "165527.192500", "165528.682500", "165530.172500", "165531.662500", "165533.152500", "165534.642500", "165536.132500", "165537.622500", "165539.112500", "165540.602500", "165542.092500", "165543.582500", "165545.072500", "165546.562500", "165548.052500", "165549.542500", "165551.032500", "165552.522500", "165554.012500", "165555.502500", "165556.992500"],
      "ContentTime": ["164554.789000", "164554.793000", "164554.804000", "164554.807000", "164554.810000", "164554.813000", "164554.816000", "164554.819000", "164554.822000", "164554.834000", "164554.838000", "164554.841000", "164554.844000", "164554.847000", "164554.850000", "164554.853000", "164554.856000", "164554.859000", "164554.867000", "164614.750000", "164614.757000", "164614.760000", "164614.763000", "164614.766000", "164614.769000", "164614.773000", "164614.776000", "164614.779000", "164614.782000", "164614.785000", "164614.788000", "164614.791000", "164614.794000", "164614.797000", "164614.800000", "164614.803000", "164614.806000", "164614.809000", "164614.812000", "164634.750000", "164634.753000", "164634.756000", "164634.759000", "164634.770000", "164634.773000", "164634.776000", "164634.779000", "164634.782000", "164634.785000", "164634.788000", "164634.791000", "164634.794000", "164634.797000", "164634.800000", "164634.803000", "164634.806000", "164634.809000", "164634.812000", "164634.815000", "164634.818000", "164654.750000", "164654.753000", "164654.756000", "164654.759000", "164654.762000", "164654.765000", "164654.768000", "164654.771000", "164654.774000", "164654.777000", "164654.780000", "164654.784000", "164654.786000", "164654.789000", "164654.792000", "164654.796000", "164654.799000", "164654.801000", "164654.804000", "164654.816000", "164714.750000", "164714.753000", "164714.756000", "164714.759000", "164714.762000", "164714.765000", "164714.768000", "164714.771000", "164714.774000", "164714.777000", "164714.780000", "164714.783000", "164714.786000", "164714.789000", "164714.792000", "164714.795000", "164714.798000", "164714.801000", "164714.804000", "164714.807000", "164754.750000", "164754.753000", "164754.756000", "164754.759000", "164754.762000", "164754.765000", "164754.768000", "164754.771000", "164754.774000", "164754.777000", "164754.780000", "164754.784000", "164754.786000", "164754.789000", "164754.792000", "164754.796000", "164754.799000", "164754.802000", "164754.805000", "164754.808000", "164754.811000", "164754.814000", "164754.817000", "164754.820000", "164754.823000", "164754.826000", "164754.829000", "164754.832000", "164834.750000", "164834.753000", "164834.756000", "164834.759000", "164834.762000", "164834.766000", "164834.769000", "164834.772000", "164834.775000", "164834.778000", "164834.781000", "164834.784000", "164834.787000", "164834.790000", "164834.793000", "164834.796000", "164834.799000", "164834.802000", "164834.805000", "164834.808000", "164834.811000", "164834.814000", "164834.817000", "164834.820000", "164834.823000", "164834.827000", "164834.829000", "164914.750000", "164914.753000", "164914.756000", "164914.759000", "164914.762000", "164914.766000", "164914.769000", "164914.772000", "164914.775000", "164914.778000", "164914.781000", "164914.784000", "164914.787000", "164914.790000", "164914.793000", "164914.796000", "164914.799000", "164914.802000", "164914.805000", "164914.808000", "164914.819000", "164914.822000", "164914.825000", "164914.828000", "164914.831000", "164914.834000", "164914.837000", "164954.750000", "164954.753000", "164954.756000", "164954.759000", "164954.762000", "164954.765000", "164954.768000", "164954.772000", "164954.774000", "164954.778000", "164954.781000", "164954.784000", "164954.787000", "164954.790000", "164954.793000", "164954.796000", "164954.799000", "164954.802000", "164954.805000", "164954.808000", "164954.811000", "164954.814000", "164954.817000", "164954.820000", "164954.823000", "164954.826000", "164954.829000", "165034.750000", "165034.753000", "165034.756000", "165034.759000", "165034.763000", "165034.766000", "165034.769000", "165034.772000", "165034.775000", "165034.778000", "165034.781000", "165034.784000", "165034.787000", "165034.790000", "165034.793000", "165034.797000", "165034.800000", "165034.803000", "165034.806000", "165034.809000", "165034.812000", "165034.815000", "165034.819000", "165034.821000", "165034.824000", "165034.827000", "165034.831000", "165114.750000", "165114.753000", "165114.756000", "165114.768000", "165114.771000", "165114.774000", "165114.777000", "165114.780000", "165114.783000", "165114.786000", "165114.789000", "165114.792000", "165114.795000", "165114.798000", "165114.801000", "165114.804000", "165114.807000", "165114.810000", "165114.813000", "165114.817000", "165114.820000", "165114.823000", "165114.826000", "165114.829000", "165114.832000", "165114.835000", "165154.750000", "165154.753000", "165154.756000", "165154.759000", "165154.763000", "165154.766000", "165154.769000", "165154.772000", "165154.775000", "165154.778000", "165154.781000", "165154.784000", "165154.787000", "165154.790000", "165154.793000", "165154.796000", "165154.799000", "165154.802000", "165154.805000", "165154.828000", "165154.831000", "165154.834000", "165154.837000", "165154.841000", "165154.844000", "165154.847000", "165154.849000", "165234.750000", "165234.753000", "165234.757000", "165234.760000", "165234.763000", "165234.766000", "165234.769000", "165234.772000", "165234.775000", "165234.778000", "165234.781000", "165234.784000", "165234.787000", "165234.790000", "165234.794000", "165234.797000", "165234.800000", "165234.803000", "165234.806000", "165234.809000", "165234.812000", "165234.815000", "165234.818000", "165234.821000", "165234.824000", "165234.827000", "165234.830000", "165314.750000", "165314.753000", "165314.756000", "165314.759000", "165314.762000", "165314.766000", "165314.769000", "165314.772000", "165314.775000", "165314.778000", "165314.781000", "165314.784000", "165314.787000", "165314.790000", "165314.793000", "165314.796000", "165314.799000", "165314.802000", "165314.805000", "165314.808000", "165314.811000", "165314.815000", "165314.818000", "165314.821000", "165314.824000", "165314.827000", "165314.830000", "165354.750000", "165354.753000", "165354.756000", "165354.759000", "165354.763000", "165354.766000", "165354.769000", "165354.772000", "165354.775000", "165354.778000", "165354.781000", "165354.784000", "165354.787000", "165354.790000", "165354.793000", "165354.796000", "165354.799000", "165354.802000", "165354.805000", "165354.808000", "165354.812000", "165354.815000", "165354.817000", "165354.821000", "165354.824000", "165354.827000", "165354.830000", "165434.750000", "165434.753000", "165434.756000", "165434.760000", "165434.763000", "165434.766000", "165434.769000", "165434.772000", "165434.775000", "165434.778000", "165434.781000", "165434.784000", "165434.787000", "165434.790000", "165434.793000", "165434.796000", "165434.799000", "165434.802000", "165434.805000", "165434.808000", "165434.811000", "165434.814000", "165434.817000", "165434.821000", "165434.824000", "165434.827000", "165434.830000", "165514.751000", "165514.754000", "165514.757000", "165514.760000", "165514.764000", "165514.767000", "165514.771000", "165514.774000", "165514.777000", "165514.780000", "165514.784000", "165514.787000", "165514.790000", "165514.793000", "165514.796000", "165514.799000", "165514.802000", "165514.805000", "165514.808000", "165514.811000", "165514.814000", "165514.817000", "165514.820000", "165514.823000", "165514.826000", "165514.829000", "165554.750000", "165554.753000", "165554.757000", "165554.760000", "165554.763000", "165554.766000", "165554.769000", "165554.772000", "165554.775000", "165554.778000", "165554.781000", "165554.784000", "165554.787000", "165554.790000", "165554.793000", "165554.796000", "165554.799000", "165554.802000", "165554.805000", "165554.808000", "165554.812000", "165554.814000", "165554.818000", "165554.821000", "165554.824000", "165554.827000", "165554.830000", "165559.522000", "165559.525000", "165559.528000", "165559.532000"],
