{
  "AcquisitionMatrixPE": 104,
  "AcquisitionNumber": 1,
  "AcquisitionTime": "17:20:57.047500",
  "BandwidthPerPixelPhaseEncode": 17.17,
  "BaseResolution": 104,
  "BodyPartExamined": "BRAIN",
  "CoilString": "HC1-7;NC1_2",
  "ConsistencyInfo": "N4_VE11C_LATEST_20160120",
  "ConversionSoftware": "dcm2niix",
  "ConversionSoftwareVersion": "v1.0.20190902",
  "DerivedVendorReportedEchoSpacing": 0.000560011,
  "DeviceSerialNumber": "167006",
  "DwellTime": 2.1e-06,
  "EchoTime": 0.037,
  "EchoTrainLength": 104,
  "EffectiveEchoSpacing": 0.000560011,
  "FlipAngle": 52,
  "ImageComments": "Unaliased_MB4_PE3_LB",
  "ImageOrientationPatientDICOM": [0.998426, -0.0555837, 0.00754388, 0.0547719, 0.937029, -0.344929],
  "ImageType": [
    "ORIGINAL",
    "PRIMARY",
    "M",
    "MB",
    "ND",
    "MOSAIC"
],
  "ImagingFrequency": 123.259,
  "InPlanePhaseEncodingDirectionDICOM": "COL",
  "InstitutionAddress": "Chemin_Queen-Mary_4565_Montreal_District_CA_H3W_1W5",
  "InstitutionName": "IUGM",
  "InstitutionalDepartmentName": "Department",
  "MRAcquisitionType": "2D",
  "MagneticFieldStrength": 3,
  "Manufacturer": "Siemens",
  "ManufacturersModelName": "Prisma_fit",
  "Modality": "MR",
  "MultibandAccelerationFactor": 4,
  "PartialFourier": 1,
  "PatientPosition": "HFS",
  "PercentPhaseFOV": 100,
  "PhaseEncodingDirection": "j",
  "PhaseEncodingSteps": 104,
  "PhaseResolution": 1,
  "PixelBandwidth": 2290,
  "ProcedureStepDescription": "video_friends",
  "ProtocolName": "func_task-friends-s03e18b",
  "PulseSequenceDetails": "%CustomerSeq%_cmrr_mbep2d_bold",
  "ReceiveCoilActiveElements": "HC1-7;NC1,2",
  "ReceiveCoilName": "HeadNeck_64",
  "ReconMatrixPE": 104,
  "RepetitionTime": 1.49,
  "SAR": 0.032318,
  "ScanOptions": "FS",
  "ScanningSequence": "EP",
  "SequenceName": "epfid2d1_104",
  "SequenceVariant": "SK_SS",
  "SeriesDescription": "func_task-friends-s03e18b",
  "SeriesNumber": 19,
  "ShimSetting": [633, -7256, -8837, 610, 20, -205, -63, -8],
  "SliceThickness": 2,
  "SliceTiming": [0, 0.785, 0.0975, 0.8825, 0.195, 0.98, 0.295, 1.0775, 0.3925, 1.175, 0.49, 1.2725, 0.5875, 1.3725, 0.685, 0, 0.785, 0.0975, 0.8825, 0.195, 0.98, 0.295, 1.0775, 0.3925, 1.175, 0.49, 1.2725, 0.5875, 1.3725, 0.685, 0, 0.785, 0.0975, 0.8825, 0.195, 0.98, 0.295, 1.0775, 0.3925, 1.175, 0.49, 1.2725, 0.5875, 1.3725, 0.685, 0, 0.785, 0.0975, 0.8825, 0.195, 0.98, 0.295, 1.0775, 0.3925, 1.175, 0.49, 1.2725, 0.5875, 1.3725, 0.685],
  "SoftwareVersions": "syngo_MR_E11",
  "SpacingBetweenSlices": 2,
  "StationName": "MRC35049",
  "TaskName": "s03e18b",
  "TotalReadoutTime": 0.0576811,
  "TxRefAmp": 221.982,
  "WipMemBlock": "b67897d0-f3ad-4158-8f65-646e6d0bb1fb||Sequence: R016 ve11c/master r/e634e98; Dec 19 2017 11:00:25 by eja",
  "dcmmeta_affine": [
    [-1.9968510866165161, 0.10954376310110092, -0.024207189679145813, 97.44151306152344],
    [0.11116737127304077, 1.874058723449707, -0.6895983219146729, -77.92752075195312],
    [0.015087750740349293, 0.689858078956604, 1.8771969079971313, -68.77281188964844],
    [0.0, 0.0, 0.0, 1.0]
],
  "dcmmeta_reorient_transform": [
    [0.0, -1.0, 0.0, 103.0],
    [1.0, 0.0, 0.0, 0.0],
    [0.0, 0.0, 1.0, 0.0],
    [0.0, 0.0, 0.0, 1.0]
],
  "dcmmeta_shape": [104, 104, 60, 469],
  "dcmmeta_slice_dim": 2,
  "dcmmeta_version": 0.6,
  "global": {
    "const": {
      "AcquisitionMatrix": [104, 0, 0, 104],
      "AngioFlag": "N",
      "BitsAllocated": 16,
      "BitsStored": 16,
      "BodyPartExamined": "BRAIN",
      "Columns": 832,
      "EchoNumbers": 1,
      "EchoTime": 37.0,
      "EchoTrainLength": 104,
      "FlipAngle": 52.0,
      "HighBit": 15,
      "ImageOrientationPatient": [0.99842553253271, -0.0555836840203, 0.00754387549674, 0.05477188131431, 0.93702934361157, -0.3449290510064],
      "ImagePositionPatient": [-875.45223655047, -756.79296456119, 247.8989774376],
      "ImageType": [
        "ORIGINAL",
        "PRIMARY",
        "M",
        "MB",
        "ND",
        "MOSAIC"
],
      "ImagedNucleus": "1H",
      "ImagingFrequency": 123.259341,
      "InPlanePhaseEncodingDirection": "COL",
      "MRAcquisitionType": "2D",
      "MagneticFieldStrength": 3.0,
      "Manufacturer": "SIEMENS",
      "ManufacturerModelName": "Prisma_fit",
      "Modality": "MR",
      "NumberOfAverages": 1.0,
      "NumberOfPhaseEncodingSteps": 104,
      "PercentPhaseFieldOfView": 100.0,
      "PercentSampling": 100.0,
      "PerformedProcedureStepStartTime": "160720.582000",
      "PhotometricInterpretation": "MONOCHROME2",
      "PixelBandwidth": 2290.0,
      "PixelRepresentation": 0,
      "PixelSpacing": [2.0, 2.0],
      "ProtocolName": "func_task-friends-s03e18b",
      "RepetitionTime": 1490.0,
      "Rows": 832,
      "SAR": 0.03231803926381,
      "SamplesPerPixel": 1,
      "ScanOptions": "FS",
      "ScanningSequence": "EP",
      "SequenceName": "epfid2d1_104",
      "SequenceVariant": [
        "SK",
        "SS"
],
      "SeriesDescription": "func_task-friends-s03e18b",
      "SeriesNumber": 19,
      "SeriesTime": "172214.774000",
      "SliceLocation": -38.860105720512,
      "SliceThickness": 2.0,
      "SmallestImagePixelValue": 0,
      "SoftwareVersions": "syngo MR E11",
      "SpacingBetweenSlices": 1.9999999837522,
      "SpecificCharacterSet": "ISO_IR 100",
      "StudyID": "1",
      "StudyTime": "160720.495000",
      "TransmitCoilName": "Body",
      "VariableFlipAngleFlag": "N",
      "WindowCenterWidthExplanation": "Algo1",
      "dBdt": 0.0},
    "slices": {}
  },
  "time": {
    "samples": {
      "AcquisitionNumber": [1, 2, 3, 4, 5, 6, 7, 8, 9, 10, 11, 12, 13, 14, 15, 16, 17, 18, 19, 20, 21, 22, 23, 24, 25, 26, 27, 28, 29, 30, 31, 32, 33, 34, 35, 36, 37, 38, 39, 40, 41, 42, 43, 44, 45, 46, 47, 48, 49, 50, 51, 52, 53, 54, 55, 56, 57, 58, 59, 60, 61, 62, 63, 64, 65, 66, 67, 68, 69, 70, 71, 72, 73, 74, 75, 76, 77, 78, 79, 80, 81, 82, 83, 84, 85, 86, 87, 88, 89, 90, 91, 92, 93, 94, 95, 96, 97, 98, 99, 100, 101, 102, 103, 104, 105, 106, 107, 108, 109, 110, 111, 112, 113, 114, 115, 116, 117, 118, 119, 120, 121, 122, 123, 124, 125, 126, 127, 128, 129, 130, 131, 132, 133, 134, 135, 136, 137, 138, 139, 140, 141, 142, 143, 144, 145, 146, 147, 148, 149, 150, 151, 152, 153, 154, 155, 156, 157, 158, 159, 160, 161, 162, 163, 164, 165, 166, 167, 168, 169, 170, 171, 172, 173, 174, 175, 176, 177, 178, 179, 180, 181, 182, 183, 184, 185, 186, 187, 188, 189, 190, 191, 192, 193, 194, 195, 196, 197, 198, 199, 200, 201, 202, 203, 204, 205, 206, 207, 208, 209, 210, 211, 212, 213, 214, 215, 216, 217, 218, 219, 220, 221, 222, 223, 224, 225, 226, 227, 228, 229, 230, 231, 232, 233, 234, 235, 236, 237, 238, 239, 240, 241, 242, 243, 244, 245, 246, 247, 248, 249, 250, 251, 252, 253, 254, 255, 256, 257, 258, 259, 260, 261, 262, 263, 264, 265, 266, 267, 268, 269, 270, 271, 272, 273, 274, 275, 276, 277, 278, 279, 280, 281, 282, 283, 284, 285, 286, 287, 288, 289, 290, 291, 292, 293, 294, 295, 296, 297, 298, 299, 300, 301, 302, 303, 304, 305, 306, 307, 308, 309, 310, 311, 312, 313, 314, 315, 316, 317, 318, 319, 320, 321, 322, 323, 324, 325, 326, 327, 328, 329, 330, 331, 332, 333, 334, 335, 336, 337, 338, 339, 340, 341, 342, 343, 344, 345, 346, 347, 348, 349, 350, 351, 352, 353, 354, 355, 356, 357, 358, 359, 360, 361, 362, 363, 364, 365, 366, 367, 368, 369, 370, 371, 372, 373, 374, 375, 376, 377, 378, 379, 380, 381, 382, 383, 384, 385, 386, 387, 388, 389, 390, 391, 392, 393, 394, 395, 396, 397, 398, 399, 400, 401, 402, 403, 404, 405, 406, 407, 408, 409, 410, 411, 412, 413, 414, 415, 416, 417, 418, 419, 420, 421, 422, 423, 424, 425, 426, 427, 428, 429, 430, 431, 432, 433, 434, 435, 436, 437, 438, 439, 440, 441, 442, 443, 444, 445, 446, 447, 448, 449, 450, 451, 452, 453, 454, 455, 456, 457, 458, 459, 460, 461, 462, 463, 464, 465, 466, 467, 468, 469],
      "AcquisitionTime": ["172057.047500", "172058.537500", "172100.027500", "172101.517500", "172103.007500", "172104.497500", "172105.987500", "172107.477500", "172108.967500", "172110.457500", "172111.947500", "172113.437500", "172114.927500", "172116.417500", "172117.907500", "172119.397500", "172120.887500", "172122.377500", "172123.867500", "172125.357500", "172126.847500", "172128.337500", "172129.827500", "172131.317500", "172132.807500", "172134.297500", "172135.787500", "172137.277500", "172138.767500", "172140.257500", "172141.747500", "172143.237500", "172144.727500", "172146.217500", "172147.707500", "172149.197500", "172150.687500", "172152.177500", "172153.667500", "172155.157500", "172156.647500", "172158.137500", "172159.627500", "172201.117500", "172202.607500", "172204.097500", "172205.587500", "172207.077500", "172208.567500", "172210.057500", "172211.547500", "172213.037500", "172214.527500", "172216.017500", "172217.507500", "172218.997500", "172220.487500", "172221.977500", "172223.467500", "172224.957500", "172226.447500", "172227.937500", "172229.427500", "172230.917500", "172232.407500", "172233.897500", "172235.387500", "172236.877500", "172238.367500", "172239.857500", "172241.347500", "172242.837500", "172244.327500", "172245.817500", "172247.307500", "172248.797500", "172250.287500", "172251.777500", "172253.267500", "172254.757500", "172256.247500", "172257.737500", "172259.227500", "172300.717500", "172302.207500", "172303.697500", "172305.187500", "172306.677500", "172308.167500", "172309.657500", "172311.147500", "172312.637500", "172314.127500", "172315.617500", "172317.107500", "172318.597500", "172320.087500", "172321.577500", "172323.067500", "172324.557500", "172326.047500", "172327.537500", "172329.027500", "172330.517500", "172332.007500", "172333.497500", "172334.987500", "172336.477500", "172337.967500", "172339.457500", "172340.947500", "172342.437500", "172343.927500", "172345.417500", "172346.907500", "172348.397500", "172349.887500", "172351.377500", "172352.867500", "172354.357500", "172355.847500", "172357.337500", "172358.827500", "172400.317500", "172401.807500", "172403.297500", "172404.787500", "172406.277500", "172407.767500", "172409.257500", "172410.747500", "172412.237500", "172413.727500", "172415.217500", "172416.707500", "172418.197500", "172419.687500", "172421.177500", "172422.667500", "172424.157500", "172425.647500", "172427.137500", "172428.627500", "172430.117500", "172431.607500", "172433.097500", "172434.587500", "172436.077500", "172437.567500", "172439.057500", "172440.547500", "172442.037500", "172443.527500", "172445.017500", "172446.507500", "172447.997500", "172449.487500", "172450.977500", "172452.467500", "172453.957500", "172455.447500", "172456.937500", "172458.427500", "172459.917500", "172501.407500", "172502.897500", "172504.387500", "172505.877500", "172507.367500", "172508.857500", "172510.347500", "172511.837500", "172513.327500", "172514.817500", "172516.307500", "172517.797500", "172519.287500", "172520.777500", "172522.267500", "172523.757500", "172525.247500", "172526.737500", "172528.227500", "172529.717500", "172531.207500", "172532.697500", "172534.187500", "172535.677500", "172537.167500", "172538.657500", "172540.147500", "172541.637500", "172543.127500", "172544.617500", "172546.107500", "172547.597500", "172549.087500", "172550.577500", "172552.067500", "172553.557500", "172555.047500", "172556.537500", "172558.027500", "172559.517500", "172601.007500", "172602.497500", "172603.987500", "172605.477500", "172606.967500", "172608.457500", "172609.947500", "172611.437500", "172612.927500", "172614.417500", "172615.907500", "172617.397500", "172618.887500", "172620.377500", "172621.867500", "172623.357500", "172624.847500", "172626.337500", "172627.827500", "172629.317500", "172630.807500", "172632.297500", "172633.787500", "172635.277500", "172636.767500", "172638.257500", "172639.747500", "172641.237500", "172642.727500", "172644.217500", "172645.707500", "172647.197500", "172648.687500", "172650.177500", "172651.667500", "172653.157500", "172654.647500", "172656.137500", "172657.627500", "172659.117500", "172700.607500", "172702.097500", "172703.587500", "172705.077500", "172706.567500", "172708.057500", "172709.547500", "172711.037500", "172712.527500", "172714.017500", "172715.507500", "172716.997500", "172718.487500", "172719.977500", "172721.467500", "172722.957500", "172724.447500", "172725.937500", "172727.427500", "172728.917500", "172730.407500", "172731.897500", "172733.387500", "172734.877500", "172736.367500", "172737.857500", "172739.347500", "172740.837500", "172742.327500", "172743.817500", "172745.307500", "172746.797500", "172748.287500", "172749.777500", "172751.267500", "172752.757500", "172754.247500", "172755.737500", "172757.227500", "172758.717500", "172800.207500", "172801.697500", "172803.187500", "172804.677500", "172806.167500", "172807.657500", "172809.147500", "172810.637500", "172812.127500", "172813.617500", "172815.107500", "172816.597500", "172818.087500", "172819.577500", "172821.067500", "172822.557500", "172824.047500", "172825.537500", "172827.027500", "172828.517500", "172830.007500", "172831.497500", "172832.987500", "172834.477500", "172835.967500", "172837.457500", "172838.947500", "172840.437500", "172841.927500", "172843.417500", "172844.907500", "172846.397500", "172847.887500", "172849.377500", "172850.867500", "172852.357500", "172853.847500", "172855.337500", "172856.827500", "172858.317500", "172859.807500", "172901.297500", "172902.787500", "172904.277500", "172905.767500", "172907.257500", "172908.747500", "172910.237500", "172911.727500", "172913.217500", "172914.707500", "172916.197500", "172917.687500", "172919.177500", "172920.667500", "172922.157500", "172923.647500", "172925.137500", "172926.627500", "172928.117500", "172929.607500", "172931.097500", "172932.587500", "172934.077500", "172935.567500", "172937.057500", "172938.547500", "172940.037500", "172941.527500", "172943.017500", "172944.507500", "172945.997500", "172947.487500", "172948.977500", "172950.467500", "172951.957500", "172953.447500", "172954.937500", "172956.427500", "172957.917500", "172959.407500", "173000.897500", "173002.387500", "173003.877500", "173005.367500", "173006.857500", "173008.347500", "173009.837500", "173011.327500", "173012.817500", "173014.307500", "173015.797500", "173017.287500", "173018.777500", "173020.267500", "173021.757500", "173023.247500", "173024.737500", "173026.227500", "173027.717500", "173029.207500", "173030.697500", "173032.187500", "173033.677500", "173035.167500", "173036.657500", "173038.147500", "173039.637500", "173041.127500", "173042.617500", "173044.107500", "173045.597500", "173047.087500", "173048.577500", "173050.067500", "173051.557500", "173053.047500", "173054.537500", "173056.027500", "173057.517500", "173059.007500", "173100.497500", "173101.987500", "173103.477500", "173104.967500", "173106.457500", "173107.947500", "173109.437500", "173110.927500", "173112.417500", "173113.907500", "173115.397500", "173116.887500", "173118.377500", "173119.867500", "173121.357500", "173122.847500", "173124.337500", "173125.827500", "173127.317500", "173128.807500", "173130.297500", "173131.787500", "173133.277500", "173134.767500", "173136.257500", "173137.747500", "173139.237500", "173140.727500", "173142.217500", "173143.707500", "173145.197500", "173146.687500", "173148.177500", "173149.667500", "173151.157500", "173152.647500", "173154.137500", "173155.627500", "173157.117500", "173158.607500", "173200.097500", "173201.587500", "173203.077500", "173204.567500", "173206.057500", "173207.547500", "173209.037500", "173210.527500", "173212.017500", "173213.507500", "173214.997500", "173216.487500", "173217.977500", "173219.467500", "173220.957500", "173222.447500", "173223.937500", "173225.427500", "173226.917500", "173228.407500", "173229.897500", "173231.387500", "173232.877500", "173234.367500"],
      "ContentTime": ["172214.777000", "172214.781000", "172214.784000", "172214.787000", "172214.791000", "172214.794000", "172214.799000", "172214.802000", "172214.805000", "172214.823000", "172214.827000", "172214.830000", "172214.833000", "172214.836000", "172214.839000", "172214.842000", "172214.845000", "172214.848000", "172214.852000", "172214.855000", "172214.858000", "172214.861000", "172214.864000", "172214.867000", "172234.750000", "172234.753000", "172234.756000", "172234.759000", "172234.762000", "172234.765000", "172234.769000", "172234.772000", "172234.775000", "172234.778000", "172234.781000", "172234.785000", "172234.788000", "172234.791000", "172234.797000", "172234.800000", "172234.803000", "172234.806000", "172234.809000", "172234.812000", "172254.750000", "172254.767000", "172254.770000", "172254.780000", "172254.783000", "172254.786000", "172254.789000", "172254.793000", "172254.796000", "172254.799000", "172254.802000", "172254.805000", "172254.816000", "172254.819000", "172254.822000", "172254.825000", "172254.828000", "172254.831000", "172254.834000", "172254.837000", "172254.840000", "172314.750000", "172314.753000", "172314.756000", "172314.759000", "172314.762000", "172314.765000", "172314.769000", "172314.771000", "172314.774000", "172314.777000", "172314.781000", "172314.784000", "172314.786000", "172314.789000", "172314.799000", "172314.802000", "172314.805000", "172314.808000", "172314.811000", "172314.814000", "172334.750000", "172334.753000", "172334.756000", "172334.759000", "172334.762000", "172334.765000", "172334.768000", "172334.771000", "172334.774000", "172334.777000", "172334.780000", "172334.783000", "172334.786000", "172334.789000", "172334.792000", "172334.795000", "172334.798000", "172334.801000", "172334.804000", "172334.807000", "172414.750000", "172414.753000", "172414.756000", "172414.759000", "172414.762000", "172414.765000", "172414.768000", "172414.771000", "172414.774000", "172414.777000", "172414.780000", "172414.783000", "172414.787000", "172414.789000", "172414.792000", "172414.795000", "172414.799000", "172414.802000", "172414.812000", "172414.815000", "172414.818000", "172414.821000", "172414.824000", "172414.827000", "172414.830000", "172414.833000", "172414.836000", "172454.750000", "172454.753000", "172454.756000", "172454.759000", "172454.762000", "172454.765000", "172454.768000", "172454.771000", "172454.774000", "172454.777000", "172454.780000", "172454.783000", "172454.786000", "172454.789000", "172454.792000", "172454.796000", "172454.799000", "172454.802000", "172454.804000", "172454.808000", "172454.811000", "172454.814000", "172454.817000", "172454.820000", "172454.823000", "172454.826000", "172454.829000", "172534.750000", "172534.753000", "172534.757000", "172534.760000", "172534.763000", "172534.766000", "172534.769000", "172534.772000", "172534.775000", "172534.778000", "172534.781000", "172534.784000", "172534.787000", "172534.790000", "172534.793000", "172534.796000", "172534.799000", "172534.802000", "172534.805000", "172534.808000", "172534.811000", "172534.814000", "172534.817000", "172534.820000", "172534.823000", "172534.826000", "172534.829000", "172554.750000", "172554.753000", "172554.757000", "172554.760000", "172554.763000", "172554.766000", "172554.769000", "172554.772000", "172554.775000", "172554.778000", "172554.781000", "172554.784000", "172554.787000", "172634.750000", "172634.753000", "172634.757000", "172634.760000", "172634.763000", "172634.766000", "172634.769000", "172634.772000", "172634.775000", "172634.778000", "172634.781000", "172634.784000", "172634.787000", "172634.790000", "172634.793000", "172634.796000", "172634.799000", "172634.802000", "172634.814000", "172634.817000", "172634.820000", "172634.823000", "172634.826000", "172634.829000", "172634.832000", "172634.835000", "172634.844000", "172714.750000", "172714.754000", "172714.757000", "172714.760000", "172714.762000", "172714.766000", "172714.769000", "172714.772000", "172714.775000", "172714.778000", "172714.781000", "172714.784000", "172714.787000", "172714.790000", "172714.793000", "172714.796000", "172714.799000", "172714.802000", "172714.805000", "172714.808000", "172714.811000", "172714.815000", "172714.821000", "172714.824000", "172714.827000", "172714.830000", "172714.833000", "172754.750000", "172754.753000", "172754.756000", "172754.759000", "172754.762000", "172754.765000", "172754.768000", "172754.771000", "172754.774000", "172754.777000", "172754.780000", "172754.783000", "172754.787000", "172754.790000", "172754.793000", "172754.796000", "172754.799000", "172754.802000", "172754.805000", "172754.808000", "172754.811000", "172754.814000", "172754.817000", "172754.820000", "172754.823000", "172754.826000", "172754.829000", "172834.750000", "172834.762000", "172834.765000", "172834.768000", "172834.771000", "172834.774000", "172834.777000", "172834.780000", "172834.783000", "172834.787000", "172834.790000", "172834.793000", "172834.796000", "172834.799000", "172834.802000", "172834.805000", "172834.808000", "172834.811000", "172834.814000", "172834.817000", "172834.820000", "172834.823000", "172834.826000", "172834.829000", "172834.832000", "172834.836000", "172914.750000", "172914.759000", "172914.762000", "172914.765000", "172914.768000", "172914.772000", "172914.775000", "172914.778000", "172914.781000", "172914.784000", "172914.787000", "172914.790000", "172914.793000", "172914.796000", "172914.800000", "172914.803000", "172914.817000", "172914.820000", "172914.823000", "172914.826000", "172914.829000", "172914.832000", "172914.835000", "172914.838000", "172914.841000", "172914.844000", "172914.847000", "172954.750000", "172954.753000", "172954.756000", "172954.760000", "172954.763000", "172954.766000", "172954.769000", "172954.772000", "172954.775000", "172954.778000", "172954.781000", "172954.784000", "172954.787000", "172954.790000", "172954.793000", "172954.796000", "172954.799000", "172954.802000", "172954.805000", "172954.808000", "172954.811000", "172954.814000", "172954.817000", "172954.820000", "172954.823000", "172954.826000", "172954.829000", "173034.750000", "173034.753000", "173034.756000", "173034.760000", "173034.763000", "173034.766000", "173034.769000", "173034.772000", "173034.775000", "173034.778000", "173034.781000", "173034.784000", "173034.787000", "173034.790000", "173034.793000", "173034.796000", "173034.799000", "173034.802000", "173034.805000", "173034.808000", "173034.811000", "173034.814000", "173034.817000", "173034.821000", "173034.824000", "173034.827000", "173034.830000", "173114.750000", "173114.753000", "173114.757000", "173114.760000", "173114.763000", "173114.766000", "173114.769000", "173114.772000", "173114.775000", "173114.778000", "173114.781000", "173114.784000", "173114.787000", "173114.790000", "173114.801000", "173114.804000", "173114.807000", "173114.810000", "173114.813000", "173114.816000", "173114.819000", "173114.822000", "173114.826000", "173114.829000", "173114.831000", "173114.834000", "173114.838000", "173154.750000", "173154.753000", "173154.756000", "173154.759000", "173154.763000", "173154.766000", "173154.769000", "173154.772000", "173154.775000", "173154.778000", "173154.781000", "173154.784000", "173154.787000", "173154.790000", "173154.793000", "173154.796000", "173154.799000", "173154.802000", "173154.805000", "173154.808000", "173154.811000", "173154.814000", "173154.817000", "173154.820000", "173154.823000", "173154.826000", "173154.829000", "173234.750000", "173234.754000", "173234.757000", "173234.760000", "173234.764000", "173234.767000", "173234.770000", "173234.773000", "173234.776000", "173234.779000", "173234.782000", "173234.785000", "173234.788000", "173234.791000", "173234.794000", "173234.797000", "173234.800000", "173234.803000", "173234.806000", "173234.809000", "173234.812000", "173234.815000", "173234.818000", "173234.821000", "173234.824000", "173234.828000", "173236.296000", "173236.299000"],
