{
  "AcquisitionMatrixPE": 104,
  "AcquisitionNumber": 1,
  "AcquisitionTime": "16:32:39.965000",
  "BandwidthPerPixelPhaseEncode": 17.17,
  "BaseResolution": 104,
  "BodyPartExamined": "BRAIN",
  "CoilString": "HC1-7;NC1_2",
  "ConsistencyInfo": "N4_VE11C_LATEST_20160120",
  "ConversionSoftware": "dcm2niix",
  "ConversionSoftwareVersion": "v1.0.20190902",
  "DerivedVendorReportedEchoSpacing": 0.000560011,
  "DeviceSerialNumber": "167006",
  "DwellTime": 2.1e-06,
  "EchoTime": 0.037,
  "EchoTrainLength": 104,
  "EffectiveEchoSpacing": 0.000560011,
  "FlipAngle": 52,
  "ImageComments": "Unaliased_MB4_PE3_LB",
  "ImageOrientationPatientDICOM": [0.998426, -0.0555837, 0.00754388, 0.0547719, 0.937029, -0.344929],
  "ImageType": [
    "ORIGINAL",
    "PRIMARY",
    "M",
    "MB",
    "ND",
    "MOSAIC"
],
  "ImagingFrequency": 123.259,
  "InPlanePhaseEncodingDirectionDICOM": "COL",
  "InstitutionAddress": "Chemin_Queen-Mary_4565_Montreal_District_CA_H3W_1W5",
  "InstitutionName": "IUGM",
  "InstitutionalDepartmentName": "Department",
  "MRAcquisitionType": "2D",
  "MagneticFieldStrength": 3,
  "Manufacturer": "Siemens",
  "ManufacturersModelName": "Prisma_fit",
  "Modality": "MR",
  "MultibandAccelerationFactor": 4,
  "PartialFourier": 1,
  "PatientPosition": "HFS",
  "PercentPhaseFOV": 100,
  "PhaseEncodingDirection": "j",
  "PhaseEncodingSteps": 104,
  "PhaseResolution": 1,
  "PixelBandwidth": 2290,
  "ProcedureStepDescription": "video_friends",
  "ProtocolName": "func_task-friends-s03e16b",
  "PulseSequenceDetails": "%CustomerSeq%_cmrr_mbep2d_bold",
  "ReceiveCoilActiveElements": "HC1-7;NC1,2",
  "ReceiveCoilName": "HeadNeck_64",
  "ReconMatrixPE": 104,
  "RepetitionTime": 1.49,
  "SAR": 0.0323177,
  "ScanOptions": "FS",
  "ScanningSequence": "EP",
  "SequenceName": "epfid2d1_104",
  "SequenceVariant": "SK_SS",
  "SeriesDescription": "func_task-friends-s03e16b",
  "SeriesNumber": 11,
  "ShimSetting": [633, -7256, -8837, 610, 20, -205, -63, -8],
  "SliceThickness": 2,
  "SliceTiming": [0, 0.7825, 0.0975, 0.88, 0.195, 0.98, 0.2925, 1.0775, 0.39, 1.175, 0.49, 1.2725, 0.5875, 1.37, 0.685, 0, 0.7825, 0.0975, 0.88, 0.195, 0.98, 0.2925, 1.0775, 0.39, 1.175, 0.49, 1.2725, 0.5875, 1.37, 0.685, 0, 0.7825, 0.0975, 0.88, 0.195, 0.98, 0.2925, 1.0775, 0.39, 1.175, 0.49, 1.2725, 0.5875, 1.37, 0.685, 0, 0.7825, 0.0975, 0.88, 0.195, 0.98, 0.2925, 1.0775, 0.39, 1.175, 0.49, 1.2725, 0.5875, 1.37, 0.685],
  "SoftwareVersions": "syngo_MR_E11",
  "SpacingBetweenSlices": 2,
  "StationName": "MRC35049",
  "TaskName": "s03e16b",
  "TotalReadoutTime": 0.0576811,
  "TxRefAmp": 221.982,
  "WipMemBlock": "1ef2bff6-4865-4969-9d48-c66edf02abfa||Sequence: R016 ve11c/master r/e634e98; Dec 19 2017 11:00:25 by eja",
  "dcmmeta_affine": [
    [-1.9968510866165161, 0.10954376310110092, -0.024207189679145813, 97.44151306152344],
    [0.11116737127304077, 1.874058723449707, -0.6895983219146729, -77.92752075195312],
    [0.015087750740349293, 0.689858078956604, 1.8771969079971313, -68.77281188964844],
    [0.0, 0.0, 0.0, 1.0]
],
  "dcmmeta_reorient_transform": [
    [0.0, -1.0, 0.0, 103.0],
    [1.0, 0.0, 0.0, 0.0],
    [0.0, 0.0, 1.0, 0.0],
    [0.0, 0.0, 0.0, 1.0]
],
  "dcmmeta_shape": [104, 104, 60, 468],
  "dcmmeta_slice_dim": 2,
  "dcmmeta_version": 0.6,
  "global": {
    "const": {
      "AcquisitionMatrix": [104, 0, 0, 104],
      "AngioFlag": "N",
      "BitsAllocated": 16,
      "BitsStored": 16,
      "BodyPartExamined": "BRAIN",
      "Columns": 832,
      "EchoNumbers": 1,
      "EchoTime": 37.0,
      "EchoTrainLength": 104,
      "FlipAngle": 52.0,
      "HighBit": 15,
      "ImageOrientationPatient": [0.99842553253271, -0.0555836840203, 0.00754387549674, 0.05477188131431, 0.93702934361157, -0.3449290510064],
      "ImagePositionPatient": [-875.45223655047, -756.79296456119, 247.8989774376],
      "ImageType": [
        "ORIGINAL",
        "PRIMARY",
        "M",
        "MB",
        "ND",
        "MOSAIC"
],
      "ImagedNucleus": "1H",
      "ImagingFrequency": 123.259327,
      "InPlanePhaseEncodingDirection": "COL",
      "MRAcquisitionType": "2D",
      "MagneticFieldStrength": 3.0,
      "Manufacturer": "SIEMENS",
      "ManufacturerModelName": "Prisma_fit",
      "Modality": "MR",
      "NumberOfAverages": 1.0,
      "NumberOfPhaseEncodingSteps": 104,
      "PercentPhaseFieldOfView": 100.0,
      "PercentSampling": 100.0,
      "PerformedProcedureStepStartTime": "160720.582000",
      "PhotometricInterpretation": "MONOCHROME2",
      "PixelBandwidth": 2290.0,
      "PixelRepresentation": 0,
      "PixelSpacing": [2.0, 2.0],
      "ProtocolName": "func_task-friends-s03e16b",
      "RepetitionTime": 1490.0,
      "Rows": 832,
      "SAR": 0.03231774777265,
      "SamplesPerPixel": 1,
      "ScanOptions": "FS",
      "ScanningSequence": "EP",
      "SequenceName": "epfid2d1_104",
      "SequenceVariant": [
        "SK",
        "SS"
],
      "SeriesDescription": "func_task-friends-s03e16b",
      "SeriesNumber": 11,
      "SeriesTime": "163353.153000",
      "SliceLocation": -38.860105720512,
      "SliceThickness": 2.0,
      "SmallestImagePixelValue": 0,
      "SoftwareVersions": "syngo MR E11",
      "SpacingBetweenSlices": 1.9999999837522,
      "SpecificCharacterSet": "ISO_IR 100",
      "StudyID": "1",
      "StudyTime": "160720.495000",
      "TransmitCoilName": "Body",
      "VariableFlipAngleFlag": "N",
      "WindowCenterWidthExplanation": "Algo1",
      "dBdt": 0.0},
    "slices": {}
  },
  "time": {
    "samples": {
      "AcquisitionNumber": [1, 2, 3, 4, 5, 6, 7, 8, 9, 10, 11, 12, 13, 14, 15, 16, 17, 18, 19, 20, 21, 22, 23, 24, 25, 26, 27, 28, 29, 30, 31, 32, 33, 34, 35, 36, 37, 38, 39, 40, 41, 42, 43, 44, 45, 46, 47, 48, 49, 50, 51, 52, 53, 54, 55, 56, 57, 58, 59, 60, 61, 62, 63, 64, 65, 66, 67, 68, 69, 70, 71, 72, 73, 74, 75, 76, 77, 78, 79, 80, 81, 82, 83, 84, 85, 86, 87, 88, 89, 90, 91, 92, 93, 94, 95, 96, 97, 98, 99, 100, 101, 102, 103, 104, 105, 106, 107, 108, 109, 110, 111, 112, 113, 114, 115, 116, 117, 118, 119, 120, 121, 122, 123, 124, 125, 126, 127, 128, 129, 130, 131, 132, 133, 134, 135, 136, 137, 138, 139, 140, 141, 142, 143, 144, 145, 146, 147, 148, 149, 150, 151, 152, 153, 154, 155, 156, 157, 158, 159, 160, 161, 162, 163, 164, 165, 166, 167, 168, 169, 170, 171, 172, 173, 174, 175, 176, 177, 178, 179, 180, 181, 182, 183, 184, 185, 186, 187, 188, 189, 190, 191, 192, 193, 194, 195, 196, 197, 198, 199, 200, 201, 202, 203, 204, 205, 206, 207, 208, 209, 210, 211, 212, 213, 214, 215, 216, 217, 218, 219, 220, 221, 222, 223, 224, 225, 226, 227, 228, 229, 230, 231, 232, 233, 234, 235, 236, 237, 238, 239, 240, 241, 242, 243, 244, 245, 246, 247, 248, 249, 250, 251, 252, 253, 254, 255, 256, 257, 258, 259, 260, 261, 262, 263, 264, 265, 266, 267, 268, 269, 270, 271, 272, 273, 274, 275, 276, 277, 278, 279, 280, 281, 282, 283, 284, 285, 286, 287, 288, 289, 290, 291, 292, 293, 294, 295, 296, 297, 298, 299, 300, 301, 302, 303, 304, 305, 306, 307, 308, 309, 310, 311, 312, 313, 314, 315, 316, 317, 318, 319, 320, 321, 322, 323, 324, 325, 326, 327, 328, 329, 330, 331, 332, 333, 334, 335, 336, 337, 338, 339, 340, 341, 342, 343, 344, 345, 346, 347, 348, 349, 350, 351, 352, 353, 354, 355, 356, 357, 358, 359, 360, 361, 362, 363, 364, 365, 366, 367, 368, 369, 370, 371, 372, 373, 374, 375, 376, 377, 378, 379, 380, 381, 382, 383, 384, 385, 386, 387, 388, 389, 390, 391, 392, 393, 394, 395, 396, 397, 398, 399, 400, 401, 402, 403, 404, 405, 406, 407, 408, 409, 410, 411, 412, 413, 414, 415, 416, 417, 418, 419, 420, 421, 422, 423, 424, 425, 426, 427, 428, 429, 430, 431, 432, 433, 434, 435, 436, 437, 438, 439, 440, 441, 442, 443, 444, 445, 446, 447, 448, 449, 450, 451, 452, 453, 454, 455, 456, 457, 458, 459, 460, 461, 462, 463, 464, 465, 466, 467, 468],
      "AcquisitionTime": ["163239.965000", "163241.455000", "163242.945000", "163244.435000", "163245.925000", "163247.415000", "163248.905000", "163250.395000", "163251.885000", "163253.375000", "163254.865000", "163256.355000", "163257.845000", "163259.335000", "163300.825000", "163302.315000", "163303.805000", "163305.295000", "163306.785000", "163308.275000", "163309.765000", "163311.255000", "163312.745000", "163314.235000", "163315.725000", "163317.215000", "163318.705000", "163320.195000", "163321.685000", "163323.175000", "163324.665000", "163326.155000", "163327.645000", "163329.135000", "163330.625000", "163332.115000", "163333.605000", "163335.095000", "163336.585000", "163338.075000", "163339.565000", "163341.055000", "163342.545000", "163344.035000", "163345.525000", "163347.015000", "163348.505000", "163349.995000", "163351.485000", "163352.975000", "163354.465000", "163355.955000", "163357.445000", "163358.935000", "163400.425000", "163401.915000", "163403.405000", "163404.895000", "163406.385000", "163407.875000", "163409.365000", "163410.855000", "163412.345000", "163413.835000", "163415.325000", "163416.815000", "163418.305000", "163419.795000", "163421.285000", "163422.775000", "163424.265000", "163425.755000", "163427.245000", "163428.735000", "163430.225000", "163431.715000", "163433.205000", "163434.695000", "163436.185000", "163437.675000", "163439.165000", "163440.655000", "163442.145000", "163443.635000", "163445.125000", "163446.615000", "163448.105000", "163449.595000", "163451.085000", "163452.575000", "163454.065000", "163455.555000", "163457.045000", "163458.535000", "163500.025000", "163501.515000", "163503.005000", "163504.495000", "163505.985000", "163507.475000", "163508.965000", "163510.455000", "163511.945000", "163513.435000", "163514.925000", "163516.415000", "163517.905000", "163519.395000", "163520.885000", "163522.375000", "163523.865000", "163525.355000", "163526.845000", "163528.335000", "163529.825000", "163531.315000", "163532.805000", "163534.295000", "163535.785000", "163537.275000", "163538.765000", "163540.255000", "163541.745000", "163543.235000", "163544.725000", "163546.215000", "163547.705000", "163549.195000", "163550.685000", "163552.175000", "163553.665000", "163555.155000", "163556.645000", "163558.135000", "163559.625000", "163601.115000", "163602.605000", "163604.095000", "163605.585000", "163607.075000", "163608.565000", "163610.055000", "163611.545000", "163613.035000", "163614.525000", "163616.015000", "163617.505000", "163618.995000", "163620.485000", "163621.975000", "163623.465000", "163624.955000", "163626.445000", "163627.935000", "163629.425000", "163630.915000", "163632.405000", "163633.895000", "163635.385000", "163636.875000", "163638.365000", "163639.855000", "163641.345000", "163642.835000", "163644.325000", "163645.815000", "163647.305000", "163648.795000", "163650.285000", "163651.775000", "163653.265000", "163654.755000", "163656.245000", "163657.735000", "163659.225000", "163700.715000", "163702.205000", "163703.695000", "163705.185000", "163706.675000", "163708.165000", "163709.655000", "163711.145000", "163712.635000", "163714.125000", "163715.615000", "163717.105000", "163718.595000", "163720.085000", "163721.575000", "163723.065000", "163724.555000", "163726.045000", "163727.535000", "163729.025000", "163730.515000", "163732.005000", "163733.495000", "163734.985000", "163736.475000", "163737.965000", "163739.455000", "163740.945000", "163742.435000", "163743.925000", "163745.415000", "163746.905000", "163748.395000", "163749.885000", "163751.375000", "163752.865000", "163754.355000", "163755.845000", "163757.335000", "163758.825000", "163800.315000", "163801.805000", "163803.295000", "163804.785000", "163806.275000", "163807.765000", "163809.255000", "163810.745000", "163812.235000", "163813.725000", "163815.215000", "163816.705000", "163818.195000", "163819.685000", "163821.175000", "163822.665000", "163824.155000", "163825.645000", "163827.135000", "163828.625000", "163830.115000", "163831.605000", "163833.095000", "163834.585000", "163836.075000", "163837.565000", "163839.055000", "163840.545000", "163842.035000", "163843.525000", "163845.015000", "163846.505000", "163847.995000", "163849.485000", "163850.975000", "163852.465000", "163853.955000", "163855.445000", "163856.935000", "163858.425000", "163859.915000", "163901.405000", "163902.895000", "163904.385000", "163905.875000", "163907.365000", "163908.855000", "163910.345000", "163911.835000", "163913.325000", "163914.815000", "163916.305000", "163917.795000", "163919.285000", "163920.775000", "163922.265000", "163923.755000", "163925.245000", "163926.735000", "163928.225000", "163929.715000", "163931.205000", "163932.695000", "163934.185000", "163935.675000", "163937.165000", "163938.655000", "163940.145000", "163941.635000", "163943.125000", "163944.615000", "163946.105000", "163947.595000", "163949.085000", "163950.575000", "163952.065000", "163953.555000", "163955.045000", "163956.535000", "163958.025000", "163959.515000", "164001.005000", "164002.495000", "164003.985000", "164005.475000", "164006.965000", "164008.455000", "164009.945000", "164011.435000", "164012.925000", "164014.415000", "164015.905000", "164017.395000", "164018.885000", "164020.375000", "164021.865000", "164023.355000", "164024.845000", "164026.335000", "164027.825000", "164029.315000", "164030.805000", "164032.295000", "164033.785000", "164035.275000", "164036.765000", "164038.255000", "164039.745000", "164041.235000", "164042.725000", "164044.215000", "164045.705000", "164047.195000", "164048.685000", "164050.175000", "164051.665000", "164053.155000", "164054.645000", "164056.135000", "164057.625000", "164059.115000", "164100.605000", "164102.095000", "164103.585000", "164105.075000", "164106.565000", "164108.055000", "164109.545000", "164111.035000", "164112.525000", "164114.015000", "164115.505000", "164116.995000", "164118.485000", "164119.975000", "164121.465000", "164122.955000", "164124.445000", "164125.935000", "164127.425000", "164128.915000", "164130.405000", "164131.895000", "164133.385000", "164134.875000", "164136.365000", "164137.855000", "164139.345000", "164140.835000", "164142.325000", "164143.815000", "164145.305000", "164146.795000", "164148.285000", "164149.775000", "164151.265000", "164152.755000", "164154.245000", "164155.735000", "164157.225000", "164158.715000", "164200.205000", "164201.695000", "164203.185000", "164204.675000", "164206.165000", "164207.655000", "164209.145000", "164210.635000", "164212.125000", "164213.615000", "164215.105000", "164216.595000", "164218.085000", "164219.575000", "164221.065000", "164222.555000", "164224.045000", "164225.535000", "164227.025000", "164228.515000", "164230.005000", "164231.495000", "164232.985000", "164234.475000", "164235.965000", "164237.455000", "164238.945000", "164240.435000", "164241.925000", "164243.415000", "164244.905000", "164246.395000", "164247.885000", "164249.375000", "164250.865000", "164252.355000", "164253.845000", "164255.335000", "164256.825000", "164258.315000", "164259.805000", "164301.295000", "164302.785000", "164304.275000", "164305.765000", "164307.255000", "164308.745000", "164310.235000", "164311.725000", "164313.215000", "164314.705000", "164316.195000", "164317.685000", "164319.175000", "164320.665000", "164322.155000", "164323.645000", "164325.135000", "164326.625000", "164328.115000", "164329.605000", "164331.095000", "164332.585000", "164334.075000", "164335.565000", "164337.055000", "164338.545000", "164340.035000", "164341.525000", "164343.015000", "164344.505000", "164345.995000", "164347.485000", "164348.975000", "164350.465000", "164351.955000", "164353.445000", "164354.935000", "164356.425000", "164357.915000", "164359.405000", "164400.895000", "164402.385000", "164403.875000", "164405.365000", "164406.855000", "164408.345000", "164409.835000", "164411.325000", "164412.815000", "164414.305000", "164415.795000"],
      "ContentTime": ["163353.156000", "163353.159000", "163353.162000", "163353.165000", "163353.168000", "163353.176000", "163353.184000", "163353.187000", "163353.190000", "163353.193000", "163353.199000", "163353.202000", "163353.205000", "163353.208000", "163353.215000", "163353.217000", "163353.220000", "163353.223000", "163353.226000", "163353.229000", "163413.126000", "163413.129000", "163413.132000", "163413.135000", "163413.138000", "163413.142000", "163413.144000", "163413.147000", "163413.150000", "163413.154000", "163413.157000", "163413.172000", "163413.175000", "163413.179000", "163413.181000", "163413.184000", "163413.187000", "163413.191000", "163413.194000", "163413.197000", "163433.126000", "163433.129000", "163433.132000", "163433.135000", "163433.138000", "163433.141000", "163433.144000", "163433.147000", "163433.150000", "163433.153000", "163433.161000", "163433.164000", "163433.167000", "163433.171000", "163433.174000", "163433.177000", "163433.179000", "163433.183000", "163433.186000", "163433.189000", "163453.127000", "163453.130000", "163453.133000", "163453.136000", "163453.139000", "163453.143000", "163453.145000", "163453.149000", "163453.151000", "163453.155000", "163453.158000", "163453.161000", "163453.164000", "163453.167000", "163453.170000", "163453.173000", "163453.176000", "163453.179000", "163453.182000", "163453.185000", "163513.126000", "163513.129000", "163513.132000", "163513.135000", "163513.138000", "163513.141000", "163513.144000", "163513.147000", "163513.150000", "163513.153000", "163513.156000", "163513.159000", "163513.162000", "163513.165000", "163513.168000", "163513.171000", "163513.174000", "163513.177000", "163513.180000", "163513.184000", "163513.186000", "163553.126000", "163553.129000", "163553.132000", "163553.135000", "163553.138000", "163553.141000", "163553.144000", "163553.147000", "163553.150000", "163553.153000", "163553.157000", "163553.160000", "163553.163000", "163553.166000", "163553.169000", "163553.172000", "163553.175000", "163553.178000", "163553.181000", "163553.184000", "163553.187000", "163553.190000", "163553.193000", "163553.196000", "163553.199000", "163553.202000", "163553.205000", "163553.208000", "163633.126000", "163633.129000", "163633.132000", "163633.135000", "163633.138000", "163633.141000", "163633.144000", "163633.147000", "163633.151000", "163633.153000", "163633.156000", "163633.159000", "163633.163000", "163633.166000", "163633.169000", "163633.172000", "163633.175000", "163633.178000", "163633.181000", "163633.184000", "163633.187000", "163633.190000", "163633.193000", "163633.196000", "163633.199000", "163633.202000", "163633.205000", "163713.127000", "163713.130000", "163713.133000", "163713.136000", "163713.139000", "163713.142000", "163713.145000", "163713.148000", "163713.151000", "163713.154000", "163713.157000", "163713.161000", "163713.164000", "163713.167000", "163713.170000", "163713.173000", "163713.176000", "163713.179000", "163713.182000", "163713.185000", "163713.188000", "163713.191000", "163713.194000", "163713.197000", "163713.200000", "163713.203000", "163713.206000", "163753.126000", "163753.129000", "163753.133000", "163753.136000", "163753.152000", "163753.155000", "163753.158000", "163753.161000", "163753.165000", "163753.168000", "163753.171000", "163753.174000", "163753.177000", "163753.180000", "163753.183000", "163753.186000", "163753.189000", "163753.192000", "163753.195000", "163753.198000", "163753.202000", "163753.205000", "163753.208000", "163753.211000", "163753.214000", "163753.217000", "163833.126000", "163833.129000", "163833.132000", "163833.135000", "163833.139000", "163833.142000", "163833.145000", "163833.148000", "163833.151000", "163833.162000", "163833.165000", "163833.168000", "163833.171000", "163833.174000", "163833.177000", "163833.180000", "163833.184000", "163833.187000", "163833.190000", "163833.193000", "163833.196000", "163833.199000", "163833.202000", "163833.205000", "163833.208000", "163833.211000", "163833.214000", "163913.127000", "163913.130000", "163913.133000", "163913.136000", "163913.140000", "163913.143000", "163913.146000", "163913.149000", "163913.152000", "163913.155000", "163913.158000", "163913.161000", "163913.164000", "163913.167000", "163913.170000", "163913.173000", "163913.176000", "163913.182000", "163913.185000", "163913.188000", "163913.191000", "163913.194000", "163913.197000", "163913.200000", "163913.203000", "163913.206000", "163913.209000", "163953.126000", "163953.129000", "163953.132000", "163953.135000", "163953.138000", "163953.141000", "163953.145000", "163953.148000", "163953.151000", "163953.154000", "163953.157000", "163953.160000", "163953.163000", "163953.166000", "163953.169000", "163953.172000", "163953.175000", "163953.178000", "163953.181000", "163953.184000", "163953.187000", "163953.190000", "163953.193000", "163953.196000", "163953.199000", "163953.202000", "163953.206000", "164033.126000", "164033.129000", "164033.133000", "164033.136000", "164033.139000", "164033.142000", "164033.145000", "164033.148000", "164033.151000", "164033.154000", "164033.157000", "164033.160000", "164033.163000", "164033.166000", "164033.169000", "164033.172000", "164033.175000", "164033.178000", "164033.181000", "164033.184000", "164033.187000", "164033.190000", "164033.194000", "164033.197000", "164033.200000", "164033.203000", "164033.206000", "164113.126000", "164113.129000", "164113.132000", "164113.135000", "164113.139000", "164113.142000", "164113.144000", "164113.147000", "164113.151000", "164113.154000", "164113.157000", "164113.160000", "164113.163000", "164113.166000", "164113.169000", "164113.172000", "164113.175000", "164113.178000", "164113.181000", "164113.184000", "164113.187000", "164113.190000", "164113.193000", "164113.196000", "164113.199000", "164113.202000", "164113.205000", "164153.127000", "164153.130000", "164153.134000", "164153.137000", "164153.141000", "164153.145000", "164153.148000", "164153.152000", "164153.155000", "164153.158000", "164153.161000", "164153.164000", "164153.167000", "164153.170000", "164153.173000", "164153.176000", "164153.179000", "164153.182000", "164153.185000", "164153.188000", "164153.191000", "164153.194000", "164153.197000", "164153.200000", "164153.203000", "164153.206000", "164233.126000", "164233.129000", "164233.132000", "164233.136000", "164233.138000", "164233.142000", "164233.145000", "164233.148000", "164233.151000", "164233.154000", "164233.157000", "164233.186000", "164233.189000", "164233.193000", "164233.206000", "164233.209000", "164233.212000", "164233.215000", "164233.218000", "164233.221000", "164233.224000", "164233.227000", "164233.230000", "164233.233000", "164233.236000", "164233.239000", "164233.242000", "164313.126000", "164313.129000", "164313.132000", "164313.135000", "164313.139000", "164313.142000", "164313.145000", "164313.148000", "164313.151000", "164313.154000", "164313.157000", "164313.169000", "164313.172000", "164313.175000", "164313.178000", "164313.181000", "164313.184000", "164313.187000", "164313.190000", "164313.193000", "164313.196000", "164313.199000", "164313.202000", "164313.205000", "164313.208000", "164313.211000", "164313.214000", "164353.127000", "164353.130000", "164353.133000", "164353.137000", "164353.140000", "164353.143000", "164353.146000", "164353.149000", "164353.152000", "164353.155000", "164353.158000", "164353.161000", "164353.164000", "164353.167000", "164353.170000", "164353.173000", "164353.176000", "164353.179000", "164353.183000", "164353.186000", "164353.189000", "164353.192000", "164353.195000", "164353.198000", "164353.201000", "164353.204000", "164353.207000", "164417.730000", "164417.734000", "164417.737000", "164417.740000", "164417.743000", "164417.746000", "164417.749000", "164417.752000", "164417.755000", "164417.758000", "164417.761000", "164417.764000", "164417.767000", "164417.770000", "164417.774000", "164417.777000", "164417.780000"],
