{
  "AcquisitionMatrixPE": 104,
  "AcquisitionNumber": 1,
  "AcquisitionTime": "16:43:33.442500",
  "BandwidthPerPixelPhaseEncode": 17.17,
  "BaseResolution": 104,
  "BodyPartExamined": "BRAIN",
  "CoilString": "HC1-7;NC1_2",
  "ConsistencyInfo": "N4_VE11C_LATEST_20160120",
  "ConversionSoftware": "dcm2niix",
  "ConversionSoftwareVersion": "v1.0.20190902",
  "DerivedVendorReportedEchoSpacing": 0.000560011,
  "DeviceSerialNumber": "167006",
  "DwellTime": 2.1e-06,
  "EchoTime": 0.037,
  "EchoTrainLength": 104,
  "EffectiveEchoSpacing": 0.000560011,
  "FlipAngle": 52,
  "ImageComments": "Unaliased_MB4_PE3_LB",
  "ImageOrientationPatientDICOM": [0.999513, -0.0305894, -0.00622688, 0.0261732, 0.929898, -0.366886],
  "ImageType": [
    "ORIGINAL",
    "PRIMARY",
    "M",
    "MB",
    "ND",
    "MOSAIC"
],
  "ImagingFrequency": 123.259,
  "InPlanePhaseEncodingDirectionDICOM": "COL",
  "InstitutionAddress": "Chemin_Queen-Mary_4565_Montreal_District_CA_H3W_1W5",
  "InstitutionName": "IUGM",
  "InstitutionalDepartmentName": "Department",
  "MRAcquisitionType": "2D",
  "MagneticFieldStrength": 3,
  "Manufacturer": "Siemens",
  "ManufacturersModelName": "Prisma_fit",
  "Modality": "MR",
  "MultibandAccelerationFactor": 4,
  "PartialFourier": 1,
  "PatientPosition": "HFS",
  "PercentPhaseFOV": 100,
  "PhaseEncodingDirection": "j",
  "PhaseEncodingSteps": 104,
  "PhaseResolution": 1,
  "PixelBandwidth": 2290,
  "ProcedureStepDescription": "video_friends",
  "ProtocolName": "func_task-friends-s03e14b",
  "PulseSequenceDetails": "%CustomerSeq%_cmrr_mbep2d_bold",
  "ReceiveCoilActiveElements": "HC1-7;NC1,2",
  "ReceiveCoilName": "HeadNeck_64",
  "ReconMatrixPE": 104,
  "RepetitionTime": 1.49,
  "SAR": 0.0352564,
  "ScanOptions": "FS",
  "ScanningSequence": "EP",
  "SequenceName": "epfid2d1_104",
  "SequenceVariant": "SK_SS",
  "SeriesDescription": "func_task-friends-s03e14b",
  "SeriesNumber": 11,
  "ShimSetting": [615, -7281, -8840, 405, 0, -472, 54, 33],
  "SliceThickness": 2,
  "SliceTiming": [0, 0.785, 0.1, 0.8825, 0.1975, 0.98, 0.295, 1.08, 0.3925, 1.1775, 0.49, 1.275, 0.59, 1.3725, 0.6875, 0, 0.785, 0.1, 0.8825, 0.1975, 0.98, 0.295, 1.08, 0.3925, 1.1775, 0.49, 1.275, 0.59, 1.3725, 0.6875, 0, 0.785, 0.1, 0.8825, 0.1975, 0.98, 0.295, 1.08, 0.3925, 1.1775, 0.49, 1.275, 0.59, 1.3725, 0.6875, 0, 0.785, 0.1, 0.8825, 0.1975, 0.98, 0.295, 1.08, 0.3925, 1.1775, 0.49, 1.275, 0.59, 1.3725, 0.6875],
  "SoftwareVersions": "syngo_MR_E11",
  "SpacingBetweenSlices": 2,
  "StationName": "MRC35049",
  "TaskName": "s03e14b",
  "TotalReadoutTime": 0.0576811,
  "TxRefAmp": 235.381,
  "WipMemBlock": "06b87a3e-a620-479b-8c96-1e44f5b9250b||Sequence: R016 ve11c/master r/e634e98; Dec 19 2017 11:00:25 by eja",
  "dcmmeta_affine": [
    [-1.9990252256393433, 0.05234638974070549, -0.03402632474899292, 98.1148681640625],
    [0.061178747564554214, 1.8597955703735352, -0.7330876588821411, -72.30042266845703],
    [-0.012453759089112282, 0.7337712049484253, 1.8604904413223267, -69.26522827148438],
    [0.0, 0.0, 0.0, 1.0]
],
  "dcmmeta_reorient_transform": [
    [0.0, -1.0, 0.0, 103.0],
    [1.0, 0.0, 0.0, 0.0],
    [0.0, 0.0, 1.0, 0.0],
    [0.0, 0.0, 0.0, 1.0]
],
  "dcmmeta_shape": [104, 104, 60, 458],
  "dcmmeta_slice_dim": 2,
  "dcmmeta_version": 0.6,
  "global": {
    "const": {
      "AcquisitionMatrix": [104, 0, 0, 104],
      "AngioFlag": "N",
      "BitsAllocated": 16,
      "BitsStored": 16,
      "BodyPartExamined": "BRAIN",
      "Columns": 832,
      "EchoNumbers": 1,
      "EchoTime": 37.0,
      "EchoTrainLength": 104,
      "FlipAngle": 52.0,
      "HighBit": 15,
      "ImageOrientationPatient": [0.99951263931322, -0.0305893743284, -0.0062268797425, 0.02617319499427, 0.92989779662494, -0.3668856111868],
      "ImagePositionPatient": [-850.20582995079, -773.95505702726, 277.9390986787],
      "ImageType": [
        "ORIGINAL",
        "PRIMARY",
        "M",
        "MB",
        "ND",
        "MOSAIC"
],
      "ImagedNucleus": "1H",
      "ImagingFrequency": 123.258964,
      "InPlanePhaseEncodingDirection": "COL",
      "MRAcquisitionType": "2D",
      "MagneticFieldStrength": 3.0,
      "Manufacturer": "SIEMENS",
      "ManufacturerModelName": "Prisma_fit",
      "Modality": "MR",
      "NumberOfAverages": 1.0,
      "NumberOfPhaseEncodingSteps": 104,
      "PercentPhaseFieldOfView": 100.0,
      "PercentSampling": 100.0,
      "PerformedProcedureStepStartTime": "155507.218000",
      "PhotometricInterpretation": "MONOCHROME2",
      "PixelBandwidth": 2290.0,
      "PixelRepresentation": 0,
      "PixelSpacing": [2.0, 2.0],
      "ProtocolName": "func_task-friends-s03e14b",
      "RepetitionTime": 1490.0,
      "Rows": 832,
      "SAR": 0.03525637504034,
      "SamplesPerPixel": 1,
      "ScanOptions": "FS",
      "ScanningSequence": "EP",
      "SequenceName": "epfid2d1_104",
      "SequenceVariant": [
        "SK",
        "SS"
],
      "SeriesDescription": "func_task-friends-s03e14b",
      "SeriesNumber": 11,
      "SeriesTime": "164455.536000",
      "SliceLocation": -39.601621152262,
      "SliceThickness": 2.0,
      "SmallestImagePixelValue": 0,
      "SoftwareVersions": "syngo MR E11",
      "SpacingBetweenSlices": 1.9999999909428,
      "SpecificCharacterSet": "ISO_IR 100",
      "StudyID": "1",
      "StudyTime": "155507.136000",
      "TransmitCoilName": "Body",
      "VariableFlipAngleFlag": "N",
      "WindowCenterWidthExplanation": "Algo1",
      "dBdt": 0.0},
    "slices": {}
  },
  "time": {
    "samples": {
      "AcquisitionNumber": [1, 2, 3, 4, 5, 6, 7, 8, 9, 10, 11, 12, 13, 14, 15, 16, 17, 18, 19, 20, 21, 22, 23, 24, 25, 26, 27, 28, 29, 30, 31, 32, 33, 34, 35, 36, 37, 38, 39, 40, 41, 42, 43, 44, 45, 46, 47, 48, 49, 50, 51, 52, 53, 54, 55, 56, 57, 58, 59, 60, 61, 62, 63, 64, 65, 66, 67, 68, 69, 70, 71, 72, 73, 74, 75, 76, 77, 78, 79, 80, 81, 82, 83, 84, 85, 86, 87, 88, 89, 90, 91, 92, 93, 94, 95, 96, 97, 98, 99, 100, 101, 102, 103, 104, 105, 106, 107, 108, 109, 110, 111, 112, 113, 114, 115, 116, 117, 118, 119, 120, 121, 122, 123, 124, 125, 126, 127, 128, 129, 130, 131, 132, 133, 134, 135, 136, 137, 138, 139, 140, 141, 142, 143, 144, 145, 146, 147, 148, 149, 150, 151, 152, 153, 154, 155, 156, 157, 158, 159, 160, 161, 162, 163, 164, 165, 166, 167, 168, 169, 170, 171, 172, 173, 174, 175, 176, 177, 178, 179, 180, 181, 182, 183, 184, 185, 186, 187, 188, 189, 190, 191, 192, 193, 194, 195, 196, 197, 198, 199, 200, 201, 202, 203, 204, 205, 206, 207, 208, 209, 210, 211, 212, 213, 214, 215, 216, 217, 218, 219, 220, 221, 222, 223, 224, 225, 226, 227, 228, 229, 230, 231, 232, 233, 234, 235, 236, 237, 238, 239, 240, 241, 242, 243, 244, 245, 246, 247, 248, 249, 250, 251, 252, 253, 254, 255, 256, 257, 258, 259, 260, 261, 262, 263, 264, 265, 266, 267, 268, 269, 270, 271, 272, 273, 274, 275, 276, 277, 278, 279, 280, 281, 282, 283, 284, 285, 286, 287, 288, 289, 290, 291, 292, 293, 294, 295, 296, 297, 298, 299, 300, 301, 302, 303, 304, 305, 306, 307, 308, 309, 310, 311, 312, 313, 314, 315, 316, 317, 318, 319, 320, 321, 322, 323, 324, 325, 326, 327, 328, 329, 330, 331, 332, 333, 334, 335, 336, 337, 338, 339, 340, 341, 342, 343, 344, 345, 346, 347, 348, 349, 350, 351, 352, 353, 354, 355, 356, 357, 358, 359, 360, 361, 362, 363, 364, 365, 366, 367, 368, 369, 370, 371, 372, 373, 374, 375, 376, 377, 378, 379, 380, 381, 382, 383, 384, 385, 386, 387, 388, 389, 390, 391, 392, 393, 394, 395, 396, 397, 398, 399, 400, 401, 402, 403, 404, 405, 406, 407, 408, 409, 410, 411, 412, 413, 414, 415, 416, 417, 418, 419, 420, 421, 422, 423, 424, 425, 426, 427, 428, 429, 430, 431, 432, 433, 434, 435, 436, 437, 438, 439, 440, 441, 442, 443, 444, 445, 446, 447, 448, 449, 450, 451, 452, 453, 454, 455, 456, 457, 458],
      "AcquisitionTime": ["164333.442500", "164334.932500", "164336.422500", "164337.912500", "164339.402500", "164340.892500", "164342.382500", "164343.872500", "164345.362500", "164346.852500", "164348.342500", "164349.832500", "164351.322500", "164352.812500", "164354.302500", "164355.792500", "164357.282500", "164358.772500", "164400.262500", "164401.752500", "164403.242500", "164404.732500", "164406.222500", "164407.712500", "164409.202500", "164410.692500", "164412.182500", "164413.672500", "164415.162500", "164416.652500", "164418.142500", "164419.632500", "164421.122500", "164422.612500", "164424.102500", "164425.592500", "164427.082500", "164428.572500", "164430.062500", "164431.552500", "164433.042500", "164434.532500", "164436.022500", "164437.512500", "164439.002500", "164440.492500", "164441.982500", "164443.472500", "164444.962500", "164446.452500", "164447.942500", "164449.432500", "164450.922500", "164452.412500", "164453.902500", "164455.392500", "164456.882500", "164458.372500", "164459.862500", "164501.352500", "164502.842500", "164504.332500", "164505.822500", "164507.312500", "164508.802500", "164510.292500", "164511.782500", "164513.272500", "164514.762500", "164516.252500", "164517.742500", "164519.232500", "164520.722500", "164522.212500", "164523.702500", "164525.192500", "164526.682500", "164528.172500", "164529.662500", "164531.152500", "164532.642500", "164534.132500", "164535.622500", "164537.112500", "164538.602500", "164540.092500", "164541.582500", "164543.072500", "164544.562500", "164546.052500", "164547.542500", "164549.032500", "164550.522500", "164552.012500", "164553.502500", "164554.992500", "164556.482500", "164557.972500", "164559.462500", "164600.952500", "164602.442500", "164603.932500", "164605.422500", "164606.912500", "164608.402500", "164609.892500", "164611.382500", "164612.872500", "164614.362500", "164615.852500", "164617.342500", "164618.832500", "164620.322500", "164621.812500", "164623.302500", "164624.792500", "164626.282500", "164627.772500", "164629.262500", "164630.752500", "164632.242500", "164633.732500", "164635.222500", "164636.712500", "164638.202500", "164639.692500", "164641.182500", "164642.672500", "164644.162500", "164645.652500", "164647.142500", "164648.632500", "164650.122500", "164651.612500", "164653.102500", "164654.592500", "164656.082500", "164657.572500", "164659.062500", "164700.552500", "164702.042500", "164703.532500", "164705.022500", "164706.512500", "164708.002500", "164709.492500", "164710.982500", "164712.472500", "164713.962500", "164715.452500", "164716.942500", "164718.432500", "164719.922500", "164721.412500", "164722.902500", "164724.392500", "164725.882500", "164727.372500", "164728.862500", "164730.352500", "164731.842500", "164733.332500", "164734.822500", "164736.312500", "164737.802500", "164739.292500", "164740.782500", "164742.272500", "164743.762500", "164745.252500", "164746.742500", "164748.232500", "164749.722500", "164751.212500", "164752.702500", "164754.192500", "164755.682500", "164757.172500", "164758.662500", "164800.152500", "164801.642500", "164803.132500", "164804.622500", "164806.112500", "164807.602500", "164809.092500", "164810.582500", "164812.072500", "164813.562500", "164815.052500", "164816.542500", "164818.032500", "164819.522500", "164821.012500", "164822.502500", "164823.992500", "164825.482500", "164826.972500", "164828.462500", "164829.952500", "164831.442500", "164832.932500", "164834.422500", "164835.912500", "164837.402500", "164838.892500", "164840.382500", "164841.872500", "164843.362500", "164844.852500", "164846.342500", "164847.832500", "164849.322500", "164850.812500", "164852.302500", "164853.792500", "164855.282500", "164856.772500", "164858.262500", "164859.752500", "164901.242500", "164902.732500", "164904.222500", "164905.712500", "164907.202500", "164908.692500", "164910.182500", "164911.672500", "164913.162500", "164914.652500", "164916.142500", "164917.632500", "164919.122500", "164920.612500", "164922.102500", "164923.592500", "164925.082500", "164926.572500", "164928.062500", "164929.552500", "164931.042500", "164932.532500", "164934.022500", "164935.512500", "164937.002500", "164938.492500", "164939.982500", "164941.472500", "164942.962500", "164944.452500", "164945.942500", "164947.432500", "164948.922500", "164950.412500", "164951.902500", "164953.392500", "164954.882500", "164956.372500", "164957.862500", "164959.352500", "165000.842500", "165002.332500", "165003.822500", "165005.312500", "165006.802500", "165008.292500", "165009.782500", "165011.272500", "165012.762500", "165014.252500", "165015.742500", "165017.232500", "165018.722500", "165020.212500", "165021.702500", "165023.192500", "165024.682500", "165026.172500", "165027.662500", "165029.152500", "165030.642500", "165032.132500", "165033.622500", "165035.112500", "165036.602500", "165038.092500", "165039.582500", "165041.072500", "165042.562500", "165044.052500", "165045.542500", "165047.032500", "165048.522500", "165050.012500", "165051.502500", "165052.992500", "165054.482500", "165055.972500", "165057.462500", "165058.952500", "165100.442500", "165101.932500", "165103.422500", "165104.912500", "165106.402500", "165107.892500", "165109.382500", "165110.872500", "165112.362500", "165113.852500", "165115.342500", "165116.832500", "165118.322500", "165119.812500", "165121.302500", "165122.792500", "165124.282500", "165125.772500", "165127.262500", "165128.752500", "165130.242500", "165131.732500", "165133.222500", "165134.712500", "165136.202500", "165137.692500", "165139.182500", "165140.672500", "165142.162500", "165143.652500", "165145.142500", "165146.632500", "165148.122500", "165149.612500", "165151.102500", "165152.592500", "165154.082500", "165155.572500", "165157.062500", "165158.552500", "165200.042500", "165201.532500", "165203.022500", "165204.512500", "165206.002500", "165207.492500", "165208.982500", "165210.472500", "165211.962500", "165213.452500", "165214.942500", "165216.432500", "165217.922500", "165219.412500", "165220.902500", "165222.392500", "165223.882500", "165225.372500", "165226.862500", "165228.352500", "165229.842500", "165231.332500", "165232.822500", "165234.312500", "165235.802500", "165237.292500", "165238.782500", "165240.272500", "165241.762500", "165243.252500", "165244.742500", "165246.232500", "165247.722500", "165249.212500", "165250.702500", "165252.192500", "165253.682500", "165255.172500", "165256.662500", "165258.152500", "165259.642500", "165301.132500", "165302.622500", "165304.112500", "165305.602500", "165307.092500", "165308.582500", "165310.072500", "165311.562500", "165313.052500", "165314.542500", "165316.032500", "165317.522500", "165319.012500", "165320.502500", "165321.992500", "165323.482500", "165324.972500", "165326.462500", "165327.952500", "165329.442500", "165330.932500", "165332.422500", "165333.912500", "165335.402500", "165336.892500", "165338.382500", "165339.872500", "165341.362500", "165342.852500", "165344.342500", "165345.832500", "165347.322500", "165348.812500", "165350.302500", "165351.792500", "165353.282500", "165354.772500", "165356.262500", "165357.752500", "165359.242500", "165400.732500", "165402.222500", "165403.712500", "165405.202500", "165406.692500", "165408.182500", "165409.672500", "165411.162500", "165412.652500", "165414.142500", "165415.632500", "165417.122500", "165418.612500", "165420.102500", "165421.592500", "165423.082500", "165424.572500", "165426.062500", "165427.552500", "165429.042500", "165430.532500", "165432.022500", "165433.512500", "165435.002500", "165436.492500", "165437.982500", "165439.472500", "165440.962500", "165442.452500", "165443.942500", "165445.432500", "165446.922500", "165448.412500", "165449.902500", "165451.392500", "165452.882500", "165454.372500"],
      "ContentTime": ["164455.539000", "164455.542000", "164455.545000", "164455.548000", "164455.551000", "164455.554000", "164455.557000", "164455.559000", "164455.562000", "164455.565000", "164455.568000", "164455.571000", "164455.574000", "164455.577000", "164455.580000", "164455.583000", "164455.586000", "164455.589000", "164455.592000", "164455.595000", "164455.598000", "164455.600000", "164455.603000", "164455.606000", "164455.609000", "164455.612000", "164455.615000", "164455.618000", "164455.621000", "164515.496000", "164515.499000", "164515.502000", "164515.505000", "164515.508000", "164515.511000", "164515.517000", "164515.520000", "164515.523000", "164515.526000", "164515.528000", "164515.531000", "164515.534000", "164515.537000", "164515.540000", "164515.543000", "164515.546000", "164515.549000", "164515.552000", "164515.554000", "164535.496000", "164535.499000", "164535.502000", "164535.505000", "164535.508000", "164535.511000", "164535.513000", "164535.516000", "164535.519000", "164535.527000", "164535.530000", "164535.543000", "164535.546000", "164535.549000", "164535.552000", "164535.555000", "164535.558000", "164535.561000", "164535.563000", "164535.566000", "164555.496000", "164555.499000", "164555.502000", "164555.505000", "164555.508000", "164555.511000", "164555.513000", "164555.516000", "164555.519000", "164555.522000", "164555.525000", "164555.528000", "164555.531000", "164555.540000", "164555.543000", "164555.546000", "164555.548000", "164555.551000", "164555.554000", "164555.557000", "164635.495000", "164635.498000", "164635.501000", "164635.513000", "164635.524000", "164635.527000", "164635.530000", "164635.533000", "164635.536000", "164635.538000", "164635.541000", "164635.544000", "164635.547000", "164635.557000", "164635.560000", "164635.563000", "164635.566000", "164635.569000", "164635.572000", "164635.575000", "164635.578000", "164635.581000", "164635.584000", "164635.587000", "164635.589000", "164635.592000", "164635.595000", "164635.598000", "164635.601000", "164635.604000", "164635.607000", "164635.610000", "164715.495000", "164715.498000", "164715.501000", "164715.504000", "164715.507000", "164715.510000", "164715.513000", "164715.516000", "164715.518000", "164715.521000", "164715.524000", "164715.527000", "164715.530000", "164715.533000", "164715.536000", "164715.539000", "164715.542000", "164715.545000", "164715.548000", "164715.550000", "164715.553000", "164715.556000", "164715.559000", "164715.562000", "164715.565000", "164715.568000", "164715.571000", "164755.496000", "164755.499000", "164755.502000", "164755.505000", "164755.508000", "164755.511000", "164755.514000", "164755.517000", "164755.520000", "164755.523000", "164755.526000", "164755.529000", "164755.532000", "164755.534000", "164755.537000", "164755.540000", "164755.543000", "164755.546000", "164755.549000", "164755.552000", "164755.555000", "164755.558000", "164755.561000", "164755.564000", "164755.566000", "164755.569000", "164755.572000", "164835.495000", "164835.498000", "164835.501000", "164835.504000", "164835.507000", "164835.510000", "164835.513000", "164835.516000", "164835.519000", "164835.522000", "164835.525000", "164835.528000", "164835.531000", "164835.534000", "164835.537000", "164835.539000", "164835.542000", "164835.545000", "164835.548000", "164835.551000", "164835.554000", "164835.557000", "164835.560000", "164835.562000", "164835.565000", "164835.568000", "164835.571000", "164915.495000", "164915.498000", "164915.501000", "164915.504000", "164915.507000", "164915.510000", "164915.513000", "164915.516000", "164915.519000", "164915.522000", "164915.525000", "164915.528000", "164915.530000", "164915.533000", "164915.536000", "164915.539000", "164915.542000", "164915.545000", "164915.548000", "164915.551000", "164915.554000", "164915.557000", "164915.560000", "164915.563000", "164915.566000", "164915.568000", "164915.571000", "164955.496000", "164955.499000", "164955.502000", "164955.505000", "164955.508000", "164955.511000", "164955.514000", "164955.517000", "164955.520000", "164955.523000", "164955.525000", "164955.529000", "164955.531000", "164955.534000", "164955.537000", "164955.540000", "164955.543000", "164955.546000", "164955.549000", "164955.552000", "164955.555000", "164955.558000", "164955.561000", "164955.564000", "164955.567000", "164955.570000", "164955.573000", "165035.496000", "165035.499000", "165035.502000", "165035.505000", "165035.508000", "165035.511000", "165035.514000", "165035.517000", "165035.520000", "165035.522000", "165035.525000", "165035.528000", "165035.531000", "165035.534000", "165035.537000", "165035.540000", "165035.543000", "165035.546000", "165035.549000", "165035.552000", "165035.555000", "165035.557000", "165035.560000", "165035.563000", "165035.566000", "165035.569000", "165035.572000", "165115.495000", "165115.498000", "165115.501000", "165115.504000", "165115.507000", "165115.510000", "165115.513000", "165115.516000", "165115.519000", "165115.522000", "165115.524000", "165115.541000", "165115.545000", "165115.555000", "165115.558000", "165115.561000", "165115.564000", "165115.567000", "165115.570000", "165115.573000", "165115.576000", "165115.579000", "165115.581000", "165115.584000", "165115.587000", "165115.590000", "165155.495000", "165155.498000", "165155.501000", "165155.504000", "165155.507000", "165155.510000", "165155.513000", "165155.516000", "165155.518000", "165155.521000", "165155.524000", "165155.527000", "165155.530000", "165155.533000", "165155.536000", "165155.539000", "165155.542000", "165155.545000", "165155.548000", "165155.551000", "165155.554000", "165155.557000", "165155.559000", "165155.562000", "165155.565000", "165155.568000", "165155.571000", "165235.496000", "165235.499000", "165235.503000", "165235.506000", "165235.508000", "165235.511000", "165235.514000", "165235.517000", "165235.520000", "165235.523000", "165235.526000", "165235.529000", "165235.532000", "165235.535000", "165235.538000", "165235.541000", "165235.544000", "165235.547000", "165235.550000", "165235.553000", "165235.555000", "165235.558000", "165235.561000", "165235.564000", "165235.567000", "165235.570000", "165235.573000", "165315.495000", "165315.498000", "165315.501000", "165315.504000", "165315.507000", "165315.510000", "165315.513000", "165315.516000", "165315.519000", "165315.522000", "165315.525000", "165315.527000", "165315.531000", "165315.533000", "165315.536000", "165315.539000", "165315.542000", "165315.545000", "165315.548000", "165315.551000", "165315.554000", "165315.557000", "165315.560000", "165315.563000", "165315.566000", "165315.569000", "165315.572000", "165355.495000", "165355.498000", "165355.501000", "165355.504000", "165355.507000", "165355.510000", "165355.513000", "165355.516000", "165355.519000", "165355.522000", "165355.524000", "165355.527000", "165355.530000", "165355.533000", "165355.536000", "165355.539000", "165355.542000", "165355.545000", "165355.548000", "165355.551000", "165355.554000", "165355.557000", "165355.560000", "165355.563000", "165355.565000", "165355.568000", "165355.571000", "165435.496000", "165435.499000", "165435.502000", "165435.505000", "165435.508000", "165435.511000", "165435.514000", "165435.517000", "165435.520000", "165435.522000", "165435.525000", "165435.528000", "165435.531000", "165435.534000", "165435.537000", "165435.540000", "165435.543000", "165435.546000", "165435.549000", "165435.552000", "165435.555000", "165435.557000", "165435.560000", "165435.563000", "165435.566000", "165435.569000", "165435.572000", "165456.176000", "165456.179000", "165456.182000", "165456.185000", "165456.188000", "165456.191000", "165456.194000", "165456.197000", "165456.200000", "165456.203000", "165456.206000", "165456.209000", "165456.212000", "165456.216000"],
