{
  "AcquisitionMatrixPE": 104,
  "AcquisitionNumber": 1,
  "AcquisitionTime": "16:55:19.262500",
  "BandwidthPerPixelPhaseEncode": 17.17,
  "BaseResolution": 104,
  "BodyPartExamined": "BRAIN",
  "CoilString": "HC1-7;NC1_2",
  "ConsistencyInfo": "N4_VE11C_LATEST_20160120",
  "ConversionSoftware": "dcm2niix",
  "ConversionSoftwareVersion": "v1.0.20190902",
  "DerivedVendorReportedEchoSpacing": 0.000560011,
  "DeviceSerialNumber": "167006",
  "DwellTime": 2.1e-06,
  "EchoTime": 0.037,
  "EchoTrainLength": 104,
  "EffectiveEchoSpacing": 0.000560011,
  "FlipAngle": 52,
  "ImageComments": "Unaliased_MB4_PE3_LB",
  "ImageOrientationPatientDICOM": [0.999513, -0.0305894, -0.00622688, 0.0261732, 0.929898, -0.366886],
  "ImageType": [
    "ORIGINAL",
    "PRIMARY",
    "M",
    "MB",
    "ND",
    "MOSAIC"
],
  "ImagingFrequency": 123.259,
  "InPlanePhaseEncodingDirectionDICOM": "COL",
  "InstitutionAddress": "Chemin_Queen-Mary_4565_Montreal_District_CA_H3W_1W5",
  "InstitutionName": "IUGM",
  "InstitutionalDepartmentName": "Department",
  "MRAcquisitionType": "2D",
  "MagneticFieldStrength": 3,
  "Manufacturer": "Siemens",
  "ManufacturersModelName": "Prisma_fit",
  "Modality": "MR",
  "MultibandAccelerationFactor": 4,
  "PartialFourier": 1,
  "PatientPosition": "HFS",
  "PercentPhaseFOV": 100,
  "PhaseEncodingDirection": "j",
  "PhaseEncodingSteps": 104,
  "PhaseResolution": 1,
  "PixelBandwidth": 2290,
  "ProcedureStepDescription": "video_friends",
  "ProtocolName": "func_task-friends-s03e15a",
  "PulseSequenceDetails": "%CustomerSeq%_cmrr_mbep2d_bold",
  "ReceiveCoilActiveElements": "HC1-7;NC1,2",
  "ReceiveCoilName": "HeadNeck_64",
  "ReconMatrixPE": 104,
  "RepetitionTime": 1.49,
  "SAR": 0.0352564,
  "ScanOptions": "FS",
  "ScanningSequence": "EP",
  "SequenceName": "epfid2d1_104",
  "SequenceVariant": "SK_SS",
  "SeriesDescription": "func_task-friends-s03e15a",
  "SeriesNumber": 13,
  "ShimSetting": [615, -7281, -8840, 405, 0, -472, 54, 33],
  "SliceThickness": 2,
  "SliceTiming": [0, 0.785, 0.0975, 0.8825, 0.195, 0.98, 0.295, 1.0775, 0.3925, 1.175, 0.49, 1.275, 0.5875, 1.3725, 0.685, 0, 0.785, 0.0975, 0.8825, 0.195, 0.98, 0.295, 1.0775, 0.3925, 1.175, 0.49, 1.275, 0.5875, 1.3725, 0.685, 0, 0.785, 0.0975, 0.8825, 0.195, 0.98, 0.295, 1.0775, 0.3925, 1.175, 0.49, 1.275, 0.5875, 1.3725, 0.685, 0, 0.785, 0.0975, 0.8825, 0.195, 0.98, 0.295, 1.0775, 0.3925, 1.175, 0.49, 1.275, 0.5875, 1.3725, 0.685],
  "SoftwareVersions": "syngo_MR_E11",
  "SpacingBetweenSlices": 2,
  "StationName": "MRC35049",
  "TaskName": "s03e15a",
  "TotalReadoutTime": 0.0576811,
  "TxRefAmp": 235.381,
  "WipMemBlock": "17e01693-9e18-4833-be70-0e5746612965||Sequence: R016 ve11c/master r/e634e98; Dec 19 2017 11:00:25 by eja",
  "dcmmeta_affine": [
    [-1.9990252256393433, 0.05234638974070549, -0.03402632474899292, 98.1148681640625],
    [0.061178747564554214, 1.8597955703735352, -0.7330876588821411, -72.30042266845703],
    [-0.012453759089112282, 0.7337712049484253, 1.8604904413223267, -69.26522827148438],
    [0.0, 0.0, 0.0, 1.0]
],
  "dcmmeta_reorient_transform": [
    [0.0, -1.0, 0.0, 103.0],
    [1.0, 0.0, 0.0, 0.0],
    [0.0, 0.0, 1.0, 0.0],
    [0.0, 0.0, 0.0, 1.0]
],
  "dcmmeta_shape": [104, 104, 60, 458],
  "dcmmeta_slice_dim": 2,
  "dcmmeta_version": 0.6,
  "global": {
    "const": {
      "AcquisitionMatrix": [104, 0, 0, 104],
      "AngioFlag": "N",
      "BitsAllocated": 16,
      "BitsStored": 16,
      "BodyPartExamined": "BRAIN",
      "Columns": 832,
      "EchoNumbers": 1,
      "EchoTime": 37.0,
      "EchoTrainLength": 104,
      "FlipAngle": 52.0,
      "HighBit": 15,
      "ImageOrientationPatient": [0.99951263931322, -0.0305893743284, -0.0062268797425, 0.02617319499427, 0.92989779662494, -0.3668856111868],
      "ImagePositionPatient": [-850.20582995079, -773.95505702726, 277.9390986787],
      "ImageType": [
        "ORIGINAL",
        "PRIMARY",
        "M",
        "MB",
        "ND",
        "MOSAIC"
],
      "ImagedNucleus": "1H",
      "ImagingFrequency": 123.25897,
      "InPlanePhaseEncodingDirection": "COL",
      "MRAcquisitionType": "2D",
      "MagneticFieldStrength": 3.0,
      "Manufacturer": "SIEMENS",
      "ManufacturerModelName": "Prisma_fit",
      "Modality": "MR",
      "NumberOfAverages": 1.0,
      "NumberOfPhaseEncodingSteps": 104,
      "PercentPhaseFieldOfView": 100.0,
      "PercentSampling": 100.0,
      "PerformedProcedureStepStartTime": "155507.218000",
      "PhotometricInterpretation": "MONOCHROME2",
      "PixelBandwidth": 2290.0,
      "PixelRepresentation": 0,
      "PixelSpacing": [2.0, 2.0],
      "ProtocolName": "func_task-friends-s03e15a",
      "RepetitionTime": 1490.0,
      "Rows": 832,
      "SAR": 0.03525637504034,
      "SamplesPerPixel": 1,
      "ScanOptions": "FS",
      "ScanningSequence": "EP",
      "SequenceName": "epfid2d1_104",
      "SequenceVariant": [
        "SK",
        "SS"
],
      "SeriesDescription": "func_task-friends-s03e15a",
      "SeriesNumber": 13,
      "SeriesTime": "165648.728000",
      "SliceLocation": -39.601621152262,
      "SliceThickness": 2.0,
      "SmallestImagePixelValue": 0,
      "SoftwareVersions": "syngo MR E11",
      "SpacingBetweenSlices": 1.9999999909428,
      "SpecificCharacterSet": "ISO_IR 100",
      "StudyID": "1",
      "StudyTime": "155507.136000",
      "TransmitCoilName": "Body",
      "VariableFlipAngleFlag": "N",
      "WindowCenterWidthExplanation": "Algo1",
      "dBdt": 0.0},
    "slices": {}
  },
  "time": {
    "samples": {
      "AcquisitionNumber": [1, 2, 3, 4, 5, 6, 7, 8, 9, 10, 11, 12, 13, 14, 15, 16, 17, 18, 19, 20, 21, 22, 23, 24, 25, 26, 27, 28, 29, 30, 31, 32, 33, 34, 35, 36, 37, 38, 39, 40, 41, 42, 43, 44, 45, 46, 47, 48, 49, 50, 51, 52, 53, 54, 55, 56, 57, 58, 59, 60, 61, 62, 63, 64, 65, 66, 67, 68, 69, 70, 71, 72, 73, 74, 75, 76, 77, 78, 79, 80, 81, 82, 83, 84, 85, 86, 87, 88, 89, 90, 91, 92, 93, 94, 95, 96, 97, 98, 99, 100, 101, 102, 103, 104, 105, 106, 107, 108, 109, 110, 111, 112, 113, 114, 115, 116, 117, 118, 119, 120, 121, 122, 123, 124, 125, 126, 127, 128, 129, 130, 131, 132, 133, 134, 135, 136, 137, 138, 139, 140, 141, 142, 143, 144, 145, 146, 147, 148, 149, 150, 151, 152, 153, 154, 155, 156, 157, 158, 159, 160, 161, 162, 163, 164, 165, 166, 167, 168, 169, 170, 171, 172, 173, 174, 175, 176, 177, 178, 179, 180, 181, 182, 183, 184, 185, 186, 187, 188, 189, 190, 191, 192, 193, 194, 195, 196, 197, 198, 199, 200, 201, 202, 203, 204, 205, 206, 207, 208, 209, 210, 211, 212, 213, 214, 215, 216, 217, 218, 219, 220, 221, 222, 223, 224, 225, 226, 227, 228, 229, 230, 231, 232, 233, 234, 235, 236, 237, 238, 239, 240, 241, 242, 243, 244, 245, 246, 247, 248, 249, 250, 251, 252, 253, 254, 255, 256, 257, 258, 259, 260, 261, 262, 263, 264, 265, 266, 267, 268, 269, 270, 271, 272, 273, 274, 275, 276, 277, 278, 279, 280, 281, 282, 283, 284, 285, 286, 287, 288, 289, 290, 291, 292, 293, 294, 295, 296, 297, 298, 299, 300, 301, 302, 303, 304, 305, 306, 307, 308, 309, 310, 311, 312, 313, 314, 315, 316, 317, 318, 319, 320, 321, 322, 323, 324, 325, 326, 327, 328, 329, 330, 331, 332, 333, 334, 335, 336, 337, 338, 339, 340, 341, 342, 343, 344, 345, 346, 347, 348, 349, 350, 351, 352, 353, 354, 355, 356, 357, 358, 359, 360, 361, 362, 363, 364, 365, 366, 367, 368, 369, 370, 371, 372, 373, 374, 375, 376, 377, 378, 379, 380, 381, 382, 383, 384, 385, 386, 387, 388, 389, 390, 391, 392, 393, 394, 395, 396, 397, 398, 399, 400, 401, 402, 403, 404, 405, 406, 407, 408, 409, 410, 411, 412, 413, 414, 415, 416, 417, 418, 419, 420, 421, 422, 423, 424, 425, 426, 427, 428, 429, 430, 431, 432, 433, 434, 435, 436, 437, 438, 439, 440, 441, 442, 443, 444, 445, 446, 447, 448, 449, 450, 451, 452, 453, 454, 455, 456, 457, 458],
      "AcquisitionTime": ["165519.262500", "165520.752500", "165522.242500", "165523.732500", "165525.222500", "165526.712500", "165528.202500", "165529.692500", "165531.182500", "165532.672500", "165534.162500", "165535.652500", "165537.142500", "165538.632500", "165540.122500", "165541.612500", "165543.102500", "165544.592500", "165546.082500", "165547.572500", "165549.062500", "165550.552500", "165552.042500", "165553.532500", "165555.022500", "165556.512500", "165558.002500", "165559.492500", "165600.982500", "165602.472500", "165603.962500", "165605.452500", "165606.942500", "165608.432500", "165609.922500", "165611.412500", "165612.902500", "165614.392500", "165615.882500", "165617.372500", "165618.862500", "165620.352500", "165621.842500", "165623.332500", "165624.822500", "165626.312500", "165627.802500", "165629.292500", "165630.782500", "165632.272500", "165633.762500", "165635.252500", "165636.742500", "165638.232500", "165639.722500", "165641.212500", "165642.702500", "165644.192500", "165645.682500", "165647.172500", "165648.662500", "165650.152500", "165651.642500", "165653.132500", "165654.622500", "165656.112500", "165657.602500", "165659.092500", "165700.582500", "165702.072500", "165703.562500", "165705.052500", "165706.542500", "165708.032500", "165709.522500", "165711.012500", "165712.502500", "165713.992500", "165715.482500", "165716.972500", "165718.462500", "165719.952500", "165721.442500", "165722.932500", "165724.422500", "165725.912500", "165727.402500", "165728.892500", "165730.382500", "165731.872500", "165733.362500", "165734.852500", "165736.342500", "165737.832500", "165739.322500", "165740.812500", "165742.302500", "165743.792500", "165745.282500", "165746.772500", "165748.262500", "165749.752500", "165751.242500", "165752.732500", "165754.222500", "165755.712500", "165757.202500", "165758.692500", "165800.182500", "165801.672500", "165803.162500", "165804.652500", "165806.142500", "165807.632500", "165809.122500", "165810.612500", "165812.102500", "165813.592500", "165815.082500", "165816.572500", "165818.062500", "165819.552500", "165821.042500", "165822.532500", "165824.022500", "165825.512500", "165827.002500", "165828.492500", "165829.982500", "165831.472500", "165832.962500", "165834.452500", "165835.942500", "165837.432500", "165838.922500", "165840.412500", "165841.902500", "165843.392500", "165844.882500", "165846.372500", "165847.862500", "165849.352500", "165850.842500", "165852.332500", "165853.822500", "165855.312500", "165856.802500", "165858.292500", "165859.782500", "165901.272500", "165902.762500", "165904.252500", "165905.742500", "165907.232500", "165908.722500", "165910.212500", "165911.702500", "165913.192500", "165914.682500", "165916.172500", "165917.662500", "165919.152500", "165920.642500", "165922.132500", "165923.622500", "165925.112500", "165926.602500", "165928.092500", "165929.582500", "165931.072500", "165932.562500", "165934.052500", "165935.542500", "165937.032500", "165938.522500", "165940.012500", "165941.502500", "165942.992500", "165944.482500", "165945.972500", "165947.462500", "165948.952500", "165950.442500", "165951.932500", "165953.422500", "165954.912500", "165956.402500", "165957.892500", "165959.382500", "170000.872500", "170002.362500", "170003.852500", "170005.342500", "170006.832500", "170008.322500", "170009.812500", "170011.302500", "170012.792500", "170014.282500", "170015.772500", "170017.262500", "170018.752500", "170020.242500", "170021.732500", "170023.222500", "170024.712500", "170026.202500", "170027.692500", "170029.182500", "170030.672500", "170032.162500", "170033.652500", "170035.142500", "170036.632500", "170038.122500", "170039.612500", "170041.102500", "170042.592500", "170044.082500", "170045.572500", "170047.062500", "170048.552500", "170050.042500", "170051.532500", "170053.022500", "170054.512500", "170056.002500", "170057.492500", "170058.982500", "170100.472500", "170101.962500", "170103.452500", "170104.942500", "170106.432500", "170107.922500", "170109.412500", "170110.902500", "170112.392500", "170113.882500", "170115.372500", "170116.862500", "170118.352500", "170119.842500", "170121.332500", "170122.822500", "170124.312500", "170125.802500", "170127.292500", "170128.782500", "170130.272500", "170131.762500", "170133.252500", "170134.742500", "170136.232500", "170137.722500", "170139.212500", "170140.702500", "170142.192500", "170143.682500", "170145.172500", "170146.662500", "170148.152500", "170149.642500", "170151.132500", "170152.622500", "170154.112500", "170155.602500", "170157.092500", "170158.582500", "170200.072500", "170201.562500", "170203.052500", "170204.542500", "170206.032500", "170207.522500", "170209.012500", "170210.502500", "170211.992500", "170213.482500", "170214.972500", "170216.462500", "170217.952500", "170219.442500", "170220.932500", "170222.422500", "170223.912500", "170225.402500", "170226.892500", "170228.382500", "170229.872500", "170231.362500", "170232.852500", "170234.342500", "170235.832500", "170237.322500", "170238.812500", "170240.302500", "170241.792500", "170243.282500", "170244.772500", "170246.262500", "170247.752500", "170249.242500", "170250.732500", "170252.222500", "170253.712500", "170255.202500", "170256.692500", "170258.182500", "170259.672500", "170301.162500", "170302.652500", "170304.142500", "170305.632500", "170307.122500", "170308.612500", "170310.102500", "170311.592500", "170313.082500", "170314.572500", "170316.062500", "170317.552500", "170319.042500", "170320.532500", "170322.022500", "170323.512500", "170325.002500", "170326.492500", "170327.982500", "170329.472500", "170330.962500", "170332.452500", "170333.942500", "170335.432500", "170336.922500", "170338.412500", "170339.902500", "170341.392500", "170342.882500", "170344.372500", "170345.862500", "170347.352500", "170348.842500", "170350.332500", "170351.822500", "170353.312500", "170354.802500", "170356.292500", "170357.782500", "170359.272500", "170400.762500", "170402.252500", "170403.742500", "170405.232500", "170406.722500", "170408.212500", "170409.702500", "170411.192500", "170412.682500", "170414.172500", "170415.662500", "170417.152500", "170418.642500", "170420.132500", "170421.622500", "170423.112500", "170424.602500", "170426.092500", "170427.582500", "170429.072500", "170430.562500", "170432.052500", "170433.542500", "170435.032500", "170436.522500", "170438.012500", "170439.502500", "170440.992500", "170442.482500", "170443.972500", "170445.462500", "170446.952500", "170448.442500", "170449.932500", "170451.422500", "170452.912500", "170454.402500", "170455.892500", "170457.382500", "170458.872500", "170500.362500", "170501.852500", "170503.342500", "170504.832500", "170506.322500", "170507.812500", "170509.302500", "170510.792500", "170512.282500", "170513.772500", "170515.262500", "170516.752500", "170518.242500", "170519.732500", "170521.222500", "170522.712500", "170524.202500", "170525.692500", "170527.182500", "170528.672500", "170530.162500", "170531.652500", "170533.142500", "170534.632500", "170536.122500", "170537.612500", "170539.102500", "170540.592500", "170542.082500", "170543.572500", "170545.062500", "170546.552500", "170548.042500", "170549.532500", "170551.022500", "170552.512500", "170554.002500", "170555.492500", "170556.982500", "170558.472500", "170559.962500", "170601.452500", "170602.942500", "170604.432500", "170605.922500", "170607.412500", "170608.902500", "170610.392500", "170611.882500", "170613.372500", "170614.862500", "170616.352500", "170617.842500", "170619.332500", "170620.822500", "170622.312500", "170623.802500", "170625.292500", "170626.782500", "170628.272500", "170629.762500", "170631.252500", "170632.742500", "170634.232500", "170635.722500", "170637.212500", "170638.702500", "170640.192500"],
      "ContentTime": ["165648.730000", "165648.734000", "165648.737000", "165648.740000", "165648.743000", "165648.745000", "165648.748000", "165648.751000", "165648.754000", "165648.757000", "165648.760000", "165648.763000", "165648.766000", "165648.769000", "165648.772000", "165648.784000", "165648.787000", "165648.789000", "165648.792000", "165648.795000", "165648.798000", "165648.801000", "165648.804000", "165648.807000", "165648.810000", "165648.813000", "165648.815000", "165648.818000", "165648.821000", "165648.824000", "165648.827000", "165648.830000", "165648.833000", "165648.836000", "165708.689000", "165708.692000", "165708.695000", "165708.698000", "165708.700000", "165708.703000", "165708.706000", "165708.709000", "165708.712000", "165708.715000", "165708.718000", "165708.721000", "165708.724000", "165708.727000", "165708.729000", "165708.732000", "165708.735000", "165708.747000", "165708.750000", "165708.753000", "165728.690000", "165728.693000", "165728.696000", "165728.699000", "165728.702000", "165728.705000", "165728.708000", "165728.710000", "165728.713000", "165728.716000", "165728.719000", "165728.722000", "165728.725000", "165728.728000", "165728.730000", "165728.733000", "165728.736000", "165728.739000", "165728.742000", "165728.745000", "165748.689000", "165748.692000", "165748.695000", "165748.698000", "165748.707000", "165748.709000", "165748.712000", "165748.715000", "165748.718000", "165748.721000", "165748.724000", "165748.727000", "165748.729000", "165748.732000", "165748.735000", "165748.738000", "165748.741000", "165748.744000", "165748.747000", "165748.750000", "165828.689000", "165828.692000", "165828.703000", "165828.706000", "165828.709000", "165828.712000", "165828.714000", "165828.717000", "165828.720000", "165828.723000", "165828.726000", "165828.729000", "165828.732000", "165828.735000", "165828.738000", "165828.740000", "165828.743000", "165828.746000", "165828.749000", "165828.752000", "165828.755000", "165828.758000", "165828.761000", "165828.764000", "165828.766000", "165828.769000", "165828.772000", "165828.775000", "165828.788000", "165828.791000", "165828.794000", "165828.797000", "165908.689000", "165908.692000", "165908.695000", "165908.698000", "165908.701000", "165908.704000", "165908.706000", "165908.709000", "165908.712000", "165908.715000", "165908.718000", "165908.721000", "165908.724000", "165908.727000", "165908.730000", "165908.733000", "165908.736000", "165908.738000", "165908.741000", "165908.744000", "165908.747000", "165908.750000", "165908.753000", "165908.756000", "165908.759000", "165908.762000", "165908.765000", "165948.690000", "165948.693000", "165948.696000", "165948.707000", "165948.710000", "165948.713000", "165948.726000", "165948.729000", "165948.732000", "165948.734000", "165948.737000", "165948.740000", "165948.743000", "165948.746000", "165948.749000", "165948.752000", "165948.755000", "165948.758000", "165948.761000", "165948.763000", "165948.766000", "165948.769000", "165948.772000", "165948.775000", "165948.778000", "165948.781000", "165948.784000", "170028.689000", "170028.692000", "170028.695000", "170028.698000", "170028.701000", "170028.704000", "170028.706000", "170028.709000", "170028.712000", "170028.715000", "170028.718000", "170028.721000", "170028.724000", "170028.727000", "170028.730000", "170028.733000", "170028.735000", "170028.738000", "170028.741000", "170028.744000", "170028.747000", "170028.750000", "170028.753000", "170028.756000", "170028.759000", "170028.762000", "170028.765000", "170108.689000", "170108.692000", "170108.695000", "170108.698000", "170108.701000", "170108.703000", "170108.706000", "170108.709000", "170108.712000", "170108.715000", "170108.718000", "170108.721000", "170108.724000", "170108.727000", "170108.730000", "170108.733000", "170108.735000", "170108.738000", "170108.741000", "170108.744000", "170108.747000", "170108.750000", "170108.753000", "170108.756000", "170108.759000", "170108.762000", "170108.765000", "170148.689000", "170148.692000", "170148.695000", "170148.698000", "170148.701000", "170148.704000", "170148.707000", "170148.710000", "170148.713000", "170148.715000", "170148.718000", "170148.721000", "170148.729000", "170148.732000", "170148.735000", "170148.738000", "170148.741000", "170148.743000", "170148.746000", "170148.749000", "170148.752000", "170148.755000", "170148.758000", "170148.761000", "170148.764000", "170148.767000", "170148.770000", "170228.689000", "170228.692000", "170228.695000", "170228.698000", "170228.701000", "170228.704000", "170228.707000", "170228.710000", "170228.713000", "170228.715000", "170228.718000", "170228.721000", "170228.724000", "170228.727000", "170228.730000", "170228.733000", "170228.736000", "170228.739000", "170228.742000", "170228.745000", "170228.748000", "170228.751000", "170228.754000", "170228.757000", "170228.760000", "170228.762000", "170308.689000", "170308.692000", "170308.695000", "170308.698000", "170308.701000", "170308.704000", "170308.706000", "170308.709000", "170308.712000", "170308.715000", "170308.718000", "170308.721000", "170308.724000", "170308.727000", "170308.730000", "170308.733000", "170308.736000", "170308.738000", "170308.741000", "170308.744000", "170308.747000", "170308.750000", "170308.753000", "170308.756000", "170308.759000", "170308.762000", "170308.765000", "170348.689000", "170348.692000", "170348.695000", "170348.698000", "170348.701000", "170348.704000", "170348.707000", "170348.710000", "170348.713000", "170348.727000", "170348.729000", "170348.732000", "170348.735000", "170348.738000", "170348.741000", "170348.744000", "170348.747000", "170348.750000", "170348.753000", "170348.756000", "170348.758000", "170348.761000", "170348.764000", "170348.767000", "170348.770000", "170348.773000", "170348.776000", "170428.690000", "170428.693000", "170428.696000", "170428.699000", "170428.702000", "170428.705000", "170428.708000", "170428.711000", "170428.713000", "170428.716000", "170428.719000", "170428.722000", "170428.725000", "170428.728000", "170428.731000", "170428.734000", "170428.737000", "170428.740000", "170428.743000", "170428.746000", "170428.748000", "170428.751000", "170428.754000", "170428.757000", "170428.760000", "170428.763000", "170428.766000", "170508.689000", "170508.692000", "170508.695000", "170508.698000", "170508.701000", "170508.703000", "170508.706000", "170508.709000", "170508.712000", "170508.715000", "170508.718000", "170508.721000", "170508.724000", "170508.727000", "170508.730000", "170508.733000", "170508.736000", "170508.739000", "170508.742000", "170508.744000", "170508.747000", "170508.750000", "170508.753000", "170508.756000", "170508.759000", "170508.762000", "170508.765000", "170548.689000", "170548.692000", "170548.695000", "170548.698000", "170548.701000", "170548.704000", "170548.707000", "170548.723000", "170548.726000", "170548.729000", "170548.732000", "170548.734000", "170548.737000", "170548.740000", "170548.743000", "170548.746000", "170548.749000", "170548.752000", "170548.755000", "170548.758000", "170548.761000", "170548.764000", "170548.766000", "170548.769000", "170548.772000", "170548.775000", "170548.778000", "170628.690000", "170628.694000", "170628.697000", "170628.699000", "170628.702000", "170628.705000", "170628.708000", "170628.711000", "170628.714000", "170628.717000", "170628.720000", "170628.723000", "170628.726000", "170628.728000", "170628.731000", "170628.734000", "170628.737000", "170628.740000", "170628.743000", "170628.746000", "170628.749000", "170628.752000", "170628.755000", "170628.758000", "170628.760000", "170628.763000", "170642.143000", "170642.146000", "170642.149000", "170642.152000", "170642.155000", "170642.158000", "170642.161000", "170642.164000", "170642.167000", "170642.170000"],
