{
  "AcquisitionMatrixPE": 104,
  "AcquisitionNumber": 1,
  "AcquisitionTime": "16:31:43.500000",
  "BandwidthPerPixelPhaseEncode": 17.17,
  "BaseResolution": 104,
  "BodyPartExamined": "BRAIN",
  "CoilString": "HC1-7;NC1_2",
  "ConsistencyInfo": "N4_VE11C_LATEST_20160120",
  "ConversionSoftware": "dcm2niix",
  "ConversionSoftwareVersion": "v1.0.20190902",
  "DerivedVendorReportedEchoSpacing": 0.000560011,
  "DeviceSerialNumber": "167006",
  "DwellTime": 2.1e-06,
  "EchoTime": 0.037,
  "EchoTrainLength": 104,
  "EffectiveEchoSpacing": 0.000560011,
  "FlipAngle": 52,
  "ImageComments": "Unaliased_MB4_PE3_LB",
  "ImageOrientationPatientDICOM": [0.999513, -0.0305894, -0.00622688, 0.0261732, 0.929898, -0.366886],
  "ImageType": [
    "ORIGINAL",
    "PRIMARY",
    "M",
    "MB",
    "ND",
    "MOSAIC"
],
  "ImagingFrequency": 123.259,
  "InPlanePhaseEncodingDirectionDICOM": "COL",
  "InstitutionAddress": "Chemin_Queen-Mary_4565_Montreal_District_CA_H3W_1W5",
  "InstitutionName": "IUGM",
  "InstitutionalDepartmentName": "Department",
  "MRAcquisitionType": "2D",
  "MagneticFieldStrength": 3,
  "Manufacturer": "Siemens",
  "ManufacturersModelName": "Prisma_fit",
  "Modality": "MR",
  "MultibandAccelerationFactor": 4,
  "PartialFourier": 1,
  "PatientPosition": "HFS",
  "PercentPhaseFOV": 100,
  "PhaseEncodingDirection": "j",
  "PhaseEncodingSteps": 104,
  "PhaseResolution": 1,
  "PixelBandwidth": 2290,
  "ProcedureStepDescription": "video_friends",
  "ProtocolName": "func_task-friends-s03e14a",
  "PulseSequenceDetails": "%CustomerSeq%_cmrr_mbep2d_bold",
  "ReceiveCoilActiveElements": "HC1-7;NC1,2",
  "ReceiveCoilName": "HeadNeck_64",
  "ReconMatrixPE": 104,
  "RepetitionTime": 1.49,
  "SAR": 0.0352564,
  "ScanOptions": "FS",
  "ScanningSequence": "EP",
  "SequenceName": "epfid2d1_104",
  "SequenceVariant": "SK_SS",
  "SeriesDescription": "func_task-friends-s03e14a",
  "SeriesNumber": 9,
  "ShimSetting": [615, -7281, -8840, 405, 0, -472, 54, 33],
  "SliceThickness": 2,
  "SliceTiming": [0, 0.785, 0.1, 0.8825, 0.1975, 0.98, 0.295, 1.08, 0.3925, 1.1775, 0.49, 1.275, 0.59, 1.3725, 0.6875, 0, 0.785, 0.1, 0.8825, 0.1975, 0.98, 0.295, 1.08, 0.3925, 1.1775, 0.49, 1.275, 0.59, 1.3725, 0.6875, 0, 0.785, 0.1, 0.8825, 0.1975, 0.98, 0.295, 1.08, 0.3925, 1.1775, 0.49, 1.275, 0.59, 1.3725, 0.6875, 0, 0.785, 0.1, 0.8825, 0.1975, 0.98, 0.295, 1.08, 0.3925, 1.1775, 0.49, 1.275, 0.59, 1.3725, 0.6875],
  "SoftwareVersions": "syngo_MR_E11",
  "SpacingBetweenSlices": 2,
  "StationName": "MRC35049",
  "TaskName": "s03e14a",
  "TotalReadoutTime": 0.0576811,
  "TxRefAmp": 235.381,
  "WipMemBlock": "09c83ff9-84d6-428a-b437-cf8a1085d698||Sequence: R016 ve11c/master r/e634e98; Dec 19 2017 11:00:25 by eja",
  "dcmmeta_affine": [
    [-1.9990252256393433, 0.05234638974070549, -0.03402632474899292, 98.1148681640625],
    [0.061178747564554214, 1.8597955703735352, -0.7330876588821411, -72.30042266845703],
    [-0.012453759089112282, 0.7337712049484253, 1.8604904413223267, -69.26522827148438],
    [0.0, 0.0, 0.0, 1.0]
],
  "dcmmeta_reorient_transform": [
    [0.0, -1.0, 0.0, 103.0],
    [1.0, 0.0, 0.0, 0.0],
    [0.0, 0.0, 1.0, 0.0],
    [0.0, 0.0, 0.0, 1.0]
],
  "dcmmeta_shape": [104, 104, 60, 458],
  "dcmmeta_slice_dim": 2,
  "dcmmeta_version": 0.6,
  "global": {
    "const": {
      "AcquisitionMatrix": [104, 0, 0, 104],
      "AngioFlag": "N",
      "BitsAllocated": 16,
      "BitsStored": 16,
      "BodyPartExamined": "BRAIN",
      "Columns": 832,
      "EchoNumbers": 1,
      "EchoTime": 37.0,
      "EchoTrainLength": 104,
      "FlipAngle": 52.0,
      "HighBit": 15,
      "ImageOrientationPatient": [0.99951263931322, -0.0305893743284, -0.0062268797425, 0.02617319499427, 0.92989779662494, -0.3668856111868],
      "ImagePositionPatient": [-850.20582995079, -773.95505702726, 277.9390986787],
      "ImageType": [
        "ORIGINAL",
        "PRIMARY",
        "M",
        "MB",
        "ND",
        "MOSAIC"
],
      "ImagedNucleus": "1H",
      "ImagingFrequency": 123.25895,
      "InPlanePhaseEncodingDirection": "COL",
      "MRAcquisitionType": "2D",
      "MagneticFieldStrength": 3.0,
      "Manufacturer": "SIEMENS",
      "ManufacturerModelName": "Prisma_fit",
      "Modality": "MR",
      "NumberOfAverages": 1.0,
      "NumberOfPhaseEncodingSteps": 104,
      "PercentPhaseFieldOfView": 100.0,
      "PercentSampling": 100.0,
      "PerformedProcedureStepStartTime": "155507.218000",
      "PhotometricInterpretation": "MONOCHROME2",
      "PixelBandwidth": 2290.0,
      "PixelRepresentation": 0,
      "PixelSpacing": [2.0, 2.0],
      "ProtocolName": "func_task-friends-s03e14a",
      "RepetitionTime": 1490.0,
      "Rows": 832,
      "SAR": 0.03525637504034,
      "SamplesPerPixel": 1,
      "ScanOptions": "FS",
      "ScanningSequence": "EP",
      "SequenceName": "epfid2d1_104",
      "SequenceVariant": [
        "SK",
        "SS"
],
      "SeriesDescription": "func_task-friends-s03e14a",
      "SeriesNumber": 9,
      "SeriesTime": "163317.033000",
      "SliceLocation": -39.601621152262,
      "SliceThickness": 2.0,
      "SmallestImagePixelValue": 0,
      "SoftwareVersions": "syngo MR E11",
      "SpacingBetweenSlices": 1.9999999909428,
      "SpecificCharacterSet": "ISO_IR 100",
      "StudyID": "1",
      "StudyTime": "155507.136000",
      "TransmitCoilName": "Body",
      "VariableFlipAngleFlag": "N",
      "WindowCenterWidthExplanation": "Algo1",
      "dBdt": 0.0},
    "slices": {}
  },
  "time": {
    "samples": {
      "AcquisitionNumber": [1, 2, 3, 4, 5, 6, 7, 8, 9, 10, 11, 12, 13, 14, 15, 16, 17, 18, 19, 20, 21, 22, 23, 24, 25, 26, 27, 28, 29, 30, 31, 32, 33, 34, 35, 36, 37, 38, 39, 40, 41, 42, 43, 44, 45, 46, 47, 48, 49, 50, 51, 52, 53, 54, 55, 56, 57, 58, 59, 60, 61, 62, 63, 64, 65, 66, 67, 68, 69, 70, 71, 72, 73, 74, 75, 76, 77, 78, 79, 80, 81, 82, 83, 84, 85, 86, 87, 88, 89, 90, 91, 92, 93, 94, 95, 96, 97, 98, 99, 100, 101, 102, 103, 104, 105, 106, 107, 108, 109, 110, 111, 112, 113, 114, 115, 116, 117, 118, 119, 120, 121, 122, 123, 124, 125, 126, 127, 128, 129, 130, 131, 132, 133, 134, 135, 136, 137, 138, 139, 140, 141, 142, 143, 144, 145, 146, 147, 148, 149, 150, 151, 152, 153, 154, 155, 156, 157, 158, 159, 160, 161, 162, 163, 164, 165, 166, 167, 168, 169, 170, 171, 172, 173, 174, 175, 176, 177, 178, 179, 180, 181, 182, 183, 184, 185, 186, 187, 188, 189, 190, 191, 192, 193, 194, 195, 196, 197, 198, 199, 200, 201, 202, 203, 204, 205, 206, 207, 208, 209, 210, 211, 212, 213, 214, 215, 216, 217, 218, 219, 220, 221, 222, 223, 224, 225, 226, 227, 228, 229, 230, 231, 232, 233, 234, 235, 236, 237, 238, 239, 240, 241, 242, 243, 244, 245, 246, 247, 248, 249, 250, 251, 252, 253, 254, 255, 256, 257, 258, 259, 260, 261, 262, 263, 264, 265, 266, 267, 268, 269, 270, 271, 272, 273, 274, 275, 276, 277, 278, 279, 280, 281, 282, 283, 284, 285, 286, 287, 288, 289, 290, 291, 292, 293, 294, 295, 296, 297, 298, 299, 300, 301, 302, 303, 304, 305, 306, 307, 308, 309, 310, 311, 312, 313, 314, 315, 316, 317, 318, 319, 320, 321, 322, 323, 324, 325, 326, 327, 328, 329, 330, 331, 332, 333, 334, 335, 336, 337, 338, 339, 340, 341, 342, 343, 344, 345, 346, 347, 348, 349, 350, 351, 352, 353, 354, 355, 356, 357, 358, 359, 360, 361, 362, 363, 364, 365, 366, 367, 368, 369, 370, 371, 372, 373, 374, 375, 376, 377, 378, 379, 380, 381, 382, 383, 384, 385, 386, 387, 388, 389, 390, 391, 392, 393, 394, 395, 396, 397, 398, 399, 400, 401, 402, 403, 404, 405, 406, 407, 408, 409, 410, 411, 412, 413, 414, 415, 416, 417, 418, 419, 420, 421, 422, 423, 424, 425, 426, 427, 428, 429, 430, 431, 432, 433, 434, 435, 436, 437, 438, 439, 440, 441, 442, 443, 444, 445, 446, 447, 448, 449, 450, 451, 452, 453, 454, 455, 456, 457, 458],
      "AcquisitionTime": ["163143.500000", "163144.990000", "163146.480000", "163147.970000", "163149.460000", "163150.950000", "163152.440000", "163153.930000", "163155.420000", "163156.910000", "163158.400000", "163159.890000", "163201.380000", "163202.870000", "163204.360000", "163205.850000", "163207.340000", "163208.830000", "163210.320000", "163211.810000", "163213.300000", "163214.790000", "163216.280000", "163217.770000", "163219.260000", "163220.750000", "163222.240000", "163223.730000", "163225.220000", "163226.710000", "163228.200000", "163229.690000", "163231.180000", "163232.670000", "163234.160000", "163235.650000", "163237.140000", "163238.630000", "163240.120000", "163241.610000", "163243.100000", "163244.590000", "163246.080000", "163247.570000", "163249.060000", "163250.550000", "163252.040000", "163253.530000", "163255.020000", "163256.510000", "163258.000000", "163259.490000", "163300.980000", "163302.470000", "163303.960000", "163305.450000", "163306.940000", "163308.430000", "163309.920000", "163311.410000", "163312.900000", "163314.390000", "163315.880000", "163317.370000", "163318.860000", "163320.350000", "163321.840000", "163323.330000", "163324.820000", "163326.310000", "163327.800000", "163329.290000", "163330.780000", "163332.270000", "163333.760000", "163335.250000", "163336.740000", "163338.230000", "163339.720000", "163341.210000", "163342.700000", "163344.190000", "163345.680000", "163347.170000", "163348.660000", "163350.150000", "163351.640000", "163353.130000", "163354.620000", "163356.110000", "163357.600000", "163359.090000", "163400.580000", "163402.070000", "163403.560000", "163405.050000", "163406.540000", "163408.030000", "163409.520000", "163411.010000", "163412.500000", "163413.990000", "163415.480000", "163416.970000", "163418.460000", "163419.950000", "163421.440000", "163422.930000", "163424.420000", "163425.910000", "163427.400000", "163428.890000", "163430.380000", "163431.870000", "163433.360000", "163434.850000", "163436.340000", "163437.830000", "163439.320000", "163440.810000", "163442.300000", "163443.790000", "163445.280000", "163446.770000", "163448.260000", "163449.750000", "163451.240000", "163452.730000", "163454.220000", "163455.710000", "163457.200000", "163458.690000", "163500.180000", "163501.670000", "163503.160000", "163504.650000", "163506.140000", "163507.630000", "163509.120000", "163510.610000", "163512.100000", "163513.590000", "163515.080000", "163516.570000", "163518.060000", "163519.550000", "163521.040000", "163522.530000", "163524.020000", "163525.510000", "163527.000000", "163528.490000", "163529.980000", "163531.470000", "163532.960000", "163534.450000", "163535.940000", "163537.430000", "163538.920000", "163540.410000", "163541.900000", "163543.390000", "163544.880000", "163546.370000", "163547.860000", "163549.350000", "163550.840000", "163552.330000", "163553.820000", "163555.310000", "163556.800000", "163558.290000", "163559.780000", "163601.270000", "163602.760000", "163604.250000", "163605.740000", "163607.230000", "163608.720000", "163610.210000", "163611.700000", "163613.190000", "163614.680000", "163616.170000", "163617.660000", "163619.150000", "163620.640000", "163622.130000", "163623.620000", "163625.110000", "163626.600000", "163628.090000", "163629.580000", "163631.070000", "163632.560000", "163634.050000", "163635.540000", "163637.030000", "163638.520000", "163640.010000", "163641.500000", "163642.990000", "163644.480000", "163645.970000", "163647.460000", "163648.950000", "163650.440000", "163651.930000", "163653.420000", "163654.910000", "163656.400000", "163657.890000", "163659.380000", "163700.870000", "163702.360000", "163703.850000", "163705.340000", "163706.830000", "163708.320000", "163709.810000", "163711.300000", "163712.790000", "163714.280000", "163715.770000", "163717.260000", "163718.750000", "163720.240000", "163721.730000", "163723.220000", "163724.710000", "163726.200000", "163727.690000", "163729.180000", "163730.670000", "163732.160000", "163733.650000", "163735.140000", "163736.630000", "163738.120000", "163739.610000", "163741.100000", "163742.590000", "163744.080000", "163745.570000", "163747.060000", "163748.550000", "163750.040000", "163751.530000", "163753.020000", "163754.510000", "163756.000000", "163757.490000", "163758.980000", "163800.470000", "163801.960000", "163803.450000", "163804.940000", "163806.430000", "163807.920000", "163809.410000", "163810.900000", "163812.390000", "163813.880000", "163815.370000", "163816.860000", "163818.350000", "163819.840000", "163821.330000", "163822.820000", "163824.310000", "163825.800000", "163827.290000", "163828.780000", "163830.270000", "163831.760000", "163833.250000", "163834.740000", "163836.230000", "163837.720000", "163839.210000", "163840.700000", "163842.190000", "163843.680000", "163845.170000", "163846.660000", "163848.150000", "163849.640000", "163851.130000", "163852.620000", "163854.110000", "163855.600000", "163857.090000", "163858.580000", "163900.070000", "163901.560000", "163903.050000", "163904.540000", "163906.030000", "163907.520000", "163909.010000", "163910.500000", "163911.990000", "163913.480000", "163914.970000", "163916.460000", "163917.950000", "163919.440000", "163920.930000", "163922.420000", "163923.910000", "163925.400000", "163926.890000", "163928.380000", "163929.870000", "163931.360000", "163932.850000", "163934.340000", "163935.830000", "163937.320000", "163938.810000", "163940.300000", "163941.790000", "163943.280000", "163944.770000", "163946.260000", "163947.750000", "163949.240000", "163950.730000", "163952.220000", "163953.710000", "163955.200000", "163956.690000", "163958.180000", "163959.670000", "164001.160000", "164002.650000", "164004.140000", "164005.630000", "164007.120000", "164008.610000", "164010.100000", "164011.590000", "164013.080000", "164014.570000", "164016.060000", "164017.550000", "164019.040000", "164020.530000", "164022.020000", "164023.510000", "164025.000000", "164026.490000", "164027.980000", "164029.470000", "164030.960000", "164032.450000", "164033.940000", "164035.430000", "164036.920000", "164038.410000", "164039.900000", "164041.390000", "164042.880000", "164044.370000", "164045.860000", "164047.350000", "164048.840000", "164050.330000", "164051.820000", "164053.310000", "164054.800000", "164056.290000", "164057.780000", "164059.270000", "164100.760000", "164102.250000", "164103.740000", "164105.230000", "164106.720000", "164108.210000", "164109.700000", "164111.190000", "164112.680000", "164114.170000", "164115.660000", "164117.150000", "164118.640000", "164120.130000", "164121.620000", "164123.110000", "164124.600000", "164126.090000", "164127.580000", "164129.070000", "164130.560000", "164132.050000", "164133.540000", "164135.030000", "164136.520000", "164138.010000", "164139.500000", "164140.990000", "164142.480000", "164143.970000", "164145.460000", "164146.950000", "164148.440000", "164149.930000", "164151.420000", "164152.910000", "164154.400000", "164155.890000", "164157.380000", "164158.870000", "164200.360000", "164201.850000", "164203.340000", "164204.830000", "164206.320000", "164207.810000", "164209.300000", "164210.790000", "164212.280000", "164213.770000", "164215.260000", "164216.750000", "164218.240000", "164219.730000", "164221.220000", "164222.710000", "164224.200000", "164225.690000", "164227.180000", "164228.670000", "164230.160000", "164231.650000", "164233.140000", "164234.630000", "164236.120000", "164237.610000", "164239.100000", "164240.590000", "164242.080000", "164243.570000", "164245.060000", "164246.550000", "164248.040000", "164249.530000", "164251.020000", "164252.510000", "164254.000000", "164255.490000", "164256.980000", "164258.470000", "164259.960000", "164301.450000", "164302.940000", "164304.430000"],
      "ContentTime": ["163317.036000", "163317.039000", "163317.042000", "163317.045000", "163317.048000", "163317.050000", "163317.053000", "163317.056000", "163317.059000", "163317.062000", "163317.065000", "163317.068000", "163317.079000", "163317.082000", "163317.085000", "163317.088000", "163317.091000", "163317.094000", "163317.097000", "163317.100000", "163317.103000", "163317.106000", "163317.108000", "163317.111000", "163317.114000", "163317.117000", "163317.124000", "163317.127000", "163317.130000", "163317.133000", "163317.136000", "163317.139000", "163317.142000", "163317.145000", "163317.148000", "163317.150000", "163317.153000", "163317.156000", "163337.035000", "163337.038000", "163337.041000", "163337.044000", "163337.047000", "163337.050000", "163337.054000", "163337.058000", "163337.061000", "163337.064000", "163337.067000", "163337.069000", "163337.106000", "163337.109000", "163337.112000", "163337.115000", "163337.118000", "163337.121000", "163337.123000", "163337.126000", "163357.035000", "163357.038000", "163357.041000", "163357.044000", "163357.047000", "163357.050000", "163357.053000", "163357.056000", "163357.059000", "163357.061000", "163357.064000", "163357.067000", "163357.070000", "163357.073000", "163357.076000", "163357.079000", "163357.082000", "163357.085000", "163357.087000", "163357.090000", "163357.093000", "163417.034000", "163417.037000", "163417.040000", "163417.043000", "163417.046000", "163417.049000", "163417.051000", "163417.054000", "163417.057000", "163417.060000", "163417.063000", "163417.066000", "163417.069000", "163417.072000", "163417.075000", "163417.078000", "163417.080000", "163417.083000", "163417.086000", "163417.089000", "163457.034000", "163457.037000", "163457.040000", "163457.043000", "163457.046000", "163457.049000", "163457.051000", "163457.054000", "163457.057000", "163457.060000", "163457.063000", "163457.066000", "163457.069000", "163457.072000", "163457.075000", "163457.077000", "163457.085000", "163457.088000", "163457.091000", "163457.094000", "163457.097000", "163457.100000", "163457.102000", "163457.105000", "163457.108000", "163457.111000", "163457.114000", "163457.117000", "163457.120000", "163457.123000", "163537.034000", "163537.037000", "163537.040000", "163537.043000", "163537.046000", "163537.049000", "163537.052000", "163537.054000", "163537.057000", "163537.060000", "163537.063000", "163537.066000", "163537.069000", "163537.072000", "163537.075000", "163537.078000", "163537.081000", "163537.083000", "163537.086000", "163537.089000", "163537.092000", "163537.095000", "163537.098000", "163537.101000", "163537.104000", "163537.107000", "163537.110000", "163617.035000", "163617.038000", "163617.041000", "163617.044000", "163617.047000", "163617.051000", "163617.054000", "163617.057000", "163617.060000", "163617.063000", "163617.066000", "163617.069000", "163617.072000", "163617.075000", "163617.077000", "163617.080000", "163617.083000", "163617.086000", "163617.089000", "163617.092000", "163617.095000", "163617.098000", "163617.101000", "163617.104000", "163617.107000", "163617.110000", "163657.034000", "163657.037000", "163657.040000", "163657.043000", "163657.046000", "163657.060000", "163657.063000", "163657.066000", "163657.069000", "163657.072000", "163657.075000", "163657.078000", "163657.080000", "163657.083000", "163657.086000", "163657.089000", "163657.092000", "163657.095000", "163657.098000", "163657.101000", "163657.104000", "163657.107000", "163657.109000", "163657.112000", "163657.115000", "163657.118000", "163657.121000", "163737.034000", "163737.037000", "163737.040000", "163737.043000", "163737.046000", "163737.049000", "163737.052000", "163737.055000", "163737.057000", "163737.060000", "163737.063000", "163737.066000", "163737.069000", "163737.072000", "163737.075000", "163737.078000", "163737.081000", "163737.084000", "163737.087000", "163737.090000", "163737.093000", "163737.096000", "163737.099000", "163737.101000", "163737.104000", "163737.107000", "163737.110000", "163817.035000", "163817.038000", "163817.041000", "163817.044000", "163817.047000", "163817.050000", "163817.053000", "163817.056000", "163817.059000", "163817.061000", "163817.064000", "163817.077000", "163817.080000", "163817.082000", "163817.085000", "163817.088000", "163817.091000", "163817.094000", "163817.097000", "163817.100000", "163817.103000", "163817.106000", "163817.109000", "163817.112000", "163817.114000", "163817.117000", "163817.120000", "163857.034000", "163857.037000", "163857.040000", "163857.043000", "163857.046000", "163857.049000", "163857.052000", "163857.055000", "163857.058000", "163857.060000", "163857.063000", "163857.066000", "163857.069000", "163857.072000", "163857.075000", "163857.078000", "163857.081000", "163857.084000", "163857.087000", "163857.089000", "163857.092000", "163857.095000", "163857.098000", "163857.101000", "163857.104000", "163857.107000", "163857.110000", "163937.034000", "163937.037000", "163937.040000", "163937.043000", "163937.046000", "163937.049000", "163937.052000", "163937.054000", "163937.057000", "163937.060000", "163937.063000", "163937.066000", "163937.069000", "163937.072000", "163937.075000", "163937.078000", "163937.081000", "163937.083000", "163937.086000", "163937.089000", "163937.092000", "163937.095000", "163937.098000", "163937.101000", "163937.104000", "163937.107000", "163937.110000", "164017.035000", "164017.038000", "164017.041000", "164017.044000", "164017.058000", "164017.061000", "164017.064000", "164017.067000", "164017.070000", "164017.073000", "164017.076000", "164017.078000", "164017.081000", "164017.084000", "164017.087000", "164017.090000", "164017.093000", "164017.096000", "164017.099000", "164017.102000", "164017.105000", "164017.107000", "164017.110000", "164017.113000", "164017.116000", "164017.119000", "164057.035000", "164057.038000", "164057.041000", "164057.044000", "164057.047000", "164057.050000", "164057.053000", "164057.056000", "164057.058000", "164057.061000", "164057.064000", "164057.067000", "164057.070000", "164057.073000", "164057.076000", "164057.079000", "164057.082000", "164057.084000", "164057.087000", "164057.090000", "164057.093000", "164057.096000", "164057.099000", "164057.102000", "164057.105000", "164057.108000", "164057.110000", "164137.034000", "164137.037000", "164137.040000", "164137.043000", "164137.046000", "164137.064000", "164137.067000", "164137.070000", "164137.073000", "164137.076000", "164137.079000", "164137.082000", "164137.085000", "164137.088000", "164137.090000", "164137.093000", "164137.096000", "164137.099000", "164137.102000", "164137.105000", "164137.108000", "164137.111000", "164137.114000", "164137.117000", "164137.120000", "164137.122000", "164137.125000", "164217.034000", "164217.037000", "164217.040000", "164217.043000", "164217.046000", "164217.049000", "164217.052000", "164217.055000", "164217.058000", "164217.061000", "164217.063000", "164217.066000", "164217.069000", "164217.072000", "164217.075000", "164217.078000", "164217.081000", "164217.084000", "164217.087000", "164217.090000", "164217.092000", "164217.095000", "164217.098000", "164217.101000", "164217.104000", "164217.107000", "164217.110000", "164257.035000", "164257.038000", "164257.041000", "164257.044000", "164257.047000", "164257.050000", "164257.053000", "164257.056000", "164257.059000", "164257.061000", "164257.064000", "164257.067000", "164257.070000", "164257.073000", "164257.076000", "164257.079000", "164257.082000", "164257.085000", "164257.088000", "164257.091000", "164257.094000", "164257.097000", "164257.099000", "164257.102000", "164257.105000", "164257.108000", "164257.111000", "164306.976000", "164306.979000", "164306.982000", "164306.985000", "164306.988000", "164306.991000", "164306.994000"],
