{
  "AcquisitionMatrixPE": 104,
  "AcquisitionNumber": 1,
  "AcquisitionTime": "18:47:23.667500",
  "BandwidthPerPixelPhaseEncode": 17.17,
  "BaseResolution": 104,
  "BodyPartExamined": "BRAIN",
  "CoilCombinationMethod": "Sum of Squares",
  "ConsistencyInfo": "N4_VE11C_LATEST_20160120",
  "ConversionSoftware": "dcm2niix",
  "ConversionSoftwareVersion": "v1.0.20220505",
  "DerivedVendorReportedEchoSpacing": 0.000560011,
  "DeviceSerialNumber": "167006",
  "DwellTime": 2.1e-06,
  "EchoTime": 0.037,
  "EchoTrainLength": 104,
  "EffectiveEchoSpacing": 0.000560011,
  "FlipAngle": 52,
  "HeudiconvVersion": "0.5.3.post811+g6206e14",
  "ImageComments": "Unaliased MB4/PE3/LB",
  "ImageOrientationPatientDICOM": [0.99974, -0.0227959, -6.30476e-05, 0.0212908, 0.93471, -0.354773],
  "ImageOrientationText": "Tra>Cor(-20.8)>Sag(-0.5)",
  "ImageType": [
    "ORIGINAL",
    "PRIMARY",
    "M",
    "MB",
    "ND",
    "MOSAIC"
],
  "ImagingFrequency": 123.259,
  "InPlanePhaseEncodingDirectionDICOM": "COL",
  "InstitutionAddress": "Chemin Queen-Mary 4565,Montreal,District,CA,H3W 1W5",
  "InstitutionName": "IUGM",
  "InstitutionalDepartmentName": "Department",
  "MRAcquisitionType": "2D",
  "MagneticFieldStrength": 3,
  "Manufacturer": "Siemens",
  "ManufacturersModelName": "Prisma_fit",
  "MatrixCoilMode": "SENSE",
  "Modality": "MR",
  "MultibandAccelerationFactor": 4,
  "PartialFourier": 1,
  "PatientPosition": "HFS",
  "PercentPhaseFOV": 100,
  "PercentSampling": 100,
  "PhaseEncodingDirection": "j",
  "PhaseEncodingSteps": 104,
  "PhaseResolution": 1,
  "PixelBandwidth": 2290,
  "ProcedureStepDescription": "video^friends",
  "ProtocolName": "func_task-friends-s05e22b",
  "PulseSequenceDetails": "%CustomerSeq%\\cmrr_mbep2d_bold",
  "ReceiveCoilActiveElements": "HC1-7;NC1,2",
  "ReceiveCoilName": "HeadNeck_64",
  "ReconMatrixPE": 104,
  "RepetitionTime": 1.49,
  "SAR": 0.0818127,
  "ScanOptions": "FS",
  "ScanningSequence": "EP",
  "SequenceName": "epfid2d1_104",
  "SequenceVariant": "SK\\SS",
  "SeriesDescription": "func_task-friends-s05e22b",
  "SeriesNumber": 19,
  "ShimSetting": [617, -7257, -8834, 408, 35, -364, 3, 33],
  "SliceThickness": 2,
  "SliceTiming": [0, 0.7825, 0.0975, 0.88, 0.195, 0.98, 0.2925, 1.0775, 0.39, 1.175, 0.49, 1.2725, 0.5875, 1.37, 0.685, 0, 0.7825, 0.0975, 0.88, 0.195, 0.98, 0.2925, 1.0775, 0.39, 1.175, 0.49, 1.2725, 0.5875, 1.37, 0.685, 0, 0.7825, 0.0975, 0.88, 0.195, 0.98, 0.2925, 1.0775, 0.39, 1.175, 0.49, 1.2725, 0.5875, 1.37, 0.685, 0, 0.7825, 0.0975, 0.88, 0.195, 0.98, 0.2925, 1.0775, 0.39, 1.175, 0.49, 1.2725, 0.5875, 1.37, 0.685],
  "SoftwareVersions": "syngo MR E11",
  "SpacingBetweenSlices": 2,
  "StationName": "MRC35049",
  "TaskName": "s05e22b",
  "TotalReadoutTime": 0.0576811,
  "TxRefAmp": 327.195,
  "WipMemBlock": "537d1816-6b44-4951-93a9-24e2c6b2bb9b||Sequence: R017 ve11c/master r/75a17815+; Jun 28 2022 16:32:11 by eja",
  "dcmmeta_affine": [
    [-1.9994802474975586, 0.04258151724934578, -0.016292650252580643, 98.09979248046875],
    [0.04559188708662987, 1.869419813156128, -0.7093596458435059, -73.9880142211914],
    [-0.0001260952849406749, 0.7095467448234558, 1.869904637336731, -68.53596496582031],
    [0.0, 0.0, 0.0, 1.0]
],
  "dcmmeta_reorient_transform": [
    [0.0, -1.0, 0.0, 103.0],
    [1.0, 0.0, 0.0, 0.0],
    [0.0, 0.0, 1.0, 0.0],
    [0.0, 0.0, 0.0, 1.0]
],
  "dcmmeta_shape": [104, 104, 60, 484],
  "dcmmeta_slice_dim": 2,
  "dcmmeta_version": 0.6,
  "global": {
    "const": {
      "AcquisitionMatrix": [104, 0, 0, 104],
      "AngioFlag": "N",
      "BitsAllocated": 16,
      "BitsStored": 16,
      "BodyPartExamined": "BRAIN",
      "Columns": 832,
      "EchoNumbers": 1,
      "EchoTime": 37.0,
      "EchoTrainLength": 104,
      "FlipAngle": 52.0,
      "HighBit": 15,
      "ImageOrientationPatient": [0.99974013672438, -0.0227959436591, -6.30476423e-05, 0.02129075880576, 0.9347098792092, -0.3547733717434],
      "ImagePositionPatient": [-845.79618416128, -782.43556751915, 262.86826051752],
      "ImageType": [
        "ORIGINAL",
        "PRIMARY",
        "M",
        "MB",
        "ND",
        "MOSAIC"
],
      "ImagedNucleus": "1H",
      "ImagingFrequency": 123.258753,
      "InPlanePhaseEncodingDirection": "COL",
      "MRAcquisitionType": "2D",
      "MagneticFieldStrength": 3.0,
      "Manufacturer": "SIEMENS",
      "ManufacturerModelName": "Prisma_fit",
      "Modality": "MR",
      "NumberOfAverages": 1.0,
      "NumberOfPhaseEncodingSteps": 104,
      "PercentPhaseFieldOfView": 100.0,
      "PercentSampling": 100.0,
      "PerformedProcedureStepStartTime": "173804.990000",
      "PhotometricInterpretation": "MONOCHROME2",
      "PixelBandwidth": 2290.0,
      "PixelRepresentation": 0,
      "PixelSpacing": [2.0, 2.0],
      "ProtocolName": "func_task-friends-s05e22b",
      "RepetitionTime": 1490.0,
      "Rows": 832,
      "SAR": 0.08181273487976,
      "SamplesPerPixel": 1,
      "ScanOptions": "FS",
      "ScanningSequence": "EP",
      "SequenceName": "epfid2d1_104",
      "SequenceVariant": [
        "SK",
        "SS"
],
      "SeriesDescription": "func_task-friends-s05e22b",
      "SeriesNumber": 19,
      "SeriesTime": "184838.087000",
      "SliceLocation": -38.634958628241,
      "SliceThickness": 2.0,
      "SmallestImagePixelValue": 0,
      "SoftwareVersions": "syngo MR E11",
      "SpacingBetweenSlices": 1.9999999990992,
      "SpecificCharacterSet": "ISO_IR 100",
      "StudyID": "1",
      "StudyTime": "173804.879000",
      "TransmitCoilName": "Body",
      "VariableFlipAngleFlag": "N",
      "WindowCenterWidthExplanation": "Algo1",
      "dBdt": 0.0},
    "slices": {}
  },
  "time": {
    "samples": {
      "AcquisitionNumber": [1, 2, 3, 4, 5, 6, 7, 8, 9, 10, 11, 12, 13, 14, 15, 16, 17, 18, 19, 20, 21, 22, 23, 24, 25, 26, 27, 28, 29, 30, 31, 32, 33, 34, 35, 36, 37, 38, 39, 40, 41, 42, 43, 44, 45, 46, 47, 48, 49, 50, 51, 52, 53, 54, 55, 56, 57, 58, 59, 60, 61, 62, 63, 64, 65, 66, 67, 68, 69, 70, 71, 72, 73, 74, 75, 76, 77, 78, 79, 80, 81, 82, 83, 84, 85, 86, 87, 88, 89, 90, 91, 92, 93, 94, 95, 96, 97, 98, 99, 100, 101, 102, 103, 104, 105, 106, 107, 108, 109, 110, 111, 112, 113, 114, 115, 116, 117, 118, 119, 120, 121, 122, 123, 124, 125, 126, 127, 128, 129, 130, 131, 132, 133, 134, 135, 136, 137, 138, 139, 140, 141, 142, 143, 144, 145, 146, 147, 148, 149, 150, 151, 152, 153, 154, 155, 156, 157, 158, 159, 160, 161, 162, 163, 164, 165, 166, 167, 168, 169, 170, 171, 172, 173, 174, 175, 176, 177, 178, 179, 180, 181, 182, 183, 184, 185, 186, 187, 188, 189, 190, 191, 192, 193, 194, 195, 196, 197, 198, 199, 200, 201, 202, 203, 204, 205, 206, 207, 208, 209, 210, 211, 212, 213, 214, 215, 216, 217, 218, 219, 220, 221, 222, 223, 224, 225, 226, 227, 228, 229, 230, 231, 232, 233, 234, 235, 236, 237, 238, 239, 240, 241, 242, 243, 244, 245, 246, 247, 248, 249, 250, 251, 252, 253, 254, 255, 256, 257, 258, 259, 260, 261, 262, 263, 264, 265, 266, 267, 268, 269, 270, 271, 272, 273, 274, 275, 276, 277, 278, 279, 280, 281, 282, 283, 284, 285, 286, 287, 288, 289, 290, 291, 292, 293, 294, 295, 296, 297, 298, 299, 300, 301, 302, 303, 304, 305, 306, 307, 308, 309, 310, 311, 312, 313, 314, 315, 316, 317, 318, 319, 320, 321, 322, 323, 324, 325, 326, 327, 328, 329, 330, 331, 332, 333, 334, 335, 336, 337, 338, 339, 340, 341, 342, 343, 344, 345, 346, 347, 348, 349, 350, 351, 352, 353, 354, 355, 356, 357, 358, 359, 360, 361, 362, 363, 364, 365, 366, 367, 368, 369, 370, 371, 372, 373, 374, 375, 376, 377, 378, 379, 380, 381, 382, 383, 384, 385, 386, 387, 388, 389, 390, 391, 392, 393, 394, 395, 396, 397, 398, 399, 400, 401, 402, 403, 404, 405, 406, 407, 408, 409, 410, 411, 412, 413, 414, 415, 416, 417, 418, 419, 420, 421, 422, 423, 424, 425, 426, 427, 428, 429, 430, 431, 432, 433, 434, 435, 436, 437, 438, 439, 440, 441, 442, 443, 444, 445, 446, 447, 448, 449, 450, 451, 452, 453, 454, 455, 456, 457, 458, 459, 460, 461, 462, 463, 464, 465, 466, 467, 468, 469, 470, 471, 472, 473, 474, 475, 476, 477, 478, 479, 480, 481, 482, 483, 484],
      "AcquisitionTime": ["184723.667500", "184725.157500", "184726.647500", "184728.137500", "184729.627500", "184731.117500", "184732.607500", "184734.097500", "184735.587500", "184737.077500", "184738.567500", "184740.057500", "184741.547500", "184743.037500", "184744.527500", "184746.017500", "184747.507500", "184748.997500", "184750.487500", "184751.977500", "184753.467500", "184754.957500", "184756.447500", "184757.937500", "184759.427500", "184800.917500", "184802.407500", "184803.897500", "184805.387500", "184806.877500", "184808.367500", "184809.857500", "184811.347500", "184812.837500", "184814.327500", "184815.817500", "184817.307500", "184818.797500", "184820.287500", "184821.777500", "184823.267500", "184824.757500", "184826.247500", "184827.737500", "184829.227500", "184830.717500", "184832.207500", "184833.697500", "184835.187500", "184836.677500", "184838.167500", "184839.657500", "184841.147500", "184842.637500", "184844.127500", "184845.617500", "184847.107500", "184848.597500", "184850.087500", "184851.577500", "184853.067500", "184854.557500", "184856.047500", "184857.537500", "184859.027500", "184900.517500", "184902.007500", "184903.497500", "184904.987500", "184906.477500", "184907.967500", "184909.457500", "184910.947500", "184912.437500", "184913.927500", "184915.417500", "184916.907500", "184918.397500", "184919.887500", "184921.377500", "184922.867500", "184924.357500", "184925.847500", "184927.337500", "184928.827500", "184930.317500", "184931.807500", "184933.297500", "184934.787500", "184936.277500", "184937.767500", "184939.257500", "184940.747500", "184942.237500", "184943.727500", "184945.217500", "184946.707500", "184948.197500", "184949.687500", "184951.177500", "184952.667500", "184954.157500", "184955.647500", "184957.137500", "184958.627500", "185000.117500", "185001.607500", "185003.097500", "185004.587500", "185006.077500", "185007.567500", "185009.057500", "185010.547500", "185012.037500", "185013.527500", "185015.017500", "185016.507500", "185017.997500", "185019.487500", "185020.977500", "185022.467500", "185023.957500", "185025.447500", "185026.937500", "185028.427500", "185029.917500", "185031.407500", "185032.897500", "185034.387500", "185035.877500", "185037.367500", "185038.857500", "185040.347500", "185041.837500", "185043.327500", "185044.817500", "185046.307500", "185047.797500", "185049.287500", "185050.777500", "185052.267500", "185053.757500", "185055.247500", "185056.737500", "185058.227500", "185059.717500", "185101.207500", "185102.697500", "185104.187500", "185105.677500", "185107.167500", "185108.657500", "185110.147500", "185111.637500", "185113.127500", "185114.617500", "185116.107500", "185117.597500", "185119.087500", "185120.577500", "185122.067500", "185123.557500", "185125.047500", "185126.537500", "185128.027500", "185129.517500", "185131.007500", "185132.497500", "185133.987500", "185135.477500", "185136.967500", "185138.457500", "185139.947500", "185141.437500", "185142.927500", "185144.417500", "185145.907500", "185147.397500", "185148.887500", "185150.377500", "185151.867500", "185153.357500", "185154.847500", "185156.337500", "185157.827500", "185159.317500", "185200.807500", "185202.297500", "185203.787500", "185205.277500", "185206.767500", "185208.257500", "185209.747500", "185211.237500", "185212.727500", "185214.217500", "185215.707500", "185217.197500", "185218.687500", "185220.177500", "185221.667500", "185223.157500", "185224.647500", "185226.137500", "185227.627500", "185229.117500", "185230.607500", "185232.097500", "185233.587500", "185235.077500", "185236.567500", "185238.057500", "185239.547500", "185241.037500", "185242.527500", "185244.017500", "185245.507500", "185246.997500", "185248.487500", "185249.977500", "185251.467500", "185252.957500", "185254.447500", "185255.937500", "185257.427500", "185258.917500", "185300.407500", "185301.897500", "185303.387500", "185304.877500", "185306.367500", "185307.857500", "185309.347500", "185310.837500", "185312.327500", "185313.817500", "185315.307500", "185316.797500", "185318.287500", "185319.777500", "185321.267500", "185322.757500", "185324.247500", "185325.737500", "185327.227500", "185328.717500", "185330.207500", "185331.697500", "185333.187500", "185334.677500", "185336.167500", "185337.657500", "185339.147500", "185340.637500", "185342.127500", "185343.617500", "185345.107500", "185346.597500", "185348.087500", "185349.577500", "185351.067500", "185352.557500", "185354.047500", "185355.537500", "185357.027500", "185358.517500", "185400.007500", "185401.497500", "185402.987500", "185404.477500", "185405.967500", "185407.457500", "185408.947500", "185410.437500", "185411.927500", "185413.417500", "185414.907500", "185416.397500", "185417.887500", "185419.377500", "185420.867500", "185422.357500", "185423.847500", "185425.337500", "185426.827500", "185428.317500", "185429.807500", "185431.297500", "185432.787500", "185434.277500", "185435.767500", "185437.257500", "185438.747500", "185440.237500", "185441.727500", "185443.217500", "185444.707500", "185446.197500", "185447.687500", "185449.177500", "185450.667500", "185452.157500", "185453.647500", "185455.137500", "185456.627500", "185458.117500", "185459.607500", "185501.097500", "185502.587500", "185504.077500", "185505.567500", "185507.057500", "185508.547500", "185510.037500", "185511.527500", "185513.017500", "185514.507500", "185515.997500", "185517.487500", "185518.977500", "185520.467500", "185521.957500", "185523.447500", "185524.937500", "185526.427500", "185527.917500", "185529.407500", "185530.897500", "185532.387500", "185533.877500", "185535.367500", "185536.857500", "185538.347500", "185539.837500", "185541.327500", "185542.817500", "185544.307500", "185545.797500", "185547.287500", "185548.777500", "185550.267500", "185551.757500", "185553.247500", "185554.737500", "185556.227500", "185557.717500", "185559.207500", "185600.697500", "185602.187500", "185603.677500", "185605.167500", "185606.657500", "185608.147500", "185609.637500", "185611.127500", "185612.617500", "185614.107500", "185615.597500", "185617.087500", "185618.577500", "185620.067500", "185621.557500", "185623.047500", "185624.537500", "185626.027500", "185627.517500", "185629.007500", "185630.497500", "185631.987500", "185633.477500", "185634.967500", "185636.457500", "185637.947500", "185639.437500", "185640.927500", "185642.417500", "185643.907500", "185645.397500", "185646.887500", "185648.377500", "185649.867500", "185651.357500", "185652.847500", "185654.337500", "185655.827500", "185657.317500", "185658.807500", "185700.297500", "185701.787500", "185703.277500", "185704.767500", "185706.257500", "185707.747500", "185709.237500", "185710.727500", "185712.217500", "185713.707500", "185715.197500", "185716.687500", "185718.177500", "185719.667500", "185721.157500", "185722.647500", "185724.137500", "185725.627500", "185727.117500", "185728.607500", "185730.097500", "185731.587500", "185733.077500", "185734.567500", "185736.057500", "185737.547500", "185739.037500", "185740.527500", "185742.017500", "185743.507500", "185744.997500", "185746.487500", "185747.977500", "185749.467500", "185750.957500", "185752.447500", "185753.937500", "185755.427500", "185756.917500", "185758.407500", "185759.897500", "185801.387500", "185802.877500", "185804.367500", "185805.857500", "185807.347500", "185808.837500", "185810.327500", "185811.817500", "185813.307500", "185814.797500", "185816.287500", "185817.777500", "185819.267500", "185820.757500", "185822.247500", "185823.737500", "185825.227500", "185826.717500", "185828.207500", "185829.697500", "185831.187500", "185832.677500", "185834.167500", "185835.657500", "185837.147500", "185838.637500", "185840.127500", "185841.617500", "185843.107500", "185844.597500", "185846.087500", "185847.577500", "185849.067500", "185850.557500", "185852.047500", "185853.537500", "185855.027500", "185856.517500", "185858.007500", "185859.497500", "185900.987500", "185902.477500", "185903.967500", "185905.457500", "185906.947500", "185908.437500", "185909.927500", "185911.417500", "185912.907500", "185914.397500", "185915.887500", "185917.377500", "185918.867500", "185920.357500", "185921.847500", "185923.337500"],
      "ContentTime": ["184838.090000", "184838.094000", "184838.097000", "184838.099000", "184838.102000", "184838.116000", "184838.119000", "184838.124000", "184838.127000", "184838.130000", "184838.133000", "184838.136000", "184838.139000", "184838.148000", "184838.151000", "184838.154000", "184838.157000", "184838.160000", "184838.162000", "184838.165000", "184838.168000", "184838.180000", "184838.183000", "184838.186000", "184838.189000", "184858.053000", "184858.056000", "184858.059000", "184858.062000", "184858.065000", "184858.067000", "184858.070000", "184858.073000", "184858.076000", "184858.079000", "184858.082000", "184858.085000", "184858.087000", "184858.090000", "184858.093000", "184858.096000", "184858.099000", "184858.102000", "184858.105000", "184858.108000", "184918.053000", "184918.056000", "184918.059000", "184918.062000", "184918.065000", "184918.067000", "184918.070000", "184918.074000", "184918.078000", "184918.089000", "184918.092000", "184918.094000", "184918.097000", "184918.100000", "184918.103000", "184918.106000", "184918.109000", "184918.112000", "184918.114000", "184918.117000", "184938.052000", "184938.055000", "184938.058000", "184938.060000", "184938.063000", "184938.066000", "184938.069000", "184938.072000", "184938.075000", "184938.078000", "184938.081000", "184938.083000", "184938.086000", "184938.089000", "184938.106000", "184938.109000", "184938.112000", "184938.115000", "184938.118000", "184938.121000", "184938.123000", "185018.052000", "185018.055000", "185018.058000", "185018.061000", "185018.063000", "185018.066000", "185018.069000", "185018.072000", "185018.075000", "185018.078000", "185018.081000", "185018.084000", "185018.086000", "185018.089000", "185018.092000", "185018.102000", "185018.104000", "185018.107000", "185018.110000", "185018.113000", "185018.116000", "185018.119000", "185018.122000", "185018.125000", "185018.127000", "185018.130000", "185018.133000", "185018.136000", "185018.139000", "185018.142000", "185058.052000", "185058.055000", "185058.058000", "185058.061000", "185058.064000", "185058.066000", "185058.069000", "185058.072000", "185058.075000", "185058.078000", "185058.081000", "185058.084000", "185058.087000", "185058.089000", "185058.092000", "185058.095000", "185058.098000", "185058.101000", "185058.104000", "185058.107000", "185058.110000", "185058.112000", "185058.115000", "185058.118000", "185058.121000", "185058.124000", "185058.127000", "185138.053000", "185138.056000", "185138.059000", "185138.062000", "185138.065000", "185138.067000", "185138.070000", "185138.073000", "185138.076000", "185138.079000", "185138.082000", "185138.085000", "185138.088000", "185138.090000", "185138.093000", "185138.096000", "185138.099000", "185138.102000", "185138.105000", "185138.108000", "185138.110000", "185138.113000", "185138.116000", "185138.119000", "185138.122000", "185138.125000", "185138.129000", "185218.052000", "185218.055000", "185218.058000", "185218.061000", "185218.064000", "185218.068000", "185218.071000", "185218.074000", "185218.077000", "185218.079000", "185218.082000", "185218.085000", "185218.088000", "185218.091000", "185218.094000", "185218.097000", "185218.100000", "185218.102000", "185218.105000", "185218.108000", "185218.111000", "185218.114000", "185218.117000", "185218.120000", "185218.123000", "185218.125000", "185258.052000", "185258.055000", "185258.058000", "185258.061000", "185258.064000", "185258.067000", "185258.069000", "185258.072000", "185258.075000", "185258.078000", "185258.081000", "185258.084000", "185258.087000", "185258.089000", "185258.092000", "185258.095000", "185258.098000", "185258.101000", "185258.104000", "185258.107000", "185258.109000", "185258.112000", "185258.115000", "185258.118000", "185258.121000", "185258.124000", "185258.126000", "185338.053000", "185338.056000", "185338.059000", "185338.062000", "185338.065000", "185338.068000", "185338.071000", "185338.073000", "185338.076000", "185338.079000", "185338.082000", "185338.085000", "185338.088000", "185338.091000", "185338.094000", "185338.097000", "185338.100000", "185338.103000", "185338.106000", "185338.109000", "185338.111000", "185338.114000", "185338.117000", "185338.129000", "185338.132000", "185338.135000", "185338.138000", "185418.052000", "185418.055000", "185418.058000", "185418.061000", "185418.064000", "185418.067000", "185418.070000", "185418.073000", "185418.075000", "185418.078000", "185418.081000", "185418.084000", "185418.087000", "185418.090000", "185418.093000", "185418.095000", "185418.098000", "185418.101000", "185418.104000", "185418.107000", "185418.110000", "185418.113000", "185418.116000", "185418.118000", "185418.121000", "185418.124000", "185418.127000", "185458.052000", "185458.055000", "185458.058000", "185458.061000", "185458.064000", "185458.067000", "185458.070000", "185458.073000", "185458.076000", "185458.079000", "185458.081000", "185458.084000", "185458.087000", "185458.090000", "185458.093000", "185458.096000", "185458.099000", "185458.102000", "185458.104000", "185458.107000", "185458.110000", "185458.113000", "185458.116000", "185458.119000", "185458.122000", "185458.124000", "185458.127000", "185538.052000", "185538.055000", "185538.058000", "185538.061000", "185538.064000", "185538.066000", "185538.069000", "185538.072000", "185538.075000", "185538.078000", "185538.081000", "185538.084000", "185538.087000", "185538.089000", "185538.092000", "185538.095000", "185538.098000", "185538.101000", "185538.104000", "185538.107000", "185538.109000", "185538.112000", "185538.115000", "185538.118000", "185538.121000", "185538.133000", "185538.136000", "185618.053000", "185618.056000", "185618.059000", "185618.062000", "185618.065000", "185618.068000", "185618.070000", "185618.073000", "185618.076000", "185618.079000", "185618.082000", "185618.085000", "185618.088000", "185618.091000", "185618.094000", "185618.097000", "185618.099000", "185618.102000", "185618.105000", "185618.108000", "185618.111000", "185618.114000", "185618.117000", "185618.119000", "185618.122000", "185618.125000", "185658.052000", "185658.055000", "185658.058000", "185658.061000", "185658.064000", "185658.067000", "185658.069000", "185658.072000", "185658.075000", "185658.078000", "185658.081000", "185658.084000", "185658.087000", "185658.090000", "185658.092000", "185658.095000", "185658.098000", "185658.101000", "185658.104000", "185658.107000", "185658.110000", "185658.113000", "185658.116000", "185658.119000", "185658.122000", "185658.124000", "185658.127000", "185738.052000", "185738.055000", "185738.064000", "185738.067000", "185738.070000", "185738.073000", "185738.076000", "185738.079000", "185738.082000", "185738.085000", "185738.087000", "185738.090000", "185738.093000", "185738.096000", "185738.099000", "185738.102000", "185738.105000", "185738.108000", "185738.110000", "185738.113000", "185738.116000", "185738.119000", "185738.122000", "185738.125000", "185738.128000", "185738.130000", "185738.133000", "185818.053000", "185818.056000", "185818.059000", "185818.062000", "185818.065000", "185818.068000", "185818.071000", "185818.073000", "185818.076000", "185818.079000", "185818.082000", "185818.085000", "185818.088000", "185818.090000", "185818.093000", "185818.096000", "185818.099000", "185818.102000", "185818.105000", "185818.108000", "185818.111000", "185818.113000", "185818.116000", "185818.119000", "185818.122000", "185818.125000", "185818.128000", "185858.052000", "185858.055000", "185858.058000", "185858.061000", "185858.064000", "185858.067000", "185858.070000", "185858.073000", "185858.076000", "185858.079000", "185858.082000", "185858.085000", "185858.088000", "185858.091000", "185858.094000", "185858.097000", "185858.101000", "185858.104000", "185858.107000", "185858.111000", "185858.114000", "185858.117000", "185858.121000", "185858.124000", "185858.127000", "185858.131000", "185858.134000", "185918.052000", "185918.055000", "185918.058000", "185918.061000", "185918.064000", "185918.067000", "185918.070000", "185918.072000", "185918.075000", "185918.078000", "185918.081000", "185918.084000", "185918.087000", "185925.868000", "185925.872000", "185925.875000", "185925.878000", "185925.880000", "185925.883000"],
