{
  "AcquisitionMatrixPE": 104,
  "AcquisitionNumber": 1,
  "AcquisitionTime": "18:08:59.830000",
  "BandwidthPerPixelPhaseEncode": 17.17,
  "BaseResolution": 104,
  "BodyPartExamined": "BRAIN",
  "CoilCombinationMethod": "Sum of Squares",
  "ConsistencyInfo": "N4_VE11C_LATEST_20160120",
  "ConversionSoftware": "dcm2niix",
  "ConversionSoftwareVersion": "v1.0.20220505",
  "DerivedVendorReportedEchoSpacing": 0.000560011,
  "DeviceSerialNumber": "167006",
  "DwellTime": 2.1e-06,
  "EchoTime": 0.037,
  "EchoTrainLength": 104,
  "EffectiveEchoSpacing": 0.000560011,
  "FlipAngle": 52,
  "HeudiconvVersion": "0.5.3.post811+g6206e14",
  "ImageComments": "Unaliased MB4/PE3/LB",
  "ImageOrientationPatientDICOM": [0.99974, -0.0227959, -6.30476e-05, 0.0212908, 0.93471, -0.354773],
  "ImageOrientationText": "Tra>Cor(-20.8)>Sag(-0.5)",
  "ImageType": [
    "ORIGINAL",
    "PRIMARY",
    "M",
    "MB",
    "ND",
    "MOSAIC"
],
  "ImagingFrequency": 123.259,
  "InPlanePhaseEncodingDirectionDICOM": "COL",
  "InstitutionAddress": "Chemin Queen-Mary 4565,Montreal,District,CA,H3W 1W5",
  "InstitutionName": "IUGM",
  "InstitutionalDepartmentName": "Department",
  "MRAcquisitionType": "2D",
  "MagneticFieldStrength": 3,
  "Manufacturer": "Siemens",
  "ManufacturersModelName": "Prisma_fit",
  "MatrixCoilMode": "SENSE",
  "Modality": "MR",
  "MultibandAccelerationFactor": 4,
  "PartialFourier": 1,
  "PatientPosition": "HFS",
  "PercentPhaseFOV": 100,
  "PercentSampling": 100,
  "PhaseEncodingDirection": "j",
  "PhaseEncodingSteps": 104,
  "PhaseResolution": 1,
  "PixelBandwidth": 2290,
  "ProcedureStepDescription": "video^friends",
  "ProtocolName": "func_task-friends-s05e21a",
  "PulseSequenceDetails": "%CustomerSeq%\\cmrr_mbep2d_bold",
  "ReceiveCoilActiveElements": "HC1-7;NC1,2",
  "ReceiveCoilName": "HeadNeck_64",
  "ReconMatrixPE": 104,
  "RepetitionTime": 1.49,
  "SAR": 0.0818127,
  "ScanOptions": "FS",
  "ScanningSequence": "EP",
  "SequenceName": "epfid2d1_104",
  "SequenceVariant": "SK\\SS",
  "SeriesDescription": "func_task-friends-s05e21a",
  "SeriesNumber": 13,
  "ShimSetting": [617, -7257, -8834, 408, 35, -364, 3, 33],
  "SliceThickness": 2,
  "SliceTiming": [0, 0.7825, 0.0975, 0.88, 0.195, 0.98, 0.2925, 1.0775, 0.39, 1.175, 0.49, 1.2725, 0.5875, 1.37, 0.685, 0, 0.7825, 0.0975, 0.88, 0.195, 0.98, 0.2925, 1.0775, 0.39, 1.175, 0.49, 1.2725, 0.5875, 1.37, 0.685, 0, 0.7825, 0.0975, 0.88, 0.195, 0.98, 0.2925, 1.0775, 0.39, 1.175, 0.49, 1.2725, 0.5875, 1.37, 0.685, 0, 0.7825, 0.0975, 0.88, 0.195, 0.98, 0.2925, 1.0775, 0.39, 1.175, 0.49, 1.2725, 0.5875, 1.37, 0.685],
  "SoftwareVersions": "syngo MR E11",
  "SpacingBetweenSlices": 2,
  "StationName": "MRC35049",
  "TaskName": "s05e21a",
  "TotalReadoutTime": 0.0576811,
  "TxRefAmp": 327.195,
  "WipMemBlock": "490800c8-83c6-4a16-b8d2-1ef35276ee04||Sequence: R017 ve11c/master r/75a17815+; Jun 28 2022 16:32:11 by eja",
  "dcmmeta_affine": [
    [-1.9994802474975586, 0.04258151724934578, -0.016292650252580643, 98.09979248046875],
    [0.04559188708662987, 1.869419813156128, -0.7093596458435059, -73.9880142211914],
    [-0.0001260952849406749, 0.7095467448234558, 1.869904637336731, -68.53596496582031],
    [0.0, 0.0, 0.0, 1.0]
],
  "dcmmeta_reorient_transform": [
    [0.0, -1.0, 0.0, 103.0],
    [1.0, 0.0, 0.0, 0.0],
    [0.0, 0.0, 1.0, 0.0],
    [0.0, 0.0, 0.0, 1.0]
],
  "dcmmeta_shape": [104, 104, 60, 444],
  "dcmmeta_slice_dim": 2,
  "dcmmeta_version": 0.6,
  "global": {
    "const": {
      "AcquisitionMatrix": [104, 0, 0, 104],
      "AngioFlag": "N",
      "BitsAllocated": 16,
      "BitsStored": 16,
      "BodyPartExamined": "BRAIN",
      "Columns": 832,
      "EchoNumbers": 1,
      "EchoTime": 37.0,
      "EchoTrainLength": 104,
      "FlipAngle": 52.0,
      "HighBit": 15,
      "ImageOrientationPatient": [0.99974013672438, -0.0227959436591, -6.30476423e-05, 0.02129075880576, 0.9347098792092, -0.3547733717434],
      "ImagePositionPatient": [-845.79618416128, -782.43556751915, 262.86826051752],
      "ImageType": [
        "ORIGINAL",
        "PRIMARY",
        "M",
        "MB",
        "ND",
        "MOSAIC"
],
      "ImagedNucleus": "1H",
      "ImagingFrequency": 123.258747,
      "InPlanePhaseEncodingDirection": "COL",
      "MRAcquisitionType": "2D",
      "MagneticFieldStrength": 3.0,
      "Manufacturer": "SIEMENS",
      "ManufacturerModelName": "Prisma_fit",
      "Modality": "MR",
      "NumberOfAverages": 1.0,
      "NumberOfPhaseEncodingSteps": 104,
      "PercentPhaseFieldOfView": 100.0,
      "PercentSampling": 100.0,
      "PerformedProcedureStepStartTime": "173804.990000",
      "PhotometricInterpretation": "MONOCHROME2",
      "PixelBandwidth": 2290.0,
      "PixelRepresentation": 0,
      "PixelSpacing": [2.0, 2.0],
      "ProtocolName": "func_task-friends-s05e21a",
      "RepetitionTime": 1490.0,
      "Rows": 832,
      "SAR": 0.08181273102691,
      "SamplesPerPixel": 1,
      "ScanOptions": "FS",
      "ScanningSequence": "EP",
      "SequenceName": "epfid2d1_104",
      "SequenceVariant": [
        "SK",
        "SS"
],
      "SeriesDescription": "func_task-friends-s05e21a",
      "SeriesNumber": 13,
      "SeriesTime": "180958.095000",
      "SliceLocation": -38.634958628241,
      "SliceThickness": 2.0,
      "SmallestImagePixelValue": 0,
      "SoftwareVersions": "syngo MR E11",
      "SpacingBetweenSlices": 1.9999999990992,
      "SpecificCharacterSet": "ISO_IR 100",
      "StudyID": "1",
      "StudyTime": "173804.879000",
      "TransmitCoilName": "Body",
      "VariableFlipAngleFlag": "N",
      "WindowCenterWidthExplanation": "Algo1",
      "dBdt": 0.0},
    "slices": {}
  },
  "time": {
    "samples": {
      "AcquisitionNumber": [1, 2, 3, 4, 5, 6, 7, 8, 9, 10, 11, 12, 13, 14, 15, 16, 17, 18, 19, 20, 21, 22, 23, 24, 25, 26, 27, 28, 29, 30, 31, 32, 33, 34, 35, 36, 37, 38, 39, 40, 41, 42, 43, 44, 45, 46, 47, 48, 49, 50, 51, 52, 53, 54, 55, 56, 57, 58, 59, 60, 61, 62, 63, 64, 65, 66, 67, 68, 69, 70, 71, 72, 73, 74, 75, 76, 77, 78, 79, 80, 81, 82, 83, 84, 85, 86, 87, 88, 89, 90, 91, 92, 93, 94, 95, 96, 97, 98, 99, 100, 101, 102, 103, 104, 105, 106, 107, 108, 109, 110, 111, 112, 113, 114, 115, 116, 117, 118, 119, 120, 121, 122, 123, 124, 125, 126, 127, 128, 129, 130, 131, 132, 133, 134, 135, 136, 137, 138, 139, 140, 141, 142, 143, 144, 145, 146, 147, 148, 149, 150, 151, 152, 153, 154, 155, 156, 157, 158, 159, 160, 161, 162, 163, 164, 165, 166, 167, 168, 169, 170, 171, 172, 173, 174, 175, 176, 177, 178, 179, 180, 181, 182, 183, 184, 185, 186, 187, 188, 189, 190, 191, 192, 193, 194, 195, 196, 197, 198, 199, 200, 201, 202, 203, 204, 205, 206, 207, 208, 209, 210, 211, 212, 213, 214, 215, 216, 217, 218, 219, 220, 221, 222, 223, 224, 225, 226, 227, 228, 229, 230, 231, 232, 233, 234, 235, 236, 237, 238, 239, 240, 241, 242, 243, 244, 245, 246, 247, 248, 249, 250, 251, 252, 253, 254, 255, 256, 257, 258, 259, 260, 261, 262, 263, 264, 265, 266, 267, 268, 269, 270, 271, 272, 273, 274, 275, 276, 277, 278, 279, 280, 281, 282, 283, 284, 285, 286, 287, 288, 289, 290, 291, 292, 293, 294, 295, 296, 297, 298, 299, 300, 301, 302, 303, 304, 305, 306, 307, 308, 309, 310, 311, 312, 313, 314, 315, 316, 317, 318, 319, 320, 321, 322, 323, 324, 325, 326, 327, 328, 329, 330, 331, 332, 333, 334, 335, 336, 337, 338, 339, 340, 341, 342, 343, 344, 345, 346, 347, 348, 349, 350, 351, 352, 353, 354, 355, 356, 357, 358, 359, 360, 361, 362, 363, 364, 365, 366, 367, 368, 369, 370, 371, 372, 373, 374, 375, 376, 377, 378, 379, 380, 381, 382, 383, 384, 385, 386, 387, 388, 389, 390, 391, 392, 393, 394, 395, 396, 397, 398, 399, 400, 401, 402, 403, 404, 405, 406, 407, 408, 409, 410, 411, 412, 413, 414, 415, 416, 417, 418, 419, 420, 421, 422, 423, 424, 425, 426, 427, 428, 429, 430, 431, 432, 433, 434, 435, 436, 437, 438, 439, 440, 441, 442, 443, 444],
      "AcquisitionTime": ["180859.830000", "180901.320000", "180902.810000", "180904.300000", "180905.790000", "180907.280000", "180908.770000", "180910.260000", "180911.750000", "180913.240000", "180914.730000", "180916.220000", "180917.710000", "180919.200000", "180920.690000", "180922.180000", "180923.670000", "180925.160000", "180926.650000", "180928.140000", "180929.630000", "180931.120000", "180932.610000", "180934.100000", "180935.590000", "180937.080000", "180938.570000", "180940.060000", "180941.550000", "180943.040000", "180944.530000", "180946.020000", "180947.510000", "180949.000000", "180950.490000", "180951.980000", "180953.470000", "180954.960000", "180956.450000", "180957.940000", "180959.430000", "181000.920000", "181002.410000", "181003.900000", "181005.390000", "181006.880000", "181008.370000", "181009.860000", "181011.350000", "181012.840000", "181014.330000", "181015.820000", "181017.310000", "181018.800000", "181020.290000", "181021.780000", "181023.270000", "181024.760000", "181026.250000", "181027.740000", "181029.230000", "181030.720000", "181032.210000", "181033.700000", "181035.190000", "181036.680000", "181038.170000", "181039.660000", "181041.150000", "181042.640000", "181044.130000", "181045.620000", "181047.110000", "181048.600000", "181050.090000", "181051.580000", "181053.070000", "181054.560000", "181056.050000", "181057.540000", "181059.030000", "181100.520000", "181102.010000", "181103.500000", "181104.990000", "181106.480000", "181107.970000", "181109.460000", "181110.950000", "181112.440000", "181113.930000", "181115.420000", "181116.910000", "181118.400000", "181119.890000", "181121.380000", "181122.870000", "181124.360000", "181125.850000", "181127.340000", "181128.830000", "181130.320000", "181131.810000", "181133.300000", "181134.790000", "181136.280000", "181137.770000", "181139.260000", "181140.750000", "181142.240000", "181143.730000", "181145.220000", "181146.710000", "181148.200000", "181149.690000", "181151.180000", "181152.670000", "181154.160000", "181155.650000", "181157.140000", "181158.630000", "181200.120000", "181201.610000", "181203.100000", "181204.590000", "181206.080000", "181207.570000", "181209.060000", "181210.550000", "181212.040000", "181213.530000", "181215.020000", "181216.510000", "181218.000000", "181219.490000", "181220.980000", "181222.470000", "181223.960000", "181225.450000", "181226.940000", "181228.430000", "181229.920000", "181231.410000", "181232.900000", "181234.390000", "181235.880000", "181237.370000", "181238.860000", "181240.350000", "181241.840000", "181243.330000", "181244.820000", "181246.310000", "181247.800000", "181249.290000", "181250.780000", "181252.270000", "181253.760000", "181255.250000", "181256.740000", "181258.230000", "181259.720000", "181301.210000", "181302.700000", "181304.190000", "181305.680000", "181307.170000", "181308.660000", "181310.150000", "181311.640000", "181313.130000", "181314.620000", "181316.110000", "181317.600000", "181319.090000", "181320.580000", "181322.070000", "181323.560000", "181325.050000", "181326.540000", "181328.030000", "181329.520000", "181331.010000", "181332.500000", "181333.990000", "181335.480000", "181336.970000", "181338.460000", "181339.950000", "181341.440000", "181342.930000", "181344.420000", "181345.910000", "181347.400000", "181348.890000", "181350.380000", "181351.870000", "181353.360000", "181354.850000", "181356.340000", "181357.830000", "181359.320000", "181400.810000", "181402.300000", "181403.790000", "181405.280000", "181406.770000", "181408.260000", "181409.750000", "181411.240000", "181412.730000", "181414.220000", "181415.710000", "181417.200000", "181418.690000", "181420.180000", "181421.670000", "181423.160000", "181424.650000", "181426.140000", "181427.630000", "181429.120000", "181430.610000", "181432.100000", "181433.590000", "181435.080000", "181436.570000", "181438.060000", "181439.550000", "181441.040000", "181442.530000", "181444.020000", "181445.510000", "181447.000000", "181448.490000", "181449.980000", "181451.470000", "181452.960000", "181454.450000", "181455.940000", "181457.430000", "181458.920000", "181500.410000", "181501.900000", "181503.390000", "181504.880000", "181506.370000", "181507.860000", "181509.350000", "181510.840000", "181512.330000", "181513.820000", "181515.310000", "181516.800000", "181518.290000", "181519.780000", "181521.270000", "181522.760000", "181524.250000", "181525.740000", "181527.230000", "181528.720000", "181530.210000", "181531.700000", "181533.190000", "181534.680000", "181536.170000", "181537.660000", "181539.150000", "181540.640000", "181542.130000", "181543.620000", "181545.110000", "181546.600000", "181548.090000", "181549.580000", "181551.070000", "181552.560000", "181554.050000", "181555.540000", "181557.030000", "181558.520000", "181600.010000", "181601.500000", "181602.990000", "181604.480000", "181605.970000", "181607.460000", "181608.950000", "181610.440000", "181611.930000", "181613.420000", "181614.910000", "181616.400000", "181617.890000", "181619.380000", "181620.870000", "181622.360000", "181623.850000", "181625.340000", "181626.830000", "181628.320000", "181629.810000", "181631.300000", "181632.790000", "181634.280000", "181635.770000", "181637.260000", "181638.750000", "181640.240000", "181641.730000", "181643.220000", "181644.710000", "181646.200000", "181647.690000", "181649.180000", "181650.670000", "181652.160000", "181653.650000", "181655.140000", "181656.630000", "181658.120000", "181659.610000", "181701.100000", "181702.590000", "181704.080000", "181705.570000", "181707.060000", "181708.550000", "181710.040000", "181711.530000", "181713.020000", "181714.510000", "181716.000000", "181717.490000", "181718.980000", "181720.470000", "181721.960000", "181723.450000", "181724.940000", "181726.430000", "181727.920000", "181729.410000", "181730.900000", "181732.390000", "181733.880000", "181735.370000", "181736.860000", "181738.350000", "181739.840000", "181741.330000", "181742.820000", "181744.310000", "181745.800000", "181747.290000", "181748.780000", "181750.270000", "181751.760000", "181753.250000", "181754.740000", "181756.230000", "181757.720000", "181759.210000", "181800.700000", "181802.190000", "181803.680000", "181805.170000", "181806.660000", "181808.150000", "181809.640000", "181811.130000", "181812.620000", "181814.110000", "181815.600000", "181817.090000", "181818.580000", "181820.070000", "181821.560000", "181823.050000", "181824.540000", "181826.030000", "181827.520000", "181829.010000", "181830.500000", "181831.990000", "181833.480000", "181834.970000", "181836.460000", "181837.950000", "181839.440000", "181840.930000", "181842.420000", "181843.910000", "181845.400000", "181846.890000", "181848.380000", "181849.870000", "181851.360000", "181852.850000", "181854.340000", "181855.830000", "181857.320000", "181858.810000", "181900.300000", "181901.790000", "181903.280000", "181904.770000", "181906.260000", "181907.750000", "181909.240000", "181910.730000", "181912.220000", "181913.710000", "181915.200000", "181916.690000", "181918.180000", "181919.670000", "181921.160000", "181922.650000", "181924.140000", "181925.630000", "181927.120000", "181928.610000", "181930.100000", "181931.590000", "181933.080000", "181934.570000", "181936.060000", "181937.550000", "181939.040000", "181940.530000", "181942.020000", "181943.510000", "181945.000000", "181946.490000", "181947.980000", "181949.470000", "181950.960000", "181952.450000", "181953.940000", "181955.430000", "181956.920000", "181958.410000", "181959.900000"],
      "ContentTime": ["180958.098000", "180958.101000", "180958.104000", "180958.107000", "180958.110000", "180958.113000", "180958.115000", "180958.118000", "180958.121000", "181018.052000", "181018.055000", "181018.065000", "181018.068000", "181018.070000", "181018.073000", "181018.076000", "181018.079000", "181018.082000", "181018.084000", "181018.087000", "181018.090000", "181018.094000", "181018.097000", "181018.100000", "181018.103000", "181018.106000", "181018.109000", "181018.112000", "181018.115000", "181018.117000", "181038.052000", "181038.055000", "181038.058000", "181038.060000", "181038.063000", "181038.066000", "181038.069000", "181038.072000", "181038.074000", "181038.077000", "181038.080000", "181038.083000", "181038.086000", "181038.088000", "181038.091000", "181038.094000", "181038.097000", "181038.099000", "181038.102000", "181038.105000", "181058.052000", "181058.055000", "181058.059000", "181058.061000", "181058.064000", "181058.067000", "181058.070000", "181058.073000", "181058.075000", "181058.078000", "181058.081000", "181058.084000", "181058.087000", "181058.089000", "181058.092000", "181058.095000", "181058.098000", "181058.101000", "181058.103000", "181058.106000", "181118.052000", "181118.055000", "181118.058000", "181118.060000", "181118.063000", "181118.072000", "181118.075000", "181118.077000", "181118.080000", "181118.083000", "181118.086000", "181118.089000", "181118.091000", "181118.094000", "181118.097000", "181118.100000", "181118.103000", "181118.105000", "181118.108000", "181118.111000", "181158.053000", "181158.056000", "181158.059000", "181158.061000", "181158.064000", "181158.067000", "181158.070000", "181158.073000", "181158.076000", "181158.078000", "181158.081000", "181158.084000", "181158.087000", "181158.090000", "181158.093000", "181158.095000", "181158.098000", "181158.101000", "181158.104000", "181158.107000", "181158.109000", "181158.112000", "181158.115000", "181158.118000", "181158.121000", "181158.123000", "181158.126000", "181158.129000", "181158.132000", "181238.052000", "181238.055000", "181238.058000", "181238.060000", "181238.064000", "181238.066000", "181238.069000", "181238.072000", "181238.075000", "181238.078000", "181238.081000", "181238.083000", "181238.086000", "181238.089000", "181238.092000", "181238.095000", "181238.098000", "181238.101000", "181238.105000", "181238.108000", "181238.111000", "181238.114000", "181238.117000", "181238.119000", "181238.122000", "181238.125000", "181318.052000", "181318.055000", "181318.058000", "181318.061000", "181318.064000", "181318.066000", "181318.069000", "181318.072000", "181318.075000", "181318.078000", "181318.081000", "181318.084000", "181318.087000", "181318.089000", "181318.092000", "181318.110000", "181318.113000", "181318.116000", "181318.118000", "181318.121000", "181318.124000", "181318.127000", "181318.130000", "181318.132000", "181318.135000", "181318.138000", "181318.141000", "181358.052000", "181358.055000", "181358.058000", "181358.061000", "181358.064000", "181358.066000", "181358.069000", "181358.072000", "181358.075000", "181358.078000", "181358.081000", "181358.084000", "181358.087000", "181358.090000", "181358.092000", "181358.095000", "181358.098000", "181358.101000", "181358.104000", "181358.107000", "181358.110000", "181358.112000", "181358.115000", "181358.118000", "181358.121000", "181358.124000", "181358.127000", "181438.053000", "181438.056000", "181438.059000", "181438.062000", "181438.065000", "181438.068000", "181438.071000", "181438.073000", "181438.076000", "181438.079000", "181438.082000", "181438.085000", "181438.088000", "181438.091000", "181438.094000", "181438.096000", "181438.099000", "181438.102000", "181438.105000", "181438.108000", "181438.110000", "181438.113000", "181438.116000", "181438.119000", "181438.122000", "181438.125000", "181438.128000", "181518.052000", "181518.055000", "181518.058000", "181518.061000", "181518.064000", "181518.067000", "181518.069000", "181518.072000", "181518.075000", "181518.078000", "181518.081000", "181518.084000", "181518.087000", "181518.090000", "181518.093000", "181518.095000", "181518.098000", "181518.101000", "181518.104000", "181518.107000", "181518.110000", "181518.113000", "181518.116000", "181518.118000", "181518.121000", "181518.124000", "181518.127000", "181558.052000", "181558.055000", "181558.058000", "181558.061000", "181558.064000", "181558.066000", "181558.069000", "181558.072000", "181558.075000", "181558.078000", "181558.081000", "181558.084000", "181558.087000", "181558.089000", "181558.092000", "181558.095000", "181558.098000", "181558.101000", "181558.104000", "181558.106000", "181558.109000", "181558.112000", "181558.115000", "181558.118000", "181558.121000", "181558.124000", "181558.127000", "181638.053000", "181638.056000", "181638.059000", "181638.062000", "181638.065000", "181638.068000", "181638.071000", "181638.073000", "181638.076000", "181638.079000", "181638.082000", "181638.085000", "181638.088000", "181638.091000", "181638.094000", "181638.097000", "181638.099000", "181638.102000", "181638.105000", "181638.108000", "181638.112000", "181638.115000", "181638.118000", "181638.121000", "181638.124000", "181638.127000", "181718.052000", "181718.055000", "181718.058000", "181718.061000", "181718.064000", "181718.067000", "181718.069000", "181718.072000", "181718.075000", "181718.078000", "181718.081000", "181718.084000", "181718.087000", "181718.090000", "181718.092000", "181718.095000", "181718.098000", "181718.101000", "181718.104000", "181718.107000", "181718.109000", "181718.112000", "181718.115000", "181718.118000", "181718.121000", "181718.124000", "181718.127000", "181758.052000", "181758.055000", "181758.058000", "181758.061000", "181758.064000", "181758.066000", "181758.069000", "181758.072000", "181758.075000", "181758.078000", "181758.081000", "181758.084000", "181758.087000", "181758.089000", "181758.092000", "181758.095000", "181758.098000", "181758.101000", "181758.104000", "181758.107000", "181758.110000", "181758.112000", "181758.115000", "181758.118000", "181758.121000", "181758.124000", "181758.127000", "181838.053000", "181838.056000", "181838.059000", "181838.062000", "181838.064000", "181838.067000", "181838.070000", "181838.073000", "181838.076000", "181838.079000", "181838.082000", "181838.085000", "181838.087000", "181838.090000", "181838.093000", "181838.096000", "181838.099000", "181838.102000", "181838.105000", "181838.108000", "181838.110000", "181838.113000", "181838.116000", "181838.119000", "181838.122000", "181838.125000", "181838.128000", "181918.053000", "181918.056000", "181918.059000", "181918.062000", "181918.065000", "181918.068000", "181918.071000", "181918.073000", "181918.076000", "181918.079000", "181918.082000", "181918.085000", "181918.088000", "181918.091000", "181918.094000", "181918.097000", "181918.099000", "181918.102000", "181918.105000", "181918.108000", "181918.111000", "181918.113000", "181918.116000", "181918.119000", "181918.122000", "181918.125000", "181918.128000", "181958.052000", "181958.056000", "181958.059000", "181958.063000", "181958.066000", "181958.069000", "181958.073000", "181958.076000", "181958.079000", "181958.083000", "181958.086000", "181958.089000", "181958.092000", "181958.096000", "181958.099000", "181958.102000", "181958.105000", "181958.108000", "181958.110000", "181958.113000", "181958.116000", "181958.119000", "181958.122000", "181958.125000", "181958.128000", "181958.130000", "181958.133000", "182002.294000", "182002.297000", "182002.300000"],
