{
  "AcquisitionMatrixPE": 104,
  "AcquisitionNumber": 1,
  "AcquisitionTime": "17:55:21.117500",
  "BandwidthPerPixelPhaseEncode": 17.17,
  "BaseResolution": 104,
  "BodyPartExamined": "BRAIN",
  "CoilCombinationMethod": "Sum of Squares",
  "ConsistencyInfo": "N4_VE11C_LATEST_20160120",
  "ConversionSoftware": "dcm2niix",
  "ConversionSoftwareVersion": "v1.0.20220505",
  "DerivedVendorReportedEchoSpacing": 0.000560011,
  "DeviceSerialNumber": "167006",
  "DwellTime": 2.1e-06,
  "EchoTime": 0.037,
  "EchoTrainLength": 104,
  "EffectiveEchoSpacing": 0.000560011,
  "FlipAngle": 52,
  "HeudiconvVersion": "0.5.3.post811+g6206e14",
  "ImageComments": "Unaliased MB4/PE3/LB",
  "ImageOrientationPatientDICOM": [0.99974, -0.0227959, -6.30476e-05, 0.0212908, 0.93471, -0.354773],
  "ImageOrientationText": "Tra>Cor(-20.8)>Sag(-0.5)",
  "ImageType": [
    "ORIGINAL",
    "PRIMARY",
    "M",
    "MB",
    "ND",
    "MOSAIC"
],
  "ImagingFrequency": 123.259,
  "InPlanePhaseEncodingDirectionDICOM": "COL",
  "InstitutionAddress": "Chemin Queen-Mary 4565,Montreal,District,CA,H3W 1W5",
  "InstitutionName": "IUGM",
  "InstitutionalDepartmentName": "Department",
  "MRAcquisitionType": "2D",
  "MagneticFieldStrength": 3,
  "Manufacturer": "Siemens",
  "ManufacturersModelName": "Prisma_fit",
  "MatrixCoilMode": "SENSE",
  "Modality": "MR",
  "MultibandAccelerationFactor": 4,
  "PartialFourier": 1,
  "PatientPosition": "HFS",
  "PercentPhaseFOV": 100,
  "PercentSampling": 100,
  "PhaseEncodingDirection": "j",
  "PhaseEncodingSteps": 104,
  "PhaseResolution": 1,
  "PixelBandwidth": 2290,
  "ProcedureStepDescription": "video^friends",
  "ProtocolName": "func_task-friends-s05e20b",
  "PulseSequenceDetails": "%CustomerSeq%\\cmrr_mbep2d_bold",
  "ReceiveCoilActiveElements": "HC1-7;NC1,2",
  "ReceiveCoilName": "HeadNeck_64",
  "ReconMatrixPE": 104,
  "RepetitionTime": 1.49,
  "SAR": 0.0818127,
  "ScanOptions": "FS",
  "ScanningSequence": "EP",
  "SequenceName": "epfid2d1_104",
  "SequenceVariant": "SK\\SS",
  "SeriesDescription": "func_task-friends-s05e20b",
  "SeriesNumber": 11,
  "ShimSetting": [617, -7257, -8834, 408, 35, -364, 3, 33],
  "SliceThickness": 2,
  "SliceTiming": [0, 0.785, 0.1, 0.8825, 0.1975, 0.98, 0.295, 1.08, 0.3925, 1.1775, 0.49, 1.275, 0.59, 1.3725, 0.6875, 0, 0.785, 0.1, 0.8825, 0.1975, 0.98, 0.295, 1.08, 0.3925, 1.1775, 0.49, 1.275, 0.59, 1.3725, 0.6875, 0, 0.785, 0.1, 0.8825, 0.1975, 0.98, 0.295, 1.08, 0.3925, 1.1775, 0.49, 1.275, 0.59, 1.3725, 0.6875, 0, 0.785, 0.1, 0.8825, 0.1975, 0.98, 0.295, 1.08, 0.3925, 1.1775, 0.49, 1.275, 0.59, 1.3725, 0.6875],
  "SoftwareVersions": "syngo MR E11",
  "SpacingBetweenSlices": 2,
  "StationName": "MRC35049",
  "TaskName": "s05e20b",
  "TotalReadoutTime": 0.0576811,
  "TxRefAmp": 327.195,
  "WipMemBlock": "6a676f88-6d37-42e5-81b8-259a5b2dca30||Sequence: R017 ve11c/master r/75a17815+; Jun 28 2022 16:32:11 by eja",
  "dcmmeta_affine": [
    [-1.9994802474975586, 0.04258151724934578, -0.016292650252580643, 98.09979248046875],
    [0.04559188708662987, 1.869419813156128, -0.7093596458435059, -73.9880142211914],
    [-0.0001260952849406749, 0.7095467448234558, 1.869904637336731, -68.53596496582031],
    [0.0, 0.0, 0.0, 1.0]
],
  "dcmmeta_reorient_transform": [
    [0.0, -1.0, 0.0, 103.0],
    [1.0, 0.0, 0.0, 0.0],
    [0.0, 0.0, 1.0, 0.0],
    [0.0, 0.0, 0.0, 1.0]
],
  "dcmmeta_shape": [104, 104, 60, 490],
  "dcmmeta_slice_dim": 2,
  "dcmmeta_version": 0.6,
  "global": {
    "const": {
      "AcquisitionMatrix": [104, 0, 0, 104],
      "AngioFlag": "N",
      "BitsAllocated": 16,
      "BitsStored": 16,
      "BodyPartExamined": "BRAIN",
      "Columns": 832,
      "EchoNumbers": 1,
      "EchoTime": 37.0,
      "EchoTrainLength": 104,
      "FlipAngle": 52.0,
      "HighBit": 15,
      "ImageOrientationPatient": [0.99974013672438, -0.0227959436591, -6.30476423e-05, 0.02129075880576, 0.9347098792092, -0.3547733717434],
      "ImagePositionPatient": [-845.79618416128, -782.43556751915, 262.86826051752],
      "ImageType": [
        "ORIGINAL",
        "PRIMARY",
        "M",
        "MB",
        "ND",
        "MOSAIC"
],
      "ImagedNucleus": "1H",
      "ImagingFrequency": 123.258747,
      "InPlanePhaseEncodingDirection": "COL",
      "MRAcquisitionType": "2D",
      "MagneticFieldStrength": 3.0,
      "Manufacturer": "SIEMENS",
      "ManufacturerModelName": "Prisma_fit",
      "Modality": "MR",
      "NumberOfAverages": 1.0,
      "NumberOfPhaseEncodingSteps": 104,
      "PercentPhaseFieldOfView": 100.0,
      "PercentSampling": 100.0,
      "PerformedProcedureStepStartTime": "173804.990000",
      "PhotometricInterpretation": "MONOCHROME2",
      "PixelBandwidth": 2290.0,
      "PixelRepresentation": 0,
      "PixelSpacing": [2.0, 2.0],
      "ProtocolName": "func_task-friends-s05e20b",
      "RepetitionTime": 1490.0,
      "Rows": 832,
      "SAR": 0.08181273633901,
      "SamplesPerPixel": 1,
      "ScanOptions": "FS",
      "ScanningSequence": "EP",
      "SequenceName": "epfid2d1_104",
      "SequenceVariant": [
        "SK",
        "SS"
],
      "SeriesDescription": "func_task-friends-s05e20b",
      "SeriesNumber": 11,
      "SeriesTime": "175640.532000",
      "SliceLocation": -38.634958628241,
      "SliceThickness": 2.0,
      "SmallestImagePixelValue": 0,
      "SoftwareVersions": "syngo MR E11",
      "SpacingBetweenSlices": 1.9999999990992,
      "SpecificCharacterSet": "ISO_IR 100",
      "StudyID": "1",
      "StudyTime": "173804.879000",
      "TransmitCoilName": "Body",
      "VariableFlipAngleFlag": "N",
      "WindowCenterWidthExplanation": "Algo1",
      "dBdt": 0.0},
    "slices": {}
  },
  "time": {
    "samples": {
      "AcquisitionNumber": [1, 2, 3, 4, 5, 6, 7, 8, 9, 10, 11, 12, 13, 14, 15, 16, 17, 18, 19, 20, 21, 22, 23, 24, 25, 26, 27, 28, 29, 30, 31, 32, 33, 34, 35, 36, 37, 38, 39, 40, 41, 42, 43, 44, 45, 46, 47, 48, 49, 50, 51, 52, 53, 54, 55, 56, 57, 58, 59, 60, 61, 62, 63, 64, 65, 66, 67, 68, 69, 70, 71, 72, 73, 74, 75, 76, 77, 78, 79, 80, 81, 82, 83, 84, 85, 86, 87, 88, 89, 90, 91, 92, 93, 94, 95, 96, 97, 98, 99, 100, 101, 102, 103, 104, 105, 106, 107, 108, 109, 110, 111, 112, 113, 114, 115, 116, 117, 118, 119, 120, 121, 122, 123, 124, 125, 126, 127, 128, 129, 130, 131, 132, 133, 134, 135, 136, 137, 138, 139, 140, 141, 142, 143, 144, 145, 146, 147, 148, 149, 150, 151, 152, 153, 154, 155, 156, 157, 158, 159, 160, 161, 162, 163, 164, 165, 166, 167, 168, 169, 170, 171, 172, 173, 174, 175, 176, 177, 178, 179, 180, 181, 182, 183, 184, 185, 186, 187, 188, 189, 190, 191, 192, 193, 194, 195, 196, 197, 198, 199, 200, 201, 202, 203, 204, 205, 206, 207, 208, 209, 210, 211, 212, 213, 214, 215, 216, 217, 218, 219, 220, 221, 222, 223, 224, 225, 226, 227, 228, 229, 230, 231, 232, 233, 234, 235, 236, 237, 238, 239, 240, 241, 242, 243, 244, 245, 246, 247, 248, 249, 250, 251, 252, 253, 254, 255, 256, 257, 258, 259, 260, 261, 262, 263, 264, 265, 266, 267, 268, 269, 270, 271, 272, 273, 274, 275, 276, 277, 278, 279, 280, 281, 282, 283, 284, 285, 286, 287, 288, 289, 290, 291, 292, 293, 294, 295, 296, 297, 298, 299, 300, 301, 302, 303, 304, 305, 306, 307, 308, 309, 310, 311, 312, 313, 314, 315, 316, 317, 318, 319, 320, 321, 322, 323, 324, 325, 326, 327, 328, 329, 330, 331, 332, 333, 334, 335, 336, 337, 338, 339, 340, 341, 342, 343, 344, 345, 346, 347, 348, 349, 350, 351, 352, 353, 354, 355, 356, 357, 358, 359, 360, 361, 362, 363, 364, 365, 366, 367, 368, 369, 370, 371, 372, 373, 374, 375, 376, 377, 378, 379, 380, 381, 382, 383, 384, 385, 386, 387, 388, 389, 390, 391, 392, 393, 394, 395, 396, 397, 398, 399, 400, 401, 402, 403, 404, 405, 406, 407, 408, 409, 410, 411, 412, 413, 414, 415, 416, 417, 418, 419, 420, 421, 422, 423, 424, 425, 426, 427, 428, 429, 430, 431, 432, 433, 434, 435, 436, 437, 438, 439, 440, 441, 442, 443, 444, 445, 446, 447, 448, 449, 450, 451, 452, 453, 454, 455, 456, 457, 458, 459, 460, 461, 462, 463, 464, 465, 466, 467, 468, 469, 470, 471, 472, 473, 474, 475, 476, 477, 478, 479, 480, 481, 482, 483, 484, 485, 486, 487, 488, 489, 490],
      "AcquisitionTime": ["175521.117500", "175522.607500", "175524.097500", "175525.587500", "175527.077500", "175528.567500", "175530.057500", "175531.547500", "175533.037500", "175534.527500", "175536.017500", "175537.507500", "175538.997500", "175540.487500", "175541.977500", "175543.467500", "175544.957500", "175546.447500", "175547.937500", "175549.427500", "175550.917500", "175552.407500", "175553.897500", "175555.387500", "175556.877500", "175558.367500", "175559.857500", "175601.347500", "175602.837500", "175604.327500", "175605.817500", "175607.307500", "175608.797500", "175610.287500", "175611.777500", "175613.267500", "175614.757500", "175616.247500", "175617.737500", "175619.227500", "175620.717500", "175622.207500", "175623.697500", "175625.187500", "175626.677500", "175628.167500", "175629.657500", "175631.147500", "175632.637500", "175634.127500", "175635.617500", "175637.107500", "175638.597500", "175640.087500", "175641.577500", "175643.067500", "175644.557500", "175646.047500", "175647.537500", "175649.027500", "175650.517500", "175652.007500", "175653.497500", "175654.987500", "175656.477500", "175657.967500", "175659.457500", "175700.947500", "175702.437500", "175703.927500", "175705.417500", "175706.907500", "175708.397500", "175709.887500", "175711.377500", "175712.867500", "175714.357500", "175715.847500", "175717.337500", "175718.827500", "175720.317500", "175721.807500", "175723.297500", "175724.787500", "175726.277500", "175727.767500", "175729.257500", "175730.747500", "175732.237500", "175733.727500", "175735.217500", "175736.707500", "175738.197500", "175739.687500", "175741.177500", "175742.667500", "175744.157500", "175745.647500", "175747.137500", "175748.627500", "175750.117500", "175751.607500", "175753.097500", "175754.587500", "175756.077500", "175757.567500", "175759.057500", "175800.547500", "175802.037500", "175803.527500", "175805.017500", "175806.507500", "175807.997500", "175809.487500", "175810.977500", "175812.467500", "175813.957500", "175815.447500", "175816.937500", "175818.427500", "175819.917500", "175821.407500", "175822.897500", "175824.387500", "175825.877500", "175827.367500", "175828.857500", "175830.347500", "175831.837500", "175833.327500", "175834.817500", "175836.307500", "175837.797500", "175839.287500", "175840.777500", "175842.267500", "175843.757500", "175845.247500", "175846.737500", "175848.227500", "175849.717500", "175851.207500", "175852.697500", "175854.187500", "175855.677500", "175857.167500", "175858.657500", "175900.147500", "175901.637500", "175903.127500", "175904.617500", "175906.107500", "175907.597500", "175909.087500", "175910.577500", "175912.067500", "175913.557500", "175915.047500", "175916.537500", "175918.027500", "175919.517500", "175921.007500", "175922.497500", "175923.987500", "175925.477500", "175926.967500", "175928.457500", "175929.947500", "175931.437500", "175932.927500", "175934.417500", "175935.907500", "175937.397500", "175938.887500", "175940.377500", "175941.867500", "175943.357500", "175944.847500", "175946.337500", "175947.827500", "175949.317500", "175950.807500", "175952.297500", "175953.787500", "175955.277500", "175956.767500", "175958.257500", "175959.747500", "180001.237500", "180002.727500", "180004.217500", "180005.707500", "180007.197500", "180008.687500", "180010.177500", "180011.667500", "180013.157500", "180014.647500", "180016.137500", "180017.627500", "180019.117500", "180020.607500", "180022.097500", "180023.587500", "180025.077500", "180026.567500", "180028.057500", "180029.547500", "180031.037500", "180032.527500", "180034.017500", "180035.507500", "180036.997500", "180038.487500", "180039.977500", "180041.467500", "180042.957500", "180044.447500", "180045.937500", "180047.427500", "180048.917500", "180050.407500", "180051.897500", "180053.387500", "180054.877500", "180056.367500", "180057.857500", "180059.347500", "180100.837500", "180102.327500", "180103.817500", "180105.307500", "180106.797500", "180108.287500", "180109.777500", "180111.267500", "180112.757500", "180114.247500", "180115.737500", "180117.227500", "180118.717500", "180120.207500", "180121.697500", "180123.187500", "180124.677500", "180126.167500", "180127.657500", "180129.147500", "180130.637500", "180132.127500", "180133.617500", "180135.107500", "180136.597500", "180138.087500", "180139.577500", "180141.067500", "180142.557500", "180144.047500", "180145.537500", "180147.027500", "180148.517500", "180150.007500", "180151.497500", "180152.987500", "180154.477500", "180155.967500", "180157.457500", "180158.947500", "180200.437500", "180201.927500", "180203.417500", "180204.907500", "180206.397500", "180207.887500", "180209.377500", "180210.867500", "180212.357500", "180213.847500", "180215.337500", "180216.827500", "180218.317500", "180219.807500", "180221.297500", "180222.787500", "180224.277500", "180225.767500", "180227.257500", "180228.747500", "180230.237500", "180231.727500", "180233.217500", "180234.707500", "180236.197500", "180237.687500", "180239.177500", "180240.667500", "180242.157500", "180243.647500", "180245.137500", "180246.627500", "180248.117500", "180249.607500", "180251.097500", "180252.587500", "180254.077500", "180255.567500", "180257.057500", "180258.547500", "180300.037500", "180301.527500", "180303.017500", "180304.507500", "180305.997500", "180307.487500", "180308.977500", "180310.467500", "180311.957500", "180313.447500", "180314.937500", "180316.427500", "180317.917500", "180319.407500", "180320.897500", "180322.387500", "180323.877500", "180325.367500", "180326.857500", "180328.347500", "180329.837500", "180331.327500", "180332.817500", "180334.307500", "180335.797500", "180337.287500", "180338.777500", "180340.267500", "180341.757500", "180343.247500", "180344.737500", "180346.227500", "180347.717500", "180349.207500", "180350.697500", "180352.187500", "180353.677500", "180355.167500", "180356.657500", "180358.147500", "180359.637500", "180401.127500", "180402.617500", "180404.107500", "180405.597500", "180407.087500", "180408.577500", "180410.067500", "180411.557500", "180413.047500", "180414.537500", "180416.027500", "180417.517500", "180419.007500", "180420.497500", "180421.987500", "180423.477500", "180424.967500", "180426.457500", "180427.947500", "180429.437500", "180430.927500", "180432.417500", "180433.907500", "180435.397500", "180436.887500", "180438.377500", "180439.867500", "180441.357500", "180442.847500", "180444.337500", "180445.827500", "180447.317500", "180448.807500", "180450.297500", "180451.787500", "180453.277500", "180454.767500", "180456.257500", "180457.747500", "180459.237500", "180500.727500", "180502.217500", "180503.707500", "180505.197500", "180506.687500", "180508.177500", "180509.667500", "180511.157500", "180512.647500", "180514.137500", "180515.627500", "180517.117500", "180518.607500", "180520.097500", "180521.587500", "180523.077500", "180524.567500", "180526.057500", "180527.547500", "180529.037500", "180530.527500", "180532.017500", "180533.507500", "180534.997500", "180536.487500", "180537.977500", "180539.467500", "180540.957500", "180542.447500", "180543.937500", "180545.427500", "180546.917500", "180548.407500", "180549.897500", "180551.387500", "180552.877500", "180554.367500", "180555.857500", "180557.347500", "180558.837500", "180600.327500", "180601.817500", "180603.307500", "180604.797500", "180606.287500", "180607.777500", "180609.267500", "180610.757500", "180612.247500", "180613.737500", "180615.227500", "180616.717500", "180618.207500", "180619.697500", "180621.187500", "180622.677500", "180624.167500", "180625.657500", "180627.147500", "180628.637500", "180630.127500", "180631.617500", "180633.107500", "180634.597500", "180636.087500", "180637.577500", "180639.067500", "180640.557500", "180642.047500", "180643.537500", "180645.027500", "180646.517500", "180648.007500", "180649.497500", "180650.987500", "180652.477500", "180653.967500", "180655.457500", "180656.947500", "180658.437500", "180659.927500", "180701.417500", "180702.907500", "180704.397500", "180705.887500", "180707.377500", "180708.867500", "180710.357500", "180711.847500", "180713.337500", "180714.827500", "180716.317500", "180717.807500", "180719.297500", "180720.787500", "180722.277500", "180723.767500", "180725.257500", "180726.747500", "180728.237500", "180729.727500"],
      "ContentTime": ["175640.535000", "175640.538000", "175640.541000", "175640.544000", "175640.547000", "175640.550000", "175640.552000", "175640.563000", "175640.566000", "175640.568000", "175640.579000", "175640.582000", "175640.585000", "175640.588000", "175640.590000", "175640.593000", "175640.596000", "175640.599000", "175640.602000", "175640.604000", "175640.607000", "175640.610000", "175640.613000", "175640.616000", "175640.619000", "175640.622000", "175640.625000", "175640.627000", "175640.630000", "175640.633000", "175700.492000", "175700.495000", "175700.498000", "175700.500000", "175700.503000", "175700.506000", "175700.509000", "175700.512000", "175700.515000", "175700.518000", "175700.521000", "175700.523000", "175700.526000", "175700.538000", "175700.541000", "175700.544000", "175700.546000", "175700.549000", "175700.552000", "175700.555000", "175720.492000", "175720.495000", "175720.497000", "175720.500000", "175720.503000", "175720.506000", "175720.509000", "175720.512000", "175720.514000", "175720.517000", "175720.520000", "175720.523000", "175720.526000", "175720.529000", "175720.531000", "175720.534000", "175720.537000", "175720.540000", "175720.543000", "175720.546000", "175720.549000", "175740.492000", "175740.495000", "175740.498000", "175740.500000", "175740.503000", "175740.516000", "175740.519000", "175740.522000", "175740.525000", "175740.528000", "175740.530000", "175740.533000", "175740.536000", "175740.539000", "175740.542000", "175740.545000", "175740.548000", "175740.551000", "175740.554000", "175740.556000", "175820.492000", "175820.510000", "175820.513000", "175820.516000", "175820.519000", "175820.522000", "175820.525000", "175820.528000", "175820.531000", "175820.533000", "175820.536000", "175820.539000", "175820.542000", "175820.545000", "175820.547000", "175820.550000", "175820.553000", "175820.556000", "175820.559000", "175820.562000", "175820.565000", "175820.568000", "175820.570000", "175820.573000", "175820.576000", "175820.579000", "175820.582000", "175820.585000", "175820.588000", "175900.492000", "175900.495000", "175900.497000", "175900.500000", "175900.503000", "175900.507000", "175900.510000", "175900.513000", "175900.515000", "175900.518000", "175900.521000", "175900.524000", "175900.527000", "175900.530000", "175900.533000", "175900.536000", "175900.538000", "175900.541000", "175900.544000", "175900.547000", "175900.550000", "175900.553000", "175900.556000", "175900.559000", "175900.562000", "175900.565000", "175920.492000", "175920.495000", "175920.498000", "175920.501000", "175920.504000", "175920.507000", "175920.509000", "175920.512000", "175920.515000", "175920.518000", "175920.521000", "175920.524000", "175920.526000", "175920.529000", "180000.492000", "180000.495000", "180000.498000", "180000.501000", "180000.504000", "180000.507000", "180000.509000", "180000.512000", "180000.515000", "180000.518000", "180000.521000", "180000.524000", "180000.527000", "180000.530000", "180000.532000", "180000.535000", "180000.538000", "180000.541000", "180000.544000", "180000.547000", "180000.550000", "180000.552000", "180000.555000", "180000.558000", "180000.561000", "180000.564000", "180000.567000", "180040.492000", "180040.495000", "180040.497000", "180040.500000", "180040.503000", "180040.506000", "180040.509000", "180040.512000", "180040.515000", "180040.518000", "180040.520000", "180040.523000", "180040.526000", "180040.529000", "180040.532000", "180040.535000", "180040.538000", "180040.541000", "180040.543000", "180040.546000", "180040.558000", "180040.560000", "180040.563000", "180040.566000", "180040.569000", "180040.572000", "180040.575000", "180120.492000", "180120.495000", "180120.498000", "180120.501000", "180120.503000", "180120.506000", "180120.509000", "180120.512000", "180120.515000", "180120.518000", "180120.521000", "180120.523000", "180120.526000", "180120.529000", "180120.532000", "180120.535000", "180120.538000", "180120.541000", "180120.544000", "180120.547000", "180120.549000", "180120.552000", "180120.555000", "180120.558000", "180120.562000", "180120.565000", "180200.492000", "180200.495000", "180200.498000", "180200.501000", "180200.504000", "180200.507000", "180200.509000", "180200.512000", "180200.515000", "180200.526000", "180200.529000", "180200.532000", "180200.535000", "180200.538000", "180200.540000", "180200.543000", "180200.546000", "180200.549000", "180200.552000", "180200.555000", "180200.557000", "180200.561000", "180200.563000", "180200.566000", "180200.569000", "180200.572000", "180200.575000", "180240.492000", "180240.495000", "180240.498000", "180240.501000", "180240.504000", "180240.506000", "180240.509000", "180240.512000", "180240.515000", "180240.518000", "180240.521000", "180240.523000", "180240.526000", "180240.529000", "180240.532000", "180240.535000", "180240.538000", "180240.541000", "180240.543000", "180240.546000", "180240.549000", "180240.552000", "180240.555000", "180240.558000", "180240.561000", "180240.564000", "180240.566000", "180320.492000", "180320.495000", "180320.498000", "180320.501000", "180320.503000", "180320.506000", "180320.509000", "180320.512000", "180320.515000", "180320.518000", "180320.521000", "180320.523000", "180320.526000", "180320.529000", "180320.532000", "180320.535000", "180320.538000", "180320.541000", "180320.543000", "180320.546000", "180320.549000", "180320.552000", "180320.555000", "180320.558000", "180320.561000", "180320.564000", "180320.566000", "180400.492000", "180400.495000", "180400.498000", "180400.501000", "180400.504000", "180400.506000", "180400.509000", "180400.512000", "180400.515000", "180400.518000", "180400.521000", "180400.524000", "180400.526000", "180400.529000", "180400.532000", "180400.535000", "180400.538000", "180400.541000", "180400.544000", "180400.547000", "180400.549000", "180400.552000", "180400.555000", "180400.558000", "180400.561000", "180400.564000", "180400.567000", "180440.492000", "180440.495000", "180440.498000", "180440.501000", "180440.504000", "180440.507000", "180440.509000", "180440.512000", "180440.515000", "180440.518000", "180440.521000", "180440.524000", "180440.527000", "180440.530000", "180440.533000", "180440.535000", "180440.538000", "180440.541000", "180440.544000", "180440.547000", "180440.550000", "180440.553000", "180440.555000", "180440.558000", "180440.561000", "180440.564000", "180440.567000", "180520.492000", "180520.495000", "180520.505000", "180520.508000", "180520.511000", "180520.514000", "180520.517000", "180520.520000", "180520.523000", "180520.526000", "180520.529000", "180520.531000", "180520.534000", "180520.537000", "180520.540000", "180520.543000", "180520.546000", "180520.548000", "180520.551000", "180520.554000", "180520.557000", "180520.560000", "180520.563000", "180520.566000", "180520.569000", "180520.572000", "180600.492000", "180600.495000", "180600.498000", "180600.501000", "180600.504000", "180600.507000", "180600.510000", "180600.513000", "180600.515000", "180600.518000", "180600.521000", "180600.524000", "180600.527000", "180600.529000", "180600.532000", "180600.535000", "180600.565000", "180600.568000", "180600.571000", "180600.574000", "180600.576000", "180600.579000", "180600.582000", "180600.585000", "180600.588000", "180600.591000", "180600.593000", "180640.492000", "180640.495000", "180640.498000", "180640.501000", "180640.504000", "180640.507000", "180640.509000", "180640.512000", "180640.515000", "180640.518000", "180640.521000", "180640.524000", "180640.526000", "180640.529000", "180640.532000", "180640.535000", "180640.538000", "180640.541000", "180640.544000", "180640.547000", "180640.550000", "180640.552000", "180640.555000", "180640.558000", "180640.561000", "180640.564000", "180640.567000", "180720.492000", "180720.495000", "180720.498000", "180720.501000", "180720.503000", "180720.506000", "180720.509000", "180720.512000", "180720.515000", "180720.518000", "180720.521000", "180720.524000", "180720.526000", "180720.529000", "180720.542000", "180720.545000", "180720.548000", "180720.551000", "180720.554000", "180720.557000", "180720.560000", "180720.563000", "180720.566000", "180720.568000", "180720.571000", "180720.574000", "180720.577000", "180731.754000", "180731.757000", "180731.760000", "180731.763000", "180731.766000", "180731.769000", "180731.772000", "180731.775000"],
