{
  "AcquisitionMatrixPE": 104,
  "AcquisitionNumber": 1,
  "AcquisitionTime": "18:48:22.192500",
  "BandwidthPerPixelPhaseEncode": 17.17,
  "BaseResolution": 104,
  "BodyPartExamined": "BRAIN",
  "CoilCombinationMethod": "Sum of Squares",
  "ConsistencyInfo": "N4_VE11C_LATEST_20160120",
  "ConversionSoftware": "dcm2niix",
  "ConversionSoftwareVersion": "v1.0.20211006",
  "DerivedVendorReportedEchoSpacing": 0.000560011,
  "DeviceSerialNumber": "167006",
  "DwellTime": 2.1e-06,
  "EchoTime": 0.037,
  "EchoTrainLength": 104,
  "EffectiveEchoSpacing": 0.000560011,
  "FlipAngle": 52,
  "HeudiconvVersion": "0.11.3.post9+gc939bf8",
  "ImageComments": "Unaliased MB4/PE3/LB",
  "ImageOrientationPatientDICOM": [0.999815, -0.0116844, -0.0152717, 0.00506051, 0.926097, -0.377252],
  "ImageOrientationText": "Tra>Cor(-22.2)>Sag(-1.1)",
  "ImageType": [
    "ORIGINAL",
    "PRIMARY",
    "M",
    "MB",
    "ND",
    "MOSAIC"
],
  "ImagingFrequency": 123.259,
  "InPlanePhaseEncodingDirectionDICOM": "COL",
  "InstitutionAddress": "Chemin Queen-Mary 4565,Montreal,District,CA,H3W 1W5",
  "InstitutionName": "IUGM",
  "InstitutionalDepartmentName": "Department",
  "MRAcquisitionType": "2D",
  "MagneticFieldStrength": 3,
  "Manufacturer": "Siemens",
  "ManufacturersModelName": "Prisma_fit",
  "MatrixCoilMode": "SENSE",
  "Modality": "MR",
  "MultibandAccelerationFactor": 4,
  "PartialFourier": 1,
  "PatientPosition": "HFS",
  "PercentPhaseFOV": 100,
  "PercentSampling": 100,
  "PhaseEncodingDirection": "j",
  "PhaseEncodingSteps": 104,
  "PhaseResolution": 1,
  "PixelBandwidth": 2290,
  "ProcedureStepDescription": "video^friends",
  "ProtocolName": "func_task-friends-s06e12a",
  "PulseSequenceDetails": "%CustomerSeq%\\cmrr_mbep2d_bold",
  "ReceiveCoilActiveElements": "HC1-7;NC1,2",
  "ReceiveCoilName": "HeadNeck_64",
  "ReconMatrixPE": 104,
  "RepetitionTime": 1.49,
  "SAR": 0.087453,
  "ScanOptions": "FS",
  "ScanningSequence": "EP",
  "SequenceName": "epfid2d1_104",
  "SequenceVariant": "SK\\SS",
  "SeriesDescription": "func_task-friends-s06e12a",
  "SeriesNumber": 10,
  "ShimSetting": [606, -7296, -8807, 401, 4, -400, 3, 57],
  "SliceThickness": 2,
  "SliceTiming": [0, 0.7825, 0.0975, 0.8825, 0.195, 0.98, 0.2925, 1.0775, 0.3925, 1.175, 0.49, 1.2725, 0.5875, 1.37, 0.685, 0, 0.7825, 0.0975, 0.8825, 0.195, 0.98, 0.2925, 1.0775, 0.3925, 1.175, 0.49, 1.2725, 0.5875, 1.37, 0.685, 0, 0.7825, 0.0975, 0.8825, 0.195, 0.98, 0.2925, 1.0775, 0.3925, 1.175, 0.49, 1.2725, 0.5875, 1.37, 0.685, 0, 0.7825, 0.0975, 0.8825, 0.195, 0.98, 0.2925, 1.0775, 0.3925, 1.175, 0.49, 1.2725, 0.5875, 1.37, 0.685],
  "SoftwareVersions": "syngo MR E11",
  "SpacingBetweenSlices": 2,
  "StationName": "MRC35049",
  "TaskName": "s06e12a",
  "TotalReadoutTime": 0.0576811,
  "TxRefAmp": 311.903,
  "WipMemBlock": "21e79106-0f6e-4dfd-9947-45a74006908d||Sequence: R017 ve11c/master r/75a17815+; Jun 28 2022 16:32:11 by eja",
  "dcmmeta_affine": [
    [-1.9996302127838135, 0.010121023282408714, -0.03710198402404785, 99.70895385742188],
    [0.023368703201413155, 1.852193832397461, -0.7542093992233276, -71.13703155517578],
    [-0.03054334968328476, 0.7545034885406494, 1.851969599723816, -53.749778747558594],
    [0.0, 0.0, 0.0, 1.0]
],
  "dcmmeta_reorient_transform": [
    [0.0, -1.0, 0.0, 103.0],
    [1.0, 0.0, 0.0, 0.0],
    [0.0, 0.0, 1.0, 0.0],
    [0.0, 0.0, 0.0, 1.0]
],
  "dcmmeta_shape": [104, 104, 60, 435],
  "dcmmeta_slice_dim": 2,
  "dcmmeta_version": 0.6,
  "global": {
    "const": {
      "AcquisitionMatrix": [104, 0, 0, 104],
      "AngioFlag": "N",
      "BitsAllocated": 16,
      "BitsStored": 16,
      "BodyPartExamined": "BRAIN",
      "Columns": 832,
      "EchoNumbers": 1,
      "EchoTime": 37.0,
      "EchoTrainLength": 104,
      "FlipAngle": 52.0,
      "HighBit": 15,
      "ImageOrientationPatient": [0.99981510884784, -0.0116843513705, -0.0152716748469, 0.00506051165586, 0.92609692650706, -0.3772517381484],
      "ImagePositionPatient": [-832.30086979187, -785.33129203936, 309.7211250436],
      "ImageType": [
        "ORIGINAL",
        "PRIMARY",
        "M",
        "MB",
        "ND",
        "MOSAIC"
],
      "ImagedNucleus": "1H",
      "ImagingFrequency": 123.258749,
      "InPlanePhaseEncodingDirection": "COL",
      "MRAcquisitionType": "2D",
      "MagneticFieldStrength": 3.0,
      "Manufacturer": "SIEMENS",
      "ManufacturerModelName": "Prisma_fit",
      "Modality": "MR",
      "NumberOfAverages": 1.0,
      "NumberOfPhaseEncodingSteps": 104,
      "PercentPhaseFieldOfView": 100.0,
      "PercentSampling": 100.0,
      "PerformedProcedureStepStartTime": "183940.423000",
      "PhotometricInterpretation": "MONOCHROME2",
      "PixelBandwidth": 2290.0,
      "PixelRepresentation": 0,
      "PixelSpacing": [2.0, 2.0],
      "ProtocolName": "func_task-friends-s06e12a",
      "RepetitionTime": 1490.0,
      "Rows": 832,
      "SAR": 0.08745298551321,
      "SamplesPerPixel": 1,
      "ScanOptions": "FS",
      "ScanningSequence": "EP",
      "SequenceName": "epfid2d1_104",
      "SequenceVariant": [
        "SK",
        "SS"
],
      "SeriesDescription": "func_task-friends-s06e12a",
      "SeriesNumber": 10,
      "SeriesTime": "184920.104000",
      "SliceLocation": -24.795070185802,
      "SliceThickness": 2.0,
      "SmallestImagePixelValue": 0,
      "SoftwareVersions": "syngo MR E11",
      "SpacingBetweenSlices": 1.9999999576432,
      "SpecificCharacterSet": "ISO_IR 100",
      "StudyID": "1",
      "StudyTime": "183940.109000",
      "TransmitCoilName": "Body",
      "VariableFlipAngleFlag": "N",
      "WindowCenterWidthExplanation": "Algo1",
      "dBdt": 0.0},
    "slices": {}
  },
  "time": {
    "samples": {
      "AcquisitionNumber": [1, 2, 3, 4, 5, 6, 7, 8, 9, 10, 11, 12, 13, 14, 15, 16, 17, 18, 19, 20, 21, 22, 23, 24, 25, 26, 27, 28, 29, 30, 31, 32, 33, 34, 35, 36, 37, 38, 39, 40, 41, 42, 43, 44, 45, 46, 47, 48, 49, 50, 51, 52, 53, 54, 55, 56, 57, 58, 59, 60, 61, 62, 63, 64, 65, 66, 67, 68, 69, 70, 71, 72, 73, 74, 75, 76, 77, 78, 79, 80, 81, 82, 83, 84, 85, 86, 87, 88, 89, 90, 91, 92, 93, 94, 95, 96, 97, 98, 99, 100, 101, 102, 103, 104, 105, 106, 107, 108, 109, 110, 111, 112, 113, 114, 115, 116, 117, 118, 119, 120, 121, 122, 123, 124, 125, 126, 127, 128, 129, 130, 131, 132, 133, 134, 135, 136, 137, 138, 139, 140, 141, 142, 143, 144, 145, 146, 147, 148, 149, 150, 151, 152, 153, 154, 155, 156, 157, 158, 159, 160, 161, 162, 163, 164, 165, 166, 167, 168, 169, 170, 171, 172, 173, 174, 175, 176, 177, 178, 179, 180, 181, 182, 183, 184, 185, 186, 187, 188, 189, 190, 191, 192, 193, 194, 195, 196, 197, 198, 199, 200, 201, 202, 203, 204, 205, 206, 207, 208, 209, 210, 211, 212, 213, 214, 215, 216, 217, 218, 219, 220, 221, 222, 223, 224, 225, 226, 227, 228, 229, 230, 231, 232, 233, 234, 235, 236, 237, 238, 239, 240, 241, 242, 243, 244, 245, 246, 247, 248, 249, 250, 251, 252, 253, 254, 255, 256, 257, 258, 259, 260, 261, 262, 263, 264, 265, 266, 267, 268, 269, 270, 271, 272, 273, 274, 275, 276, 277, 278, 279, 280, 281, 282, 283, 284, 285, 286, 287, 288, 289, 290, 291, 292, 293, 294, 295, 296, 297, 298, 299, 300, 301, 302, 303, 304, 305, 306, 307, 308, 309, 310, 311, 312, 313, 314, 315, 316, 317, 318, 319, 320, 321, 322, 323, 324, 325, 326, 327, 328, 329, 330, 331, 332, 333, 334, 335, 336, 337, 338, 339, 340, 341, 342, 343, 344, 345, 346, 347, 348, 349, 350, 351, 352, 353, 354, 355, 356, 357, 358, 359, 360, 361, 362, 363, 364, 365, 366, 367, 368, 369, 370, 371, 372, 373, 374, 375, 376, 377, 378, 379, 380, 381, 382, 383, 384, 385, 386, 387, 388, 389, 390, 391, 392, 393, 394, 395, 396, 397, 398, 399, 400, 401, 402, 403, 404, 405, 406, 407, 408, 409, 410, 411, 412, 413, 414, 415, 416, 417, 418, 419, 420, 421, 422, 423, 424, 425, 426, 427, 428, 429, 430, 431, 432, 433, 434, 435],
      "AcquisitionTime": ["184822.192500", "184823.682500", "184825.172500", "184826.662500", "184828.152500", "184829.642500", "184831.132500", "184832.622500", "184834.112500", "184835.602500", "184837.092500", "184838.582500", "184840.072500", "184841.562500", "184843.052500", "184844.542500", "184846.032500", "184847.522500", "184849.012500", "184850.502500", "184851.992500", "184853.482500", "184854.972500", "184856.462500", "184857.952500", "184859.442500", "184900.932500", "184902.422500", "184903.912500", "184905.402500", "184906.892500", "184908.382500", "184909.872500", "184911.362500", "184912.852500", "184914.342500", "184915.832500", "184917.322500", "184918.812500", "184920.302500", "184921.792500", "184923.282500", "184924.772500", "184926.262500", "184927.752500", "184929.242500", "184930.732500", "184932.222500", "184933.712500", "184935.202500", "184936.692500", "184938.182500", "184939.672500", "184941.162500", "184942.652500", "184944.142500", "184945.632500", "184947.122500", "184948.612500", "184950.102500", "184951.592500", "184953.082500", "184954.572500", "184956.062500", "184957.552500", "184959.042500", "185000.532500", "185002.022500", "185003.512500", "185005.002500", "185006.492500", "185007.982500", "185009.472500", "185010.962500", "185012.452500", "185013.942500", "185015.432500", "185016.922500", "185018.412500", "185019.902500", "185021.392500", "185022.882500", "185024.372500", "185025.862500", "185027.352500", "185028.842500", "185030.332500", "185031.822500", "185033.312500", "185034.802500", "185036.292500", "185037.782500", "185039.272500", "185040.762500", "185042.252500", "185043.742500", "185045.232500", "185046.722500", "185048.212500", "185049.702500", "185051.192500", "185052.682500", "185054.172500", "185055.662500", "185057.152500", "185058.642500", "185100.132500", "185101.622500", "185103.112500", "185104.602500", "185106.092500", "185107.582500", "185109.072500", "185110.562500", "185112.052500", "185113.542500", "185115.032500", "185116.522500", "185118.012500", "185119.502500", "185120.992500", "185122.482500", "185123.972500", "185125.462500", "185126.952500", "185128.442500", "185129.932500", "185131.422500", "185132.912500", "185134.402500", "185135.892500", "185137.382500", "185138.872500", "185140.362500", "185141.852500", "185143.342500", "185144.832500", "185146.322500", "185147.812500", "185149.302500", "185150.792500", "185152.282500", "185153.772500", "185155.262500", "185156.752500", "185158.242500", "185159.732500", "185201.222500", "185202.712500", "185204.202500", "185205.692500", "185207.182500", "185208.672500", "185210.162500", "185211.652500", "185213.142500", "185214.632500", "185216.122500", "185217.612500", "185219.102500", "185220.592500", "185222.082500", "185223.572500", "185225.062500", "185226.552500", "185228.042500", "185229.532500", "185231.022500", "185232.512500", "185234.002500", "185235.492500", "185236.982500", "185238.472500", "185239.962500", "185241.452500", "185242.942500", "185244.432500", "185245.922500", "185247.412500", "185248.902500", "185250.392500", "185251.882500", "185253.372500", "185254.862500", "185256.352500", "185257.842500", "185259.332500", "185300.822500", "185302.312500", "185303.802500", "185305.292500", "185306.782500", "185308.272500", "185309.762500", "185311.252500", "185312.742500", "185314.232500", "185315.722500", "185317.212500", "185318.702500", "185320.192500", "185321.682500", "185323.172500", "185324.662500", "185326.152500", "185327.642500", "185329.132500", "185330.622500", "185332.112500", "185333.602500", "185335.092500", "185336.582500", "185338.072500", "185339.562500", "185341.052500", "185342.542500", "185344.032500", "185345.522500", "185347.012500", "185348.502500", "185349.992500", "185351.482500", "185352.972500", "185354.462500", "185355.952500", "185357.442500", "185358.932500", "185400.422500", "185401.912500", "185403.402500", "185404.892500", "185406.382500", "185407.872500", "185409.362500", "185410.852500", "185412.342500", "185413.832500", "185415.322500", "185416.812500", "185418.302500", "185419.792500", "185421.282500", "185422.772500", "185424.262500", "185425.752500", "185427.242500", "185428.732500", "185430.222500", "185431.712500", "185433.202500", "185434.692500", "185436.182500", "185437.672500", "185439.162500", "185440.652500", "185442.142500", "185443.632500", "185445.122500", "185446.612500", "185448.102500", "185449.592500", "185451.082500", "185452.572500", "185454.062500", "185455.552500", "185457.042500", "185458.532500", "185500.022500", "185501.512500", "185503.002500", "185504.492500", "185505.982500", "185507.472500", "185508.962500", "185510.452500", "185511.942500", "185513.432500", "185514.922500", "185516.412500", "185517.902500", "185519.392500", "185520.882500", "185522.372500", "185523.862500", "185525.352500", "185526.842500", "185528.332500", "185529.822500", "185531.312500", "185532.802500", "185534.292500", "185535.782500", "185537.272500", "185538.762500", "185540.252500", "185541.742500", "185543.232500", "185544.722500", "185546.212500", "185547.702500", "185549.192500", "185550.682500", "185552.172500", "185553.662500", "185555.152500", "185556.642500", "185558.132500", "185559.622500", "185601.112500", "185602.602500", "185604.092500", "185605.582500", "185607.072500", "185608.562500", "185610.052500", "185611.542500", "185613.032500", "185614.522500", "185616.012500", "185617.502500", "185618.992500", "185620.482500", "185621.972500", "185623.462500", "185624.952500", "185626.442500", "185627.932500", "185629.422500", "185630.912500", "185632.402500", "185633.892500", "185635.382500", "185636.872500", "185638.362500", "185639.852500", "185641.342500", "185642.832500", "185644.322500", "185645.812500", "185647.302500", "185648.792500", "185650.282500", "185651.772500", "185653.262500", "185654.752500", "185656.242500", "185657.732500", "185659.222500", "185700.712500", "185702.202500", "185703.692500", "185705.182500", "185706.672500", "185708.162500", "185709.652500", "185711.142500", "185712.632500", "185714.122500", "185715.612500", "185717.102500", "185718.592500", "185720.082500", "185721.572500", "185723.062500", "185724.552500", "185726.042500", "185727.532500", "185729.022500", "185730.512500", "185732.002500", "185733.492500", "185734.982500", "185736.472500", "185737.962500", "185739.452500", "185740.942500", "185742.432500", "185743.922500", "185745.412500", "185746.902500", "185748.392500", "185749.882500", "185751.372500", "185752.862500", "185754.352500", "185755.842500", "185757.332500", "185758.822500", "185800.312500", "185801.802500", "185803.292500", "185804.782500", "185806.272500", "185807.762500", "185809.252500", "185810.742500", "185812.232500", "185813.722500", "185815.212500", "185816.702500", "185818.192500", "185819.682500", "185821.172500", "185822.662500", "185824.152500", "185825.642500", "185827.132500", "185828.622500", "185830.112500", "185831.602500", "185833.092500", "185834.582500", "185836.072500", "185837.562500", "185839.052500", "185840.542500", "185842.032500", "185843.522500", "185845.012500", "185846.502500", "185847.992500", "185849.482500", "185850.972500", "185852.462500", "185853.952500", "185855.442500", "185856.932500", "185858.422500", "185859.912500", "185901.402500", "185902.892500", "185904.382500", "185905.872500", "185907.362500", "185908.852500"],
      "ContentTime": ["184920.107000", "184920.110000", "184920.113000", "184920.116000", "184920.119000", "184920.122000", "184940.077000", "184940.080000", "184940.083000", "184940.086000", "184940.089000", "184940.092000", "184940.095000", "184940.098000", "184940.112000", "184940.115000", "184940.118000", "184940.121000", "184940.130000", "184940.132000", "184940.135000", "184940.138000", "184940.142000", "184940.145000", "184940.147000", "184940.150000", "184940.153000", "185000.078000", "185000.081000", "185000.084000", "185000.088000", "185000.091000", "185000.094000", "185000.097000", "185000.100000", "185000.103000", "185000.106000", "185000.109000", "185000.112000", "185000.115000", "185000.118000", "185000.121000", "185000.123000", "185000.126000", "185000.129000", "185000.132000", "185000.135000", "185020.078000", "185020.081000", "185020.084000", "185020.087000", "185020.090000", "185020.093000", "185020.096000", "185020.098000", "185020.101000", "185020.104000", "185020.107000", "185020.110000", "185020.113000", "185020.116000", "185020.119000", "185020.130000", "185020.133000", "185020.136000", "185020.139000", "185020.143000", "185040.077000", "185040.080000", "185040.083000", "185040.086000", "185040.089000", "185040.092000", "185040.095000", "185040.098000", "185040.101000", "185040.104000", "185040.107000", "185040.110000", "185040.113000", "185040.116000", "185040.119000", "185040.121000", "185040.124000", "185040.127000", "185040.130000", "185040.133000", "185120.077000", "185120.080000", "185120.083000", "185120.086000", "185120.089000", "185120.102000", "185120.105000", "185120.107000", "185120.110000", "185120.113000", "185120.116000", "185120.126000", "185120.129000", "185120.132000", "185120.134000", "185120.137000", "185120.140000", "185120.144000", "185120.147000", "185120.150000", "185120.153000", "185120.156000", "185120.159000", "185120.162000", "185120.165000", "185120.168000", "185120.170000", "185120.173000", "185120.176000", "185120.179000", "185120.182000", "185200.077000", "185200.080000", "185200.083000", "185200.086000", "185200.089000", "185200.092000", "185200.095000", "185200.098000", "185200.100000", "185200.103000", "185200.106000", "185200.109000", "185200.112000", "185200.115000", "185200.118000", "185200.121000", "185200.124000", "185200.127000", "185200.130000", "185200.132000", "185200.135000", "185200.138000", "185200.141000", "185200.144000", "185200.147000", "185200.150000", "185200.153000", "185240.078000", "185240.081000", "185240.084000", "185240.087000", "185240.090000", "185240.093000", "185240.096000", "185240.099000", "185240.101000", "185240.104000", "185240.107000", "185240.110000", "185240.113000", "185240.116000", "185240.119000", "185240.122000", "185240.125000", "185240.128000", "185240.131000", "185240.134000", "185240.137000", "185240.140000", "185240.143000", "185240.146000", "185240.149000", "185240.152000", "185240.155000", "185320.077000", "185320.080000", "185320.083000", "185320.086000", "185320.089000", "185320.092000", "185320.095000", "185320.098000", "185320.100000", "185320.103000", "185320.106000", "185320.109000", "185320.112000", "185320.115000", "185320.118000", "185320.121000", "185320.124000", "185320.127000", "185320.129000", "185320.132000", "185320.135000", "185320.138000", "185320.141000", "185320.144000", "185320.147000", "185320.150000", "185320.153000", "185400.077000", "185400.080000", "185400.083000", "185400.086000", "185400.089000", "185400.092000", "185400.095000", "185400.098000", "185400.100000", "185400.103000", "185400.106000", "185400.109000", "185400.112000", "185400.115000", "185400.118000", "185400.121000", "185400.124000", "185400.127000", "185400.130000", "185400.133000", "185400.135000", "185400.138000", "185400.141000", "185400.144000", "185400.147000", "185400.150000", "185400.153000", "185440.078000", "185440.081000", "185440.084000", "185440.087000", "185440.090000", "185440.093000", "185440.096000", "185440.099000", "185440.101000", "185440.104000", "185440.107000", "185440.110000", "185440.113000", "185440.116000", "185440.119000", "185440.122000", "185440.125000", "185440.128000", "185440.131000", "185440.134000", "185440.137000", "185440.140000", "185440.143000", "185440.145000", "185440.148000", "185440.151000", "185440.154000", "185520.077000", "185520.080000", "185520.083000", "185520.086000", "185520.089000", "185520.092000", "185520.095000", "185520.098000", "185520.101000", "185520.104000", "185520.107000", "185520.109000", "185520.112000", "185520.115000", "185520.118000", "185520.121000", "185520.124000", "185520.127000", "185520.130000", "185520.133000", "185520.136000", "185520.139000", "185520.142000", "185520.145000", "185520.148000", "185520.151000", "185600.077000", "185600.080000", "185600.083000", "185600.086000", "185600.089000", "185600.092000", "185600.095000", "185600.097000", "185600.100000", "185600.103000", "185600.106000", "185600.109000", "185600.112000", "185600.115000", "185600.118000", "185600.121000", "185600.124000", "185600.127000", "185600.130000", "185600.133000", "185600.136000", "185600.138000", "185600.141000", "185600.144000", "185600.147000", "185600.150000", "185600.153000", "185640.077000", "185640.080000", "185640.083000", "185640.086000", "185640.089000", "185640.092000", "185640.095000", "185640.098000", "185640.101000", "185640.104000", "185640.107000", "185640.110000", "185640.113000", "185640.116000", "185640.119000", "185640.122000", "185640.125000", "185640.134000", "185640.137000", "185640.140000", "185640.143000", "185640.146000", "185640.148000", "185640.151000", "185640.154000", "185640.157000", "185640.160000", "185720.078000", "185720.081000", "185720.084000", "185720.087000", "185720.090000", "185720.093000", "185720.096000", "185720.099000", "185720.102000", "185720.105000", "185720.108000", "185720.111000", "185720.113000", "185720.116000", "185720.119000", "185720.122000", "185720.125000", "185720.128000", "185720.131000", "185720.134000", "185720.137000", "185720.140000", "185720.143000", "185720.145000", "185720.148000", "185720.151000", "185720.154000", "185800.077000", "185800.080000", "185800.083000", "185800.086000", "185800.089000", "185800.092000", "185800.095000", "185800.098000", "185800.101000", "185800.104000", "185800.107000", "185800.110000", "185800.113000", "185800.116000", "185800.119000", "185800.122000", "185800.125000", "185800.128000", "185800.131000", "185800.134000", "185800.137000", "185800.140000", "185800.143000", "185800.145000", "185800.148000", "185800.151000", "185800.154000", "185840.077000", "185840.080000", "185840.083000", "185840.086000", "185840.089000", "185840.092000", "185840.095000", "185840.097000", "185840.100000", "185840.103000", "185840.106000", "185840.109000", "185840.112000", "185840.115000", "185840.118000", "185840.121000", "185840.124000", "185840.127000", "185840.130000", "185840.132000", "185840.135000", "185840.138000", "185840.141000", "185840.144000", "185840.147000", "185840.150000", "185840.153000", "185911.166000", "185911.169000", "185911.172000", "185911.175000", "185911.178000", "185911.181000", "185911.184000", "185911.187000", "185911.190000", "185911.193000", "185911.196000", "185911.199000", "185911.202000", "185911.205000", "185911.208000", "185911.211000", "185911.214000", "185911.217000", "185911.220000", "185911.223000", "185911.226000"],
