{
  "AcquisitionMatrixPE": 104,
  "AcquisitionNumber": 1,
  "AcquisitionTime": "19:14:19.200000",
  "BandwidthPerPixelPhaseEncode": 17.17,
  "BaseResolution": 104,
  "BodyPartExamined": "BRAIN",
  "CoilCombinationMethod": "Sum of Squares",
  "ConsistencyInfo": "N4_VE11C_LATEST_20160120",
  "ConversionSoftware": "dcm2niix",
  "ConversionSoftwareVersion": "v1.0.20211006",
  "DerivedVendorReportedEchoSpacing": 0.000560011,
  "DeviceSerialNumber": "167006",
  "DwellTime": 2.1e-06,
  "EchoTime": 0.037,
  "EchoTrainLength": 104,
  "EffectiveEchoSpacing": 0.000560011,
  "FlipAngle": 52,
  "HeudiconvVersion": "0.11.3.post9+gc939bf8",
  "ImageComments": "Unaliased MB4/PE3/LB",
  "ImageOrientationPatientDICOM": [0.999815, -0.0116844, -0.0152717, 0.00506051, 0.926097, -0.377252],
  "ImageOrientationText": "Tra>Cor(-22.2)>Sag(-1.1)",
  "ImageType": [
    "ORIGINAL",
    "PRIMARY",
    "M",
    "MB",
    "ND",
    "MOSAIC"
],
  "ImagingFrequency": 123.259,
  "InPlanePhaseEncodingDirectionDICOM": "COL",
  "InstitutionAddress": "Chemin Queen-Mary 4565,Montreal,District,CA,H3W 1W5",
  "InstitutionName": "IUGM",
  "InstitutionalDepartmentName": "Department",
  "MRAcquisitionType": "2D",
  "MagneticFieldStrength": 3,
  "Manufacturer": "Siemens",
  "ManufacturersModelName": "Prisma_fit",
  "MatrixCoilMode": "SENSE",
  "Modality": "MR",
  "MultibandAccelerationFactor": 4,
  "PartialFourier": 1,
  "PatientPosition": "HFS",
  "PercentPhaseFOV": 100,
  "PercentSampling": 100,
  "PhaseEncodingDirection": "j",
  "PhaseEncodingSteps": 104,
  "PhaseResolution": 1,
  "PixelBandwidth": 2290,
  "ProcedureStepDescription": "video^friends",
  "ProtocolName": "func_task-friends-s06e13a",
  "PulseSequenceDetails": "%CustomerSeq%\\cmrr_mbep2d_bold",
  "ReceiveCoilActiveElements": "HC1-7;NC1,2",
  "ReceiveCoilName": "HeadNeck_64",
  "ReconMatrixPE": 104,
  "RepetitionTime": 1.49,
  "SAR": 0.087453,
  "ScanOptions": "FS",
  "ScanningSequence": "EP",
  "SequenceName": "epfid2d1_104",
  "SequenceVariant": "SK\\SS",
  "SeriesDescription": "func_task-friends-s06e13a",
  "SeriesNumber": 14,
  "ShimSetting": [606, -7296, -8807, 401, 4, -400, 3, 57],
  "SliceThickness": 2,
  "SliceTiming": [0, 0.785, 0.0975, 0.8825, 0.195, 0.98, 0.295, 1.0775, 0.3925, 1.175, 0.49, 1.275, 0.5875, 1.3725, 0.685, 0, 0.785, 0.0975, 0.8825, 0.195, 0.98, 0.295, 1.0775, 0.3925, 1.175, 0.49, 1.275, 0.5875, 1.3725, 0.685, 0, 0.785, 0.0975, 0.8825, 0.195, 0.98, 0.295, 1.0775, 0.3925, 1.175, 0.49, 1.275, 0.5875, 1.3725, 0.685, 0, 0.785, 0.0975, 0.8825, 0.195, 0.98, 0.295, 1.0775, 0.3925, 1.175, 0.49, 1.275, 0.5875, 1.3725, 0.685],
  "SoftwareVersions": "syngo MR E11",
  "SpacingBetweenSlices": 2,
  "StationName": "MRC35049",
  "TaskName": "s06e13a",
  "TotalReadoutTime": 0.0576811,
  "TxRefAmp": 311.903,
  "WipMemBlock": "e9c6ce32-ad51-48a1-8aaa-1f29c1e225d1||Sequence: R017 ve11c/master r/75a17815+; Jun 28 2022 16:32:11 by eja",
  "dcmmeta_affine": [
    [-1.9996302127838135, 0.010121023282408714, -0.03710198402404785, 99.70895385742188],
    [0.023368703201413155, 1.852193832397461, -0.7542093992233276, -71.13703155517578],
    [-0.03054334968328476, 0.7545034885406494, 1.851969599723816, -53.749778747558594],
    [0.0, 0.0, 0.0, 1.0]
],
  "dcmmeta_reorient_transform": [
    [0.0, -1.0, 0.0, 103.0],
    [1.0, 0.0, 0.0, 0.0],
    [0.0, 0.0, 1.0, 0.0],
    [0.0, 0.0, 0.0, 1.0]
],
  "dcmmeta_shape": [104, 104, 60, 470],
  "dcmmeta_slice_dim": 2,
  "dcmmeta_version": 0.6,
  "global": {
    "const": {
      "AcquisitionMatrix": [104, 0, 0, 104],
      "AngioFlag": "N",
      "BitsAllocated": 16,
      "BitsStored": 16,
      "BodyPartExamined": "BRAIN",
      "Columns": 832,
      "EchoNumbers": 1,
      "EchoTime": 37.0,
      "EchoTrainLength": 104,
      "FlipAngle": 52.0,
      "HighBit": 15,
      "ImageOrientationPatient": [0.99981510884784, -0.0116843513705, -0.0152716748469, 0.00506051165586, 0.92609692650706, -0.3772517381484],
      "ImagePositionPatient": [-832.30086979187, -785.33129203936, 309.7211250436],
      "ImageType": [
        "ORIGINAL",
        "PRIMARY",
        "M",
        "MB",
        "ND",
        "MOSAIC"
],
      "ImagedNucleus": "1H",
      "ImagingFrequency": 123.258753,
      "InPlanePhaseEncodingDirection": "COL",
      "MRAcquisitionType": "2D",
      "MagneticFieldStrength": 3.0,
      "Manufacturer": "SIEMENS",
      "ManufacturerModelName": "Prisma_fit",
      "Modality": "MR",
      "NumberOfAverages": 1.0,
      "NumberOfPhaseEncodingSteps": 104,
      "PercentPhaseFieldOfView": 100.0,
      "PercentSampling": 100.0,
      "PerformedProcedureStepStartTime": "183940.423000",
      "PhotometricInterpretation": "MONOCHROME2",
      "PixelBandwidth": 2290.0,
      "PixelRepresentation": 0,
      "PixelSpacing": [2.0, 2.0],
      "ProtocolName": "func_task-friends-s06e13a",
      "RepetitionTime": 1490.0,
      "Rows": 832,
      "SAR": 0.08745297789489,
      "SamplesPerPixel": 1,
      "ScanOptions": "FS",
      "ScanningSequence": "EP",
      "SequenceName": "epfid2d1_104",
      "SequenceVariant": [
        "SK",
        "SS"
],
      "SeriesDescription": "func_task-friends-s06e13a",
      "SeriesNumber": 14,
      "SeriesTime": "191532.489000",
      "SliceLocation": -24.795070185802,
      "SliceThickness": 2.0,
      "SmallestImagePixelValue": 0,
      "SoftwareVersions": "syngo MR E11",
      "SpacingBetweenSlices": 1.9999999576432,
      "SpecificCharacterSet": "ISO_IR 100",
      "StudyID": "1",
      "StudyTime": "183940.109000",
      "TransmitCoilName": "Body",
      "VariableFlipAngleFlag": "N",
      "WindowCenterWidthExplanation": "Algo1",
      "dBdt": 0.0},
    "slices": {}
  },
  "time": {
    "samples": {
      "AcquisitionNumber": [1, 2, 3, 4, 5, 6, 7, 8, 9, 10, 11, 12, 13, 14, 15, 16, 17, 18, 19, 20, 21, 22, 23, 24, 25, 26, 27, 28, 29, 30, 31, 32, 33, 34, 35, 36, 37, 38, 39, 40, 41, 42, 43, 44, 45, 46, 47, 48, 49, 50, 51, 52, 53, 54, 55, 56, 57, 58, 59, 60, 61, 62, 63, 64, 65, 66, 67, 68, 69, 70, 71, 72, 73, 74, 75, 76, 77, 78, 79, 80, 81, 82, 83, 84, 85, 86, 87, 88, 89, 90, 91, 92, 93, 94, 95, 96, 97, 98, 99, 100, 101, 102, 103, 104, 105, 106, 107, 108, 109, 110, 111, 112, 113, 114, 115, 116, 117, 118, 119, 120, 121, 122, 123, 124, 125, 126, 127, 128, 129, 130, 131, 132, 133, 134, 135, 136, 137, 138, 139, 140, 141, 142, 143, 144, 145, 146, 147, 148, 149, 150, 151, 152, 153, 154, 155, 156, 157, 158, 159, 160, 161, 162, 163, 164, 165, 166, 167, 168, 169, 170, 171, 172, 173, 174, 175, 176, 177, 178, 179, 180, 181, 182, 183, 184, 185, 186, 187, 188, 189, 190, 191, 192, 193, 194, 195, 196, 197, 198, 199, 200, 201, 202, 203, 204, 205, 206, 207, 208, 209, 210, 211, 212, 213, 214, 215, 216, 217, 218, 219, 220, 221, 222, 223, 224, 225, 226, 227, 228, 229, 230, 231, 232, 233, 234, 235, 236, 237, 238, 239, 240, 241, 242, 243, 244, 245, 246, 247, 248, 249, 250, 251, 252, 253, 254, 255, 256, 257, 258, 259, 260, 261, 262, 263, 264, 265, 266, 267, 268, 269, 270, 271, 272, 273, 274, 275, 276, 277, 278, 279, 280, 281, 282, 283, 284, 285, 286, 287, 288, 289, 290, 291, 292, 293, 294, 295, 296, 297, 298, 299, 300, 301, 302, 303, 304, 305, 306, 307, 308, 309, 310, 311, 312, 313, 314, 315, 316, 317, 318, 319, 320, 321, 322, 323, 324, 325, 326, 327, 328, 329, 330, 331, 332, 333, 334, 335, 336, 337, 338, 339, 340, 341, 342, 343, 344, 345, 346, 347, 348, 349, 350, 351, 352, 353, 354, 355, 356, 357, 358, 359, 360, 361, 362, 363, 364, 365, 366, 367, 368, 369, 370, 371, 372, 373, 374, 375, 376, 377, 378, 379, 380, 381, 382, 383, 384, 385, 386, 387, 388, 389, 390, 391, 392, 393, 394, 395, 396, 397, 398, 399, 400, 401, 402, 403, 404, 405, 406, 407, 408, 409, 410, 411, 412, 413, 414, 415, 416, 417, 418, 419, 420, 421, 422, 423, 424, 425, 426, 427, 428, 429, 430, 431, 432, 433, 434, 435, 436, 437, 438, 439, 440, 441, 442, 443, 444, 445, 446, 447, 448, 449, 450, 451, 452, 453, 454, 455, 456, 457, 458, 459, 460, 461, 462, 463, 464, 465, 466, 467, 468, 469, 470],
      "AcquisitionTime": ["191419.200000", "191420.690000", "191422.180000", "191423.670000", "191425.160000", "191426.650000", "191428.140000", "191429.630000", "191431.120000", "191432.610000", "191434.100000", "191435.590000", "191437.080000", "191438.570000", "191440.060000", "191441.550000", "191443.040000", "191444.530000", "191446.020000", "191447.510000", "191449.000000", "191450.490000", "191451.980000", "191453.470000", "191454.960000", "191456.450000", "191457.940000", "191459.430000", "191500.920000", "191502.410000", "191503.900000", "191505.390000", "191506.880000", "191508.370000", "191509.860000", "191511.350000", "191512.840000", "191514.330000", "191515.820000", "191517.310000", "191518.800000", "191520.290000", "191521.780000", "191523.270000", "191524.760000", "191526.250000", "191527.740000", "191529.230000", "191530.720000", "191532.210000", "191533.700000", "191535.190000", "191536.680000", "191538.170000", "191539.660000", "191541.150000", "191542.640000", "191544.130000", "191545.620000", "191547.110000", "191548.600000", "191550.090000", "191551.580000", "191553.070000", "191554.560000", "191556.050000", "191557.540000", "191559.030000", "191600.520000", "191602.010000", "191603.500000", "191604.990000", "191606.480000", "191607.970000", "191609.460000", "191610.950000", "191612.440000", "191613.930000", "191615.420000", "191616.910000", "191618.400000", "191619.890000", "191621.380000", "191622.870000", "191624.360000", "191625.850000", "191627.340000", "191628.830000", "191630.320000", "191631.810000", "191633.300000", "191634.790000", "191636.280000", "191637.770000", "191639.260000", "191640.750000", "191642.240000", "191643.730000", "191645.220000", "191646.710000", "191648.200000", "191649.690000", "191651.180000", "191652.670000", "191654.160000", "191655.650000", "191657.140000", "191658.630000", "191700.120000", "191701.610000", "191703.100000", "191704.590000", "191706.080000", "191707.570000", "191709.060000", "191710.550000", "191712.040000", "191713.530000", "191715.020000", "191716.510000", "191718.000000", "191719.490000", "191720.980000", "191722.470000", "191723.960000", "191725.450000", "191726.940000", "191728.430000", "191729.920000", "191731.410000", "191732.900000", "191734.390000", "191735.880000", "191737.370000", "191738.860000", "191740.350000", "191741.840000", "191743.330000", "191744.820000", "191746.310000", "191747.800000", "191749.290000", "191750.780000", "191752.270000", "191753.760000", "191755.250000", "191756.740000", "191758.230000", "191759.720000", "191801.210000", "191802.700000", "191804.190000", "191805.680000", "191807.170000", "191808.660000", "191810.150000", "191811.640000", "191813.130000", "191814.620000", "191816.110000", "191817.600000", "191819.090000", "191820.580000", "191822.070000", "191823.560000", "191825.050000", "191826.540000", "191828.030000", "191829.520000", "191831.010000", "191832.500000", "191833.990000", "191835.480000", "191836.970000", "191838.460000", "191839.950000", "191841.440000", "191842.930000", "191844.420000", "191845.910000", "191847.400000", "191848.890000", "191850.380000", "191851.870000", "191853.360000", "191854.850000", "191856.340000", "191857.830000", "191859.320000", "191900.810000", "191902.300000", "191903.790000", "191905.280000", "191906.770000", "191908.260000", "191909.750000", "191911.240000", "191912.730000", "191914.220000", "191915.710000", "191917.200000", "191918.690000", "191920.180000", "191921.670000", "191923.160000", "191924.650000", "191926.140000", "191927.630000", "191929.120000", "191930.610000", "191932.100000", "191933.590000", "191935.080000", "191936.570000", "191938.060000", "191939.550000", "191941.040000", "191942.530000", "191944.020000", "191945.510000", "191947.000000", "191948.490000", "191949.980000", "191951.470000", "191952.960000", "191954.450000", "191955.940000", "191957.430000", "191958.920000", "192000.410000", "192001.900000", "192003.390000", "192004.880000", "192006.370000", "192007.860000", "192009.350000", "192010.840000", "192012.330000", "192013.820000", "192015.310000", "192016.800000", "192018.290000", "192019.780000", "192021.270000", "192022.760000", "192024.250000", "192025.740000", "192027.230000", "192028.720000", "192030.210000", "192031.700000", "192033.190000", "192034.680000", "192036.170000", "192037.660000", "192039.150000", "192040.640000", "192042.130000", "192043.620000", "192045.110000", "192046.600000", "192048.090000", "192049.580000", "192051.070000", "192052.560000", "192054.050000", "192055.540000", "192057.030000", "192058.520000", "192100.010000", "192101.500000", "192102.990000", "192104.480000", "192105.970000", "192107.460000", "192108.950000", "192110.440000", "192111.930000", "192113.420000", "192114.910000", "192116.400000", "192117.890000", "192119.380000", "192120.870000", "192122.360000", "192123.850000", "192125.340000", "192126.830000", "192128.320000", "192129.810000", "192131.300000", "192132.790000", "192134.280000", "192135.770000", "192137.260000", "192138.750000", "192140.240000", "192141.730000", "192143.220000", "192144.710000", "192146.200000", "192147.690000", "192149.180000", "192150.670000", "192152.160000", "192153.650000", "192155.140000", "192156.630000", "192158.120000", "192159.610000", "192201.100000", "192202.590000", "192204.080000", "192205.570000", "192207.060000", "192208.550000", "192210.040000", "192211.530000", "192213.020000", "192214.510000", "192216.000000", "192217.490000", "192218.980000", "192220.470000", "192221.960000", "192223.450000", "192224.940000", "192226.430000", "192227.920000", "192229.410000", "192230.900000", "192232.390000", "192233.880000", "192235.370000", "192236.860000", "192238.350000", "192239.840000", "192241.330000", "192242.820000", "192244.310000", "192245.800000", "192247.290000", "192248.780000", "192250.270000", "192251.760000", "192253.250000", "192254.740000", "192256.230000", "192257.720000", "192259.210000", "192300.700000", "192302.190000", "192303.680000", "192305.170000", "192306.660000", "192308.150000", "192309.640000", "192311.130000", "192312.620000", "192314.110000", "192315.600000", "192317.090000", "192318.580000", "192320.070000", "192321.560000", "192323.050000", "192324.540000", "192326.030000", "192327.520000", "192329.010000", "192330.500000", "192331.990000", "192333.480000", "192334.970000", "192336.460000", "192337.950000", "192339.440000", "192340.930000", "192342.420000", "192343.910000", "192345.400000", "192346.890000", "192348.380000", "192349.870000", "192351.360000", "192352.850000", "192354.340000", "192355.830000", "192357.320000", "192358.810000", "192400.300000", "192401.790000", "192403.280000", "192404.770000", "192406.260000", "192407.750000", "192409.240000", "192410.730000", "192412.220000", "192413.710000", "192415.200000", "192416.690000", "192418.180000", "192419.670000", "192421.160000", "192422.650000", "192424.140000", "192425.630000", "192427.120000", "192428.610000", "192430.100000", "192431.590000", "192433.080000", "192434.570000", "192436.060000", "192437.550000", "192439.040000", "192440.530000", "192442.020000", "192443.510000", "192445.000000", "192446.490000", "192447.980000", "192449.470000", "192450.960000", "192452.450000", "192453.940000", "192455.430000", "192456.920000", "192458.410000", "192459.900000", "192501.390000", "192502.880000", "192504.370000", "192505.860000", "192507.350000", "192508.840000", "192510.330000", "192511.820000", "192513.310000", "192514.800000", "192516.290000", "192517.780000", "192519.270000", "192520.760000", "192522.250000", "192523.740000", "192525.230000", "192526.720000", "192528.210000", "192529.700000", "192531.190000", "192532.680000", "192534.170000", "192535.660000", "192537.150000", "192538.640000", "192540.130000", "192541.620000", "192543.110000", "192544.600000", "192546.090000", "192547.580000", "192549.070000", "192550.560000", "192552.050000", "192553.540000", "192555.030000", "192556.520000", "192558.010000"],
      "ContentTime": ["191532.492000", "191532.496000", "191532.499000", "191532.502000", "191532.505000", "191532.508000", "191532.510000", "191532.513000", "191532.516000", "191532.519000", "191532.522000", "191532.525000", "191532.528000", "191532.542000", "191532.545000", "191532.547000", "191532.550000", "191532.553000", "191532.556000", "191532.567000", "191532.570000", "191532.573000", "191532.576000", "191552.457000", "191552.460000", "191552.463000", "191552.466000", "191552.469000", "191552.472000", "191552.475000", "191552.478000", "191552.481000", "191552.484000", "191552.486000", "191552.489000", "191552.492000", "191552.496000", "191552.499000", "191552.502000", "191552.505000", "191552.508000", "191552.511000", "191552.514000", "191612.457000", "191612.460000", "191612.463000", "191612.466000", "191612.469000", "191612.472000", "191612.475000", "191612.477000", "191612.480000", "191612.483000", "191612.486000", "191612.489000", "191612.492000", "191612.501000", "191612.504000", "191612.507000", "191612.510000", "191612.513000", "191612.516000", "191612.519000", "191632.457000", "191632.460000", "191632.478000", "191632.481000", "191632.483000", "191632.486000", "191632.489000", "191632.492000", "191632.495000", "191632.498000", "191632.501000", "191632.504000", "191632.506000", "191632.509000", "191632.512000", "191632.515000", "191632.518000", "191632.521000", "191632.524000", "191632.527000", "191712.457000", "191712.460000", "191712.463000", "191712.466000", "191712.469000", "191712.472000", "191712.474000", "191712.477000", "191712.480000", "191712.483000", "191712.486000", "191712.489000", "191712.492000", "191712.495000", "191712.498000", "191712.501000", "191712.503000", "191712.506000", "191712.509000", "191712.512000", "191712.515000", "191712.518000", "191712.521000", "191712.524000", "191712.527000", "191712.530000", "191712.533000", "191712.536000", "191712.539000", "191712.548000", "191712.551000", "191712.553000", "191752.457000", "191752.460000", "191752.463000", "191752.466000", "191752.469000", "191752.472000", "191752.475000", "191752.478000", "191752.480000", "191752.483000", "191752.486000", "191752.489000", "191752.492000", "191752.495000", "191752.498000", "191752.501000", "191752.504000", "191752.507000", "191752.510000", "191752.513000", "191752.516000", "191752.519000", "191752.522000", "191752.525000", "191752.528000", "191752.530000", "191752.533000", "191832.457000", "191832.460000", "191832.463000", "191832.466000", "191832.469000", "191832.472000", "191832.475000", "191832.478000", "191832.481000", "191832.484000", "191832.486000", "191832.489000", "191832.492000", "191832.495000", "191832.498000", "191832.501000", "191832.504000", "191832.507000", "191832.510000", "191832.513000", "191832.516000", "191832.519000", "191832.522000", "191832.524000", "191832.527000", "191832.530000", "191832.533000", "191912.457000", "191912.460000", "191912.463000", "191912.466000", "191912.469000", "191912.472000", "191912.475000", "191912.478000", "191912.481000", "191912.484000", "191912.487000", "191912.489000", "191912.492000", "191912.495000", "191912.498000", "191912.501000", "191912.504000", "191912.507000", "191912.510000", "191912.513000", "191912.516000", "191912.519000", "191912.522000", "191912.525000", "191912.528000", "191912.531000", "191912.534000", "191952.457000", "191952.460000", "191952.463000", "191952.466000", "191952.469000", "191952.472000", "191952.475000", "191952.478000", "191952.481000", "191952.483000", "191952.486000", "191952.499000", "191952.502000", "191952.506000", "191952.509000", "191952.512000", "191952.515000", "191952.518000", "191952.521000", "191952.524000", "191952.527000", "191952.530000", "191952.533000", "191952.536000", "191952.539000", "191952.542000", "192032.458000", "192032.461000", "192032.464000", "192032.467000", "192032.470000", "192032.473000", "192032.475000", "192032.478000", "192032.481000", "192032.484000", "192032.487000", "192032.490000", "192032.493000", "192032.496000", "192032.499000", "192032.502000", "192032.505000", "192032.508000", "192032.511000", "192032.514000", "192032.516000", "192032.519000", "192032.522000", "192032.525000", "192032.528000", "192032.531000", "192032.534000", "192112.457000", "192112.460000", "192112.463000", "192112.466000", "192112.469000", "192112.472000", "192112.475000", "192112.478000", "192112.481000", "192112.483000", "192112.486000", "192112.489000", "192112.492000", "192112.495000", "192112.498000", "192112.501000", "192112.504000", "192112.507000", "192112.522000", "192112.525000", "192112.528000", "192112.531000", "192112.534000", "192112.537000", "192112.540000", "192112.543000", "192112.546000", "192152.457000", "192152.460000", "192152.463000", "192152.466000", "192152.469000", "192152.472000", "192152.475000", "192152.478000", "192152.480000", "192152.483000", "192152.486000", "192152.489000", "192152.492000", "192152.495000", "192152.498000", "192152.501000", "192152.504000", "192152.507000", "192152.510000", "192152.513000", "192152.516000", "192152.519000", "192152.521000", "192152.524000", "192152.527000", "192152.530000", "192152.533000", "192232.457000", "192232.466000", "192232.469000", "192232.472000", "192232.475000", "192232.478000", "192232.481000", "192232.484000", "192232.487000", "192232.490000", "192232.493000", "192232.496000", "192232.499000", "192232.501000", "192232.504000", "192232.507000", "192232.510000", "192232.513000", "192232.516000", "192232.520000", "192232.523000", "192232.526000", "192232.529000", "192232.532000", "192232.535000", "192232.538000", "192232.541000", "192312.457000", "192312.460000", "192312.463000", "192312.466000", "192312.469000", "192312.472000", "192312.475000", "192312.478000", "192312.480000", "192312.483000", "192312.486000", "192312.489000", "192312.492000", "192312.495000", "192312.499000", "192312.502000", "192312.505000", "192312.508000", "192312.511000", "192312.513000", "192312.516000", "192312.519000", "192312.522000", "192312.525000", "192312.528000", "192312.531000", "192312.534000", "192352.457000", "192352.460000", "192352.463000", "192352.466000", "192352.469000", "192352.472000", "192352.475000", "192352.478000", "192352.480000", "192352.484000", "192352.486000", "192352.489000", "192352.492000", "192352.495000", "192352.498000", "192352.501000", "192352.504000", "192352.507000", "192352.510000", "192352.513000", "192352.516000", "192352.519000", "192352.522000", "192352.525000", "192352.528000", "192352.531000", "192352.534000", "192432.457000", "192432.460000", "192432.463000", "192432.466000", "192432.469000", "192432.472000", "192432.475000", "192432.478000", "192432.481000", "192432.484000", "192432.486000", "192432.489000", "192432.492000", "192432.497000", "192432.500000", "192432.503000", "192432.506000", "192432.509000", "192432.512000", "192432.515000", "192432.518000", "192432.521000", "192432.524000", "192432.527000", "192432.530000", "192432.533000", "192512.457000", "192512.460000", "192512.463000", "192512.466000", "192512.469000", "192512.472000", "192512.475000", "192512.478000", "192512.481000", "192512.483000", "192512.486000", "192512.489000", "192512.492000", "192512.495000", "192512.498000", "192512.501000", "192512.504000", "192512.507000", "192512.510000", "192512.513000", "192512.516000", "192512.519000", "192512.521000", "192512.524000", "192512.527000", "192512.530000", "192512.533000", "192552.457000", "192552.460000", "192552.463000", "192552.466000", "192552.469000", "192552.489000", "192552.492000", "192552.495000", "192552.498000", "192552.500000", "192552.503000", "192552.506000", "192552.509000", "192552.512000", "192552.515000", "192552.518000", "192552.521000", "192552.524000", "192552.527000", "192552.530000", "192552.533000", "192552.536000", "192552.539000", "192552.542000", "192552.545000", "192552.547000", "192552.550000", "192600.587000", "192600.590000", "192600.593000", "192600.596000", "192600.599000", "192600.602000"],
