{
  "AcquisitionMatrixPE": 104,
  "AcquisitionNumber": 1,
  "AcquisitionTime": "18:14:49.535000",
  "BandwidthPerPixelPhaseEncode": 17.17,
  "BaseResolution": 104,
  "BodyPartExamined": "BRAIN",
  "CoilString": "HC1-7;NC1_2",
  "ConsistencyInfo": "N4_VE11C_LATEST_20160120",
  "ConversionSoftware": "dcm2niix",
  "ConversionSoftwareVersion": "v1.0.20190902",
  "DerivedVendorReportedEchoSpacing": 0.000560011,
  "DeviceSerialNumber": "167006",
  "DwellTime": 2.1e-06,
  "EchoTime": 0.037,
  "EchoTrainLength": 104,
  "EffectiveEchoSpacing": 0.000560011,
  "FlipAngle": 52,
  "ImageComments": "Unaliased_MB4_PE3_LB",
  "ImageOrientationPatientDICOM": [0.999881, 0.0132279, -0.00796689, -0.0146601, 0.975238, -0.220672],
  "ImageType": [
    "ORIGINAL",
    "PRIMARY",
    "M",
    "MB",
    "ND",
    "MOSAIC"
],
  "ImagingFrequency": 123.259,
  "InPlanePhaseEncodingDirectionDICOM": "COL",
  "InstitutionAddress": "Chemin_Queen-Mary_4565_Montreal_District_CA_H3W_1W5",
  "InstitutionName": "IUGM",
  "InstitutionalDepartmentName": "Department",
  "MRAcquisitionType": "2D",
  "MagneticFieldStrength": 3,
  "Manufacturer": "Siemens",
  "ManufacturersModelName": "Prisma_fit",
  "Modality": "MR",
  "MultibandAccelerationFactor": 4,
  "PartialFourier": 1,
  "PatientPosition": "HFS",
  "PercentPhaseFOV": 100,
  "PhaseEncodingDirection": "j",
  "PhaseEncodingSteps": 104,
  "PhaseResolution": 1,
  "PixelBandwidth": 2290,
  "ProcedureStepDescription": "video_friends",
  "ProtocolName": "func_task-friends-s05e04a",
  "PulseSequenceDetails": "%CustomerSeq%_cmrr_mbep2d_bold",
  "ReceiveCoilActiveElements": "HC1-7;NC1,2",
  "ReceiveCoilName": "HeadNeck_64",
  "ReconMatrixPE": 104,
  "RepetitionTime": 1.49,
  "SAR": 0.0301928,
  "ScanOptions": "FS",
  "ScanningSequence": "EP",
  "SequenceName": "epfid2d1_104",
  "SequenceVariant": "SK_SS",
  "SeriesDescription": "func_task-friends-s05e04a",
  "SeriesNumber": 13,
  "ShimSetting": [637, -7234, -8771, 711, 20, -93, 153, 9],
  "SliceThickness": 2,
  "SliceTiming": [0, 0.785, 0.0975, 0.8825, 0.1975, 0.98, 0.295, 1.0775, 0.3925, 1.1775, 0.49, 1.275, 0.5875, 1.3725, 0.6875, 0, 0.785, 0.0975, 0.8825, 0.1975, 0.98, 0.295, 1.0775, 0.3925, 1.1775, 0.49, 1.275, 0.5875, 1.3725, 0.6875, 0, 0.785, 0.0975, 0.8825, 0.1975, 0.98, 0.295, 1.0775, 0.3925, 1.1775, 0.49, 1.275, 0.5875, 1.3725, 0.6875, 0, 0.785, 0.0975, 0.8825, 0.1975, 0.98, 0.295, 1.0775, 0.3925, 1.1775, 0.49, 1.275, 0.5875, 1.3725, 0.6875],
  "SoftwareVersions": "syngo_MR_E11",
  "SpacingBetweenSlices": 2,
  "StationName": "MRC35049",
  "TaskName": "s05e04a",
  "TotalReadoutTime": 0.0576811,
  "TxRefAmp": 208.438,
  "WipMemBlock": "fbc35712-a7b9-4bb8-950f-85b0dba99064||Sequence: R016 ve11c/master r/e634e98; Dec 19 2017 11:00:25 by eja",
  "dcmmeta_affine": [
    [-1.9997615814208984, -0.02932024374604225, -0.009701171889901161, 106.17900848388672],
    [-0.026455705985426903, 1.9504755735397339, -0.44152575731277466, -84.752685546875],
    [-0.015933770686388016, 0.4413447976112366, 1.9506309032440186, -47.3819580078125],
    [0.0, 0.0, 0.0, 1.0]
],
  "dcmmeta_reorient_transform": [
    [0.0, -1.0, 0.0, 103.0],
    [1.0, 0.0, 0.0, 0.0],
    [0.0, 0.0, 1.0, 0.0],
    [0.0, 0.0, 0.0, 1.0]
],
  "dcmmeta_shape": [104, 104, 60, 488],
  "dcmmeta_slice_dim": 2,
  "dcmmeta_version": 0.6,
  "global": {
    "const": {
      "AcquisitionMatrix": [104, 0, 0, 104],
      "AngioFlag": "N",
      "BitsAllocated": 16,
      "BitsStored": 16,
      "BodyPartExamined": "BRAIN",
      "Columns": 832,
      "EchoNumbers": 1,
      "EchoTime": 37.0,
      "EchoTrainLength": 104,
      "FlipAngle": 52.0,
      "HighBit": 15,
      "ImageOrientationPatient": [0.99988076921631, 0.01322785261192, -0.0079668856324, -0.0146601216332, 0.9752378031337, -0.2206724001153],
      "ImagePositionPatient": [-820.39965452666, -835.74929559836, 164.52595664968],
      "ImageType": [
        "ORIGINAL",
        "PRIMARY",
        "M",
        "MB",
        "ND",
        "MOSAIC"
],
      "ImagedNucleus": "1H",
      "ImagingFrequency": 123.258998,
      "InPlanePhaseEncodingDirection": "COL",
      "MRAcquisitionType": "2D",
      "MagneticFieldStrength": 3.0,
      "Manufacturer": "SIEMENS",
      "ManufacturerModelName": "Prisma_fit",
      "Modality": "MR",
      "NumberOfAverages": 1.0,
      "NumberOfPhaseEncodingSteps": 104,
      "PercentPhaseFieldOfView": 100.0,
      "PercentSampling": 100.0,
      "PerformedProcedureStepStartTime": "173424.399000",
      "PhotometricInterpretation": "MONOCHROME2",
      "PixelBandwidth": 2290.0,
      "PixelRepresentation": 0,
      "PixelSpacing": [2.0, 2.0],
      "ProtocolName": "func_task-friends-s05e04a",
      "RepetitionTime": 1490.0,
      "Rows": 832,
      "SAR": 0.03019278849172,
      "SamplesPerPixel": 1,
      "ScanOptions": "FS",
      "ScanningSequence": "EP",
      "SequenceName": "epfid2d1_104",
      "SequenceVariant": [
        "SK",
        "SS"
],
      "SeriesDescription": "func_task-friends-s05e04a",
      "SeriesNumber": 13,
      "SeriesTime": "181619.991000",
      "SliceLocation": -28.017137592735,
      "SliceThickness": 2.0,
      "SmallestImagePixelValue": 0,
      "SoftwareVersions": "syngo MR E11",
      "SpacingBetweenSlices": 1.9999999735027,
      "SpecificCharacterSet": "ISO_IR 100",
      "StudyID": "1",
      "StudyTime": "173424.194000",
      "TransmitCoilName": "Body",
      "VariableFlipAngleFlag": "N",
      "WindowCenterWidthExplanation": "Algo1",
      "dBdt": 0.0},
    "slices": {}
  },
  "time": {
    "samples": {
      "AcquisitionNumber": [1, 2, 3, 4, 5, 6, 7, 8, 9, 10, 11, 12, 13, 14, 15, 16, 17, 18, 19, 20, 21, 22, 23, 24, 25, 26, 27, 28, 29, 30, 31, 32, 33, 34, 35, 36, 37, 38, 39, 40, 41, 42, 43, 44, 45, 46, 47, 48, 49, 50, 51, 52, 53, 54, 55, 56, 57, 58, 59, 60, 61, 62, 63, 64, 65, 66, 67, 68, 69, 70, 71, 72, 73, 74, 75, 76, 77, 78, 79, 80, 81, 82, 83, 84, 85, 86, 87, 88, 89, 90, 91, 92, 93, 94, 95, 96, 97, 98, 99, 100, 101, 102, 103, 104, 105, 106, 107, 108, 109, 110, 111, 112, 113, 114, 115, 116, 117, 118, 119, 120, 121, 122, 123, 124, 125, 126, 127, 128, 129, 130, 131, 132, 133, 134, 135, 136, 137, 138, 139, 140, 141, 142, 143, 144, 145, 146, 147, 148, 149, 150, 151, 152, 153, 154, 155, 156, 157, 158, 159, 160, 161, 162, 163, 164, 165, 166, 167, 168, 169, 170, 171, 172, 173, 174, 175, 176, 177, 178, 179, 180, 181, 182, 183, 184, 185, 186, 187, 188, 189, 190, 191, 192, 193, 194, 195, 196, 197, 198, 199, 200, 201, 202, 203, 204, 205, 206, 207, 208, 209, 210, 211, 212, 213, 214, 215, 216, 217, 218, 219, 220, 221, 222, 223, 224, 225, 226, 227, 228, 229, 230, 231, 232, 233, 234, 235, 236, 237, 238, 239, 240, 241, 242, 243, 244, 245, 246, 247, 248, 249, 250, 251, 252, 253, 254, 255, 256, 257, 258, 259, 260, 261, 262, 263, 264, 265, 266, 267, 268, 269, 270, 271, 272, 273, 274, 275, 276, 277, 278, 279, 280, 281, 282, 283, 284, 285, 286, 287, 288, 289, 290, 291, 292, 293, 294, 295, 296, 297, 298, 299, 300, 301, 302, 303, 304, 305, 306, 307, 308, 309, 310, 311, 312, 313, 314, 315, 316, 317, 318, 319, 320, 321, 322, 323, 324, 325, 326, 327, 328, 329, 330, 331, 332, 333, 334, 335, 336, 337, 338, 339, 340, 341, 342, 343, 344, 345, 346, 347, 348, 349, 350, 351, 352, 353, 354, 355, 356, 357, 358, 359, 360, 361, 362, 363, 364, 365, 366, 367, 368, 369, 370, 371, 372, 373, 374, 375, 376, 377, 378, 379, 380, 381, 382, 383, 384, 385, 386, 387, 388, 389, 390, 391, 392, 393, 394, 395, 396, 397, 398, 399, 400, 401, 402, 403, 404, 405, 406, 407, 408, 409, 410, 411, 412, 413, 414, 415, 416, 417, 418, 419, 420, 421, 422, 423, 424, 425, 426, 427, 428, 429, 430, 431, 432, 433, 434, 435, 436, 437, 438, 439, 440, 441, 442, 443, 444, 445, 446, 447, 448, 449, 450, 451, 452, 453, 454, 455, 456, 457, 458, 459, 460, 461, 462, 463, 464, 465, 466, 467, 468, 469, 470, 471, 472, 473, 474, 475, 476, 477, 478, 479, 480, 481, 482, 483, 484, 485, 486, 487, 488],
      "AcquisitionTime": ["181449.535000", "181451.025000", "181452.515000", "181454.005000", "181455.495000", "181456.985000", "181458.475000", "181459.965000", "181501.455000", "181502.945000", "181504.435000", "181505.925000", "181507.415000", "181508.905000", "181510.395000", "181511.885000", "181513.375000", "181514.865000", "181516.355000", "181517.845000", "181519.335000", "181520.825000", "181522.315000", "181523.805000", "181525.295000", "181526.785000", "181528.275000", "181529.765000", "181531.255000", "181532.745000", "181534.235000", "181535.725000", "181537.215000", "181538.705000", "181540.195000", "181541.685000", "181543.175000", "181544.665000", "181546.155000", "181547.645000", "181549.135000", "181550.625000", "181552.115000", "181553.605000", "181555.095000", "181556.585000", "181558.075000", "181559.565000", "181601.055000", "181602.545000", "181604.035000", "181605.525000", "181607.015000", "181608.505000", "181609.995000", "181611.485000", "181612.975000", "181614.465000", "181615.955000", "181617.445000", "181618.935000", "181620.425000", "181621.915000", "181623.405000", "181624.895000", "181626.385000", "181627.875000", "181629.365000", "181630.855000", "181632.345000", "181633.835000", "181635.325000", "181636.815000", "181638.305000", "181639.795000", "181641.285000", "181642.775000", "181644.265000", "181645.755000", "181647.245000", "181648.735000", "181650.225000", "181651.715000", "181653.205000", "181654.695000", "181656.185000", "181657.675000", "181659.165000", "181700.655000", "181702.145000", "181703.635000", "181705.125000", "181706.615000", "181708.105000", "181709.595000", "181711.085000", "181712.575000", "181714.065000", "181715.555000", "181717.045000", "181718.535000", "181720.025000", "181721.515000", "181723.005000", "181724.495000", "181725.985000", "181727.475000", "181728.965000", "181730.455000", "181731.945000", "181733.435000", "181734.925000", "181736.415000", "181737.905000", "181739.395000", "181740.885000", "181742.375000", "181743.865000", "181745.355000", "181746.845000", "181748.335000", "181749.825000", "181751.315000", "181752.805000", "181754.295000", "181755.785000", "181757.275000", "181758.765000", "181800.255000", "181801.745000", "181803.235000", "181804.725000", "181806.215000", "181807.705000", "181809.195000", "181810.685000", "181812.175000", "181813.665000", "181815.155000", "181816.645000", "181818.135000", "181819.625000", "181821.115000", "181822.605000", "181824.095000", "181825.585000", "181827.075000", "181828.565000", "181830.055000", "181831.545000", "181833.035000", "181834.525000", "181836.015000", "181837.505000", "181838.995000", "181840.485000", "181841.975000", "181843.465000", "181844.955000", "181846.445000", "181847.935000", "181849.425000", "181850.915000", "181852.405000", "181853.895000", "181855.385000", "181856.875000", "181858.365000", "181859.855000", "181901.345000", "181902.835000", "181904.325000", "181905.815000", "181907.305000", "181908.795000", "181910.285000", "181911.775000", "181913.265000", "181914.755000", "181916.245000", "181917.735000", "181919.225000", "181920.715000", "181922.205000", "181923.695000", "181925.185000", "181926.675000", "181928.165000", "181929.655000", "181931.145000", "181932.635000", "181934.125000", "181935.615000", "181937.105000", "181938.595000", "181940.085000", "181941.575000", "181943.065000", "181944.555000", "181946.045000", "181947.535000", "181949.025000", "181950.515000", "181952.005000", "181953.495000", "181954.985000", "181956.475000", "181957.965000", "181959.455000", "182000.945000", "182002.435000", "182003.925000", "182005.415000", "182006.905000", "182008.395000", "182009.885000", "182011.375000", "182012.865000", "182014.355000", "182015.845000", "182017.335000", "182018.825000", "182020.315000", "182021.805000", "182023.295000", "182024.785000", "182026.275000", "182027.765000", "182029.255000", "182030.745000", "182032.235000", "182033.725000", "182035.215000", "182036.705000", "182038.195000", "182039.685000", "182041.175000", "182042.665000", "182044.155000", "182045.645000", "182047.135000", "182048.625000", "182050.115000", "182051.605000", "182053.095000", "182054.585000", "182056.075000", "182057.565000", "182059.055000", "182100.545000", "182102.035000", "182103.525000", "182105.015000", "182106.505000", "182107.995000", "182109.485000", "182110.975000", "182112.465000", "182113.955000", "182115.445000", "182116.935000", "182118.425000", "182119.915000", "182121.405000", "182122.895000", "182124.385000", "182125.875000", "182127.365000", "182128.855000", "182130.345000", "182131.835000", "182133.325000", "182134.815000", "182136.305000", "182137.795000", "182139.285000", "182140.775000", "182142.265000", "182143.755000", "182145.245000", "182146.735000", "182148.225000", "182149.715000", "182151.205000", "182152.695000", "182154.185000", "182155.675000", "182157.165000", "182158.655000", "182200.145000", "182201.635000", "182203.125000", "182204.615000", "182206.105000", "182207.595000", "182209.085000", "182210.575000", "182212.065000", "182213.555000", "182215.045000", "182216.535000", "182218.025000", "182219.515000", "182221.005000", "182222.495000", "182223.985000", "182225.475000", "182226.965000", "182228.455000", "182229.945000", "182231.435000", "182232.925000", "182234.415000", "182235.905000", "182237.395000", "182238.885000", "182240.375000", "182241.865000", "182243.355000", "182244.845000", "182246.335000", "182247.825000", "182249.315000", "182250.805000", "182252.295000", "182253.785000", "182255.275000", "182256.765000", "182258.255000", "182259.745000", "182301.235000", "182302.725000", "182304.215000", "182305.705000", "182307.195000", "182308.685000", "182310.175000", "182311.665000", "182313.155000", "182314.645000", "182316.135000", "182317.625000", "182319.115000", "182320.605000", "182322.095000", "182323.585000", "182325.075000", "182326.565000", "182328.055000", "182329.545000", "182331.035000", "182332.525000", "182334.015000", "182335.505000", "182336.995000", "182338.485000", "182339.975000", "182341.465000", "182342.955000", "182344.445000", "182345.935000", "182347.425000", "182348.915000", "182350.405000", "182351.895000", "182353.385000", "182354.875000", "182356.365000", "182357.855000", "182359.345000", "182400.835000", "182402.325000", "182403.815000", "182405.305000", "182406.795000", "182408.285000", "182409.775000", "182411.265000", "182412.755000", "182414.245000", "182415.735000", "182417.225000", "182418.715000", "182420.205000", "182421.695000", "182423.185000", "182424.675000", "182426.165000", "182427.655000", "182429.145000", "182430.635000", "182432.125000", "182433.615000", "182435.105000", "182436.595000", "182438.085000", "182439.575000", "182441.065000", "182442.555000", "182444.045000", "182445.535000", "182447.025000", "182448.515000", "182450.005000", "182451.495000", "182452.985000", "182454.475000", "182455.965000", "182457.455000", "182458.945000", "182500.435000", "182501.925000", "182503.415000", "182504.905000", "182506.395000", "182507.885000", "182509.375000", "182510.865000", "182512.355000", "182513.845000", "182515.335000", "182516.825000", "182518.315000", "182519.805000", "182521.295000", "182522.785000", "182524.275000", "182525.765000", "182527.255000", "182528.745000", "182530.235000", "182531.725000", "182533.215000", "182534.705000", "182536.195000", "182537.685000", "182539.175000", "182540.665000", "182542.155000", "182543.645000", "182545.135000", "182546.625000", "182548.115000", "182549.605000", "182551.095000", "182552.585000", "182554.075000", "182555.565000", "182557.055000", "182558.545000", "182600.035000", "182601.525000", "182603.015000", "182604.505000", "182605.995000", "182607.485000", "182608.975000", "182610.465000", "182611.955000", "182613.445000", "182614.935000", "182616.425000", "182617.915000", "182619.405000", "182620.895000", "182622.385000", "182623.875000", "182625.365000", "182626.855000", "182628.345000", "182629.835000", "182631.325000", "182632.815000", "182634.305000", "182635.795000", "182637.285000", "182638.775000", "182640.265000", "182641.755000", "182643.245000", "182644.735000", "182646.225000", "182647.715000", "182649.205000", "182650.695000", "182652.185000", "182653.675000", "182655.165000"],
      "ContentTime": ["181619.993000", "181619.997000", "181620.000000", "181620.003000", "181620.006000", "181620.009000", "181620.012000", "181620.015000", "181620.018000", "181620.021000", "181620.023000", "181620.026000", "181620.029000", "181620.032000", "181620.035000", "181620.038000", "181620.041000", "181620.043000", "181620.052000", "181620.055000", "181620.058000", "181620.061000", "181620.064000", "181620.066000", "181620.069000", "181620.072000", "181620.075000", "181620.078000", "181620.081000", "181620.084000", "181620.087000", "181620.089000", "181620.092000", "181620.095000", "181620.098000", "181639.960000", "181639.963000", "181639.966000", "181639.968000", "181639.971000", "181639.974000", "181639.977000", "181639.980000", "181639.983000", "181639.986000", "181639.989000", "181639.991000", "181639.994000", "181639.997000", "181640.001000", "181640.004000", "181640.007000", "181640.010000", "181640.013000", "181640.015000", "181659.961000", "181659.964000", "181659.973000", "181659.976000", "181659.979000", "181659.982000", "181659.985000", "181659.988000", "181659.990000", "181659.993000", "181659.996000", "181659.999000", "181700.002000", "181700.005000", "181700.008000", "181700.010000", "181700.013000", "181700.016000", "181700.019000", "181700.022000", "181700.025000", "181739.960000", "181739.963000", "181739.966000", "181739.969000", "181739.972000", "181739.975000", "181739.978000", "181739.981000", "181739.983000", "181739.986000", "181739.989000", "181739.992000", "181739.995000", "181739.998000", "181740.002000", "181740.005000", "181740.008000", "181740.010000", "181740.013000", "181740.016000", "181740.019000", "181740.022000", "181740.025000", "181740.028000", "181740.031000", "181740.034000", "181740.037000", "181740.040000", "181740.043000", "181740.047000", "181740.050000", "181740.053000", "181740.055000", "181740.058000", "181740.061000", "181740.064000", "181740.067000", "181819.960000", "181819.963000", "181819.966000", "181819.968000", "181819.971000", "181819.974000", "181819.989000", "181819.992000", "181819.995000", "181819.998000", "181820.002000", "181820.005000", "181820.008000", "181820.010000", "181820.013000", "181820.016000", "181820.019000", "181820.022000", "181820.025000", "181820.038000", "181820.041000", "181820.044000", "181820.047000", "181820.050000", "181820.053000", "181820.055000", "181820.058000", "181859.960000", "181859.963000", "181859.966000", "181859.969000", "181859.972000", "181859.974000", "181859.977000", "181859.980000", "181859.983000", "181859.986000", "181859.989000", "181859.992000", "181859.994000", "181859.997000", "181900.000000", "181900.003000", "181900.006000", "181900.009000", "181900.011000", "181900.015000", "181900.017000", "181900.020000", "181900.023000", "181900.026000", "181900.029000", "181900.032000", "181900.034000", "181939.960000", "181939.963000", "181939.966000", "181939.969000", "181939.972000", "181939.974000", "181939.977000", "181939.980000", "181939.983000", "181939.986000", "181939.989000", "181939.992000", "181939.995000", "181939.997000", "181940.001000", "181940.004000", "181940.007000", "181940.010000", "181940.013000", "181940.016000", "181940.019000", "181940.021000", "181940.024000", "181940.027000", "181940.030000", "181940.033000", "181940.036000", "182019.960000", "182019.963000", "182019.966000", "182019.969000", "182019.972000", "182019.975000", "182019.977000", "182019.980000", "182019.983000", "182019.986000", "182019.989000", "182019.992000", "182019.994000", "182019.997000", "182020.001000", "182020.004000", "182020.007000", "182020.010000", "182020.013000", "182020.016000", "182020.018000", "182020.021000", "182020.024000", "182020.027000", "182020.030000", "182020.033000", "182020.036000", "182059.960000", "182059.963000", "182059.966000", "182059.968000", "182059.971000", "182059.974000", "182059.977000", "182059.980000", "182059.983000", "182059.986000", "182059.989000", "182059.991000", "182059.994000", "182059.997000", "182100.000000", "182100.003000", "182100.006000", "182100.009000", "182100.012000", "182100.015000", "182100.018000", "182100.020000", "182100.023000", "182100.026000", "182100.029000", "182100.032000", "182100.035000", "182139.961000", "182139.964000", "182139.967000", "182139.970000", "182139.972000", "182139.975000", "182139.978000", "182139.981000", "182139.984000", "182139.987000", "182139.990000", "182139.993000", "182139.996000", "182139.998000", "182140.001000", "182140.004000", "182140.007000", "182140.010000", "182140.013000", "182140.016000", "182140.019000", "182140.022000", "182140.024000", "182140.027000", "182140.030000", "182140.033000", "182140.036000", "182219.960000", "182219.963000", "182219.966000", "182219.968000", "182219.971000", "182219.974000", "182219.977000", "182219.980000", "182219.983000", "182219.986000", "182219.989000", "182219.991000", "182219.994000", "182219.997000", "182220.001000", "182220.004000", "182220.007000", "182220.010000", "182220.012000", "182220.015000", "182220.018000", "182220.021000", "182220.024000", "182220.028000", "182220.031000", "182220.034000", "182259.960000", "182259.963000", "182259.966000", "182259.969000", "182259.972000", "182259.974000", "182259.977000", "182259.980000", "182259.983000", "182259.986000", "182259.989000", "182259.992000", "182259.995000", "182259.997000", "182300.001000", "182300.004000", "182300.007000", "182300.010000", "182300.013000", "182300.016000", "182300.040000", "182300.043000", "182300.046000", "182300.048000", "182300.051000", "182300.054000", "182300.063000", "182339.960000", "182339.963000", "182339.966000", "182339.969000", "182339.971000", "182339.974000", "182339.977000", "182339.980000", "182339.983000", "182339.986000", "182339.989000", "182339.992000", "182339.995000", "182339.997000", "182340.001000", "182340.004000", "182340.007000", "182340.010000", "182340.013000", "182340.016000", "182340.019000", "182340.022000", "182340.024000", "182340.027000", "182340.030000", "182340.033000", "182340.036000", "182359.961000", "182359.964000", "182359.967000", "182359.970000", "182359.973000", "182359.976000", "182359.979000", "182359.982000", "182359.985000", "182359.988000", "182359.991000", "182359.994000", "182359.997000", "182439.960000", "182439.963000", "182439.966000", "182439.969000", "182439.972000", "182439.974000", "182439.977000", "182439.980000", "182439.983000", "182439.986000", "182439.989000", "182439.992000", "182439.994000", "182439.997000", "182440.001000", "182440.004000", "182440.007000", "182440.010000", "182440.013000", "182440.016000", "182440.019000", "182440.021000", "182440.024000", "182440.027000", "182440.030000", "182440.033000", "182440.036000", "182519.960000", "182519.963000", "182519.966000", "182519.969000", "182519.972000", "182519.975000", "182519.977000", "182519.980000", "182519.983000", "182519.986000", "182519.989000", "182519.992000", "182519.995000", "182519.998000", "182520.002000", "182520.004000", "182520.007000", "182520.010000", "182520.013000", "182520.016000", "182520.019000", "182520.022000", "182520.025000", "182520.028000", "182520.030000", "182520.033000", "182520.036000", "182559.960000", "182559.963000", "182559.966000", "182559.969000", "182559.972000", "182559.975000", "182559.978000", "182559.981000", "182559.983000", "182559.986000", "182559.989000", "182559.992000", "182559.995000", "182559.998000", "182600.002000", "182600.005000", "182600.007000", "182600.010000", "182600.013000", "182600.016000", "182600.019000", "182600.022000", "182600.025000", "182600.028000", "182600.030000", "182600.033000", "182600.036000", "182639.960000", "182639.963000", "182639.976000", "182639.979000", "182639.982000", "182639.985000", "182639.988000", "182639.991000", "182639.994000", "182639.997000", "182640.001000", "182640.004000", "182640.007000", "182640.010000", "182640.013000", "182640.015000", "182640.019000", "182640.022000", "182640.025000", "182640.028000", "182640.031000", "182640.034000", "182640.037000", "182640.040000", "182640.042000", "182640.045000", "182640.048000", "182657.348000", "182657.352000", "182657.355000", "182657.358000", "182657.360000", "182657.364000", "182657.367000", "182657.369000", "182657.372000", "182657.375000", "182657.378000", "182657.381000"],
