{
  "AcquisitionMatrixPE": 104,
  "AcquisitionNumber": 1,
  "AcquisitionTime": "16:14:16.070000",
  "BandwidthPerPixelPhaseEncode": 17.17,
  "BaseResolution": 104,
  "BodyPartExamined": "BRAIN",
  "CoilString": "HC1-7;NC1_2",
  "ConsistencyInfo": "N4_VE11C_LATEST_20160120",
  "ConversionSoftware": "dcm2niix",
  "ConversionSoftwareVersion": "v1.0.20190902",
  "DerivedVendorReportedEchoSpacing": 0.000560011,
  "DeviceSerialNumber": "167006",
  "DwellTime": 2.1e-06,
  "EchoTime": 0.037,
  "EchoTrainLength": 104,
  "EffectiveEchoSpacing": 0.000560011,
  "FlipAngle": 52,
  "ImageComments": "Unaliased_MB4_PE3_LB",
  "ImageOrientationPatientDICOM": [0.999992, 0.00135542, 0.0036483, -0.000174553, 0.952073, -0.30587],
  "ImageType": [
    "ORIGINAL",
    "PRIMARY",
    "M",
    "MB",
    "ND",
    "MOSAIC"
],
  "ImagingFrequency": 123.259,
  "InPlanePhaseEncodingDirectionDICOM": "COL",
  "InstitutionAddress": "Chemin_Queen-Mary_4565_Montreal_District_CA_H3W_1W5",
  "InstitutionName": "IUGM",
  "InstitutionalDepartmentName": "Department",
  "MRAcquisitionType": "2D",
  "MagneticFieldStrength": 3,
  "Manufacturer": "Siemens",
  "ManufacturersModelName": "Prisma_fit",
  "Modality": "MR",
  "MultibandAccelerationFactor": 4,
  "PartialFourier": 1,
  "PatientPosition": "HFS",
  "PercentPhaseFOV": 100,
  "PhaseEncodingDirection": "j",
  "PhaseEncodingSteps": 104,
  "PhaseResolution": 1,
  "PixelBandwidth": 2290,
  "ProcedureStepDescription": "video_friends",
  "ProtocolName": "func_task-friends-s03e05b",
  "PulseSequenceDetails": "%CustomerSeq%_cmrr_mbep2d_bold",
  "ReceiveCoilActiveElements": "HC1-7;NC1,2",
  "ReceiveCoilName": "HeadNeck_64",
  "ReconMatrixPE": 104,
  "RepetitionTime": 1.49,
  "SAR": 0.0288382,
  "ScanOptions": "FS",
  "ScanningSequence": "EP",
  "SequenceName": "epfid2d1_104",
  "SequenceVariant": "SK_SS",
  "SeriesDescription": "func_task-friends-s03e05b",
  "SeriesNumber": 22,
  "ShimSetting": [628, -7212, -8837, 688, 25, 10, 33, 23],
  "SliceThickness": 2,
  "SliceTiming": [0, 0.785, 0.0975, 0.8825, 0.1975, 0.98, 0.295, 1.0775, 0.3925, 1.1775, 0.49, 1.275, 0.5875, 1.3725, 0.6875, 0, 0.785, 0.0975, 0.8825, 0.1975, 0.98, 0.295, 1.0775, 0.3925, 1.1775, 0.49, 1.275, 0.5875, 1.3725, 0.6875, 0, 0.785, 0.0975, 0.8825, 0.1975, 0.98, 0.295, 1.0775, 0.3925, 1.1775, 0.49, 1.275, 0.5875, 1.3725, 0.6875, 0, 0.785, 0.0975, 0.8825, 0.1975, 0.98, 0.295, 1.0775, 0.3925, 1.1775, 0.49, 1.275, 0.5875, 1.3725, 0.6875],
  "SoftwareVersions": "syngo_MR_E11",
  "SpacingBetweenSlices": 2,
  "StationName": "MRC35049",
  "TaskName": "s03e05b",
  "TotalReadoutTime": 0.0576811,
  "TxRefAmp": 208.824,
  "WipMemBlock": "5b79ee34-ddf4-4765-9441-3363c34b2897||Sequence: R016 ve11c/master r/e634e98; Dec 19 2017 11:00:25 by eja",
  "dcmmeta_affine": [
    [-1.999984860420227, -0.0003491064708214253, 0.007776068523526192, 104.71770477294922],
    [-0.002710839733481407, 1.904146432876587, -0.6117343902587891, -79.72122192382812],
    [0.007296606432646513, 0.6117402911186218, 1.9041324853897095, -76.18819427490234],
    [0.0, 0.0, 0.0, 1.0]
],
  "dcmmeta_reorient_transform": [
    [0.0, -1.0, 0.0, 103.0],
    [1.0, 0.0, 0.0, 0.0],
    [0.0, 0.0, 1.0, 0.0],
    [0.0, 0.0, 0.0, 1.0]
],
  "dcmmeta_shape": [104, 104, 60, 484],
  "dcmmeta_slice_dim": 2,
  "dcmmeta_version": 0.6,
  "global": {
    "const": {
      "AcquisitionMatrix": [104, 0, 0, 104],
      "AngioFlag": "N",
      "BitsAllocated": 16,
      "BitsStored": 16,
      "BodyPartExamined": "BRAIN",
      "Columns": 832,
      "EchoNumbers": 1,
      "EchoTime": 37.0,
      "EchoTrainLength": 104,
      "FlipAngle": 52.0,
      "HighBit": 15,
      "ImageOrientationPatient": [0.99999242633167, 0.00135541985737, 0.00364830321054, -0.0001745532319, 0.9520732231258, -0.3058701478373],
      "ImagePositionPatient": [-832.54915651612, -810.50191761361, 206.83855886034],
      "ImageType": [
        "ORIGINAL",
        "PRIMARY",
        "M",
        "MB",
        "ND",
        "MOSAIC"
],
      "ImagedNucleus": "1H",
      "ImagingFrequency": 123.259103,
      "InPlanePhaseEncodingDirection": "COL",
      "MRAcquisitionType": "2D",
      "MagneticFieldStrength": 3.0,
      "Manufacturer": "SIEMENS",
      "ManufacturerModelName": "Prisma_fit",
      "Modality": "MR",
      "NumberOfAverages": 1.0,
      "NumberOfPhaseEncodingSteps": 104,
      "PercentPhaseFieldOfView": 100.0,
      "PercentSampling": 100.0,
      "PerformedProcedureStepStartTime": "145533.816000",
      "PhotometricInterpretation": "MONOCHROME2",
      "PixelBandwidth": 2290.0,
      "PixelRepresentation": 0,
      "PixelSpacing": [2.0, 2.0],
      "ProtocolName": "func_task-friends-s03e05b",
      "RepetitionTime": 1490.0,
      "Rows": 832,
      "SAR": 0.02883818756562,
      "SamplesPerPixel": 1,
      "ScanOptions": "FS",
      "ScanningSequence": "EP",
      "SequenceName": "epfid2d1_104",
      "SequenceVariant": [
        "SK",
        "SS"
],
      "SeriesDescription": "func_task-friends-s03e05b",
      "SeriesNumber": 22,
      "SeriesTime": "161546.844000",
      "SliceLocation": -47.74495710071,
      "SliceThickness": 2.0,
      "SmallestImagePixelValue": 0,
      "SoftwareVersions": "syngo MR E11",
      "SpacingBetweenSlices": 2.000000011183,
      "SpecificCharacterSet": "ISO_IR 100",
      "StudyID": "1",
      "StudyTime": "145533.663000",
      "TransmitCoilName": "Body",
      "VariableFlipAngleFlag": "N",
      "WindowCenterWidthExplanation": "Algo1",
      "dBdt": 0.0},
    "slices": {}
  },
  "time": {
    "samples": {
      "AcquisitionNumber": [1, 2, 3, 4, 5, 6, 7, 8, 9, 10, 11, 12, 13, 14, 15, 16, 17, 18, 19, 20, 21, 22, 23, 24, 25, 26, 27, 28, 29, 30, 31, 32, 33, 34, 35, 36, 37, 38, 39, 40, 41, 42, 43, 44, 45, 46, 47, 48, 49, 50, 51, 52, 53, 54, 55, 56, 57, 58, 59, 60, 61, 62, 63, 64, 65, 66, 67, 68, 69, 70, 71, 72, 73, 74, 75, 76, 77, 78, 79, 80, 81, 82, 83, 84, 85, 86, 87, 88, 89, 90, 91, 92, 93, 94, 95, 96, 97, 98, 99, 100, 101, 102, 103, 104, 105, 106, 107, 108, 109, 110, 111, 112, 113, 114, 115, 116, 117, 118, 119, 120, 121, 122, 123, 124, 125, 126, 127, 128, 129, 130, 131, 132, 133, 134, 135, 136, 137, 138, 139, 140, 141, 142, 143, 144, 145, 146, 147, 148, 149, 150, 151, 152, 153, 154, 155, 156, 157, 158, 159, 160, 161, 162, 163, 164, 165, 166, 167, 168, 169, 170, 171, 172, 173, 174, 175, 176, 177, 178, 179, 180, 181, 182, 183, 184, 185, 186, 187, 188, 189, 190, 191, 192, 193, 194, 195, 196, 197, 198, 199, 200, 201, 202, 203, 204, 205, 206, 207, 208, 209, 210, 211, 212, 213, 214, 215, 216, 217, 218, 219, 220, 221, 222, 223, 224, 225, 226, 227, 228, 229, 230, 231, 232, 233, 234, 235, 236, 237, 238, 239, 240, 241, 242, 243, 244, 245, 246, 247, 248, 249, 250, 251, 252, 253, 254, 255, 256, 257, 258, 259, 260, 261, 262, 263, 264, 265, 266, 267, 268, 269, 270, 271, 272, 273, 274, 275, 276, 277, 278, 279, 280, 281, 282, 283, 284, 285, 286, 287, 288, 289, 290, 291, 292, 293, 294, 295, 296, 297, 298, 299, 300, 301, 302, 303, 304, 305, 306, 307, 308, 309, 310, 311, 312, 313, 314, 315, 316, 317, 318, 319, 320, 321, 322, 323, 324, 325, 326, 327, 328, 329, 330, 331, 332, 333, 334, 335, 336, 337, 338, 339, 340, 341, 342, 343, 344, 345, 346, 347, 348, 349, 350, 351, 352, 353, 354, 355, 356, 357, 358, 359, 360, 361, 362, 363, 364, 365, 366, 367, 368, 369, 370, 371, 372, 373, 374, 375, 376, 377, 378, 379, 380, 381, 382, 383, 384, 385, 386, 387, 388, 389, 390, 391, 392, 393, 394, 395, 396, 397, 398, 399, 400, 401, 402, 403, 404, 405, 406, 407, 408, 409, 410, 411, 412, 413, 414, 415, 416, 417, 418, 419, 420, 421, 422, 423, 424, 425, 426, 427, 428, 429, 430, 431, 432, 433, 434, 435, 436, 437, 438, 439, 440, 441, 442, 443, 444, 445, 446, 447, 448, 449, 450, 451, 452, 453, 454, 455, 456, 457, 458, 459, 460, 461, 462, 463, 464, 465, 466, 467, 468, 469, 470, 471, 472, 473, 474, 475, 476, 477, 478, 479, 480, 481, 482, 483, 484],
      "AcquisitionTime": ["161416.070000", "161417.560000", "161419.050000", "161420.540000", "161422.030000", "161423.520000", "161425.010000", "161426.500000", "161427.990000", "161429.480000", "161430.970000", "161432.460000", "161433.950000", "161435.440000", "161436.930000", "161438.420000", "161439.910000", "161441.400000", "161442.890000", "161444.380000", "161445.870000", "161447.360000", "161448.850000", "161450.340000", "161451.830000", "161453.320000", "161454.810000", "161456.300000", "161457.790000", "161459.280000", "161500.770000", "161502.260000", "161503.750000", "161505.240000", "161506.730000", "161508.220000", "161509.710000", "161511.200000", "161512.690000", "161514.180000", "161515.670000", "161517.160000", "161518.650000", "161520.140000", "161521.630000", "161523.120000", "161524.610000", "161526.100000", "161527.590000", "161529.080000", "161530.570000", "161532.060000", "161533.550000", "161535.040000", "161536.530000", "161538.020000", "161539.510000", "161541.000000", "161542.490000", "161543.980000", "161545.470000", "161546.960000", "161548.450000", "161549.940000", "161551.430000", "161552.920000", "161554.410000", "161555.900000", "161557.390000", "161558.880000", "161600.370000", "161601.860000", "161603.350000", "161604.840000", "161606.330000", "161607.820000", "161609.310000", "161610.800000", "161612.290000", "161613.780000", "161615.270000", "161616.760000", "161618.250000", "161619.740000", "161621.230000", "161622.720000", "161624.210000", "161625.700000", "161627.190000", "161628.680000", "161630.170000", "161631.660000", "161633.150000", "161634.640000", "161636.130000", "161637.620000", "161639.110000", "161640.600000", "161642.090000", "161643.580000", "161645.070000", "161646.560000", "161648.050000", "161649.540000", "161651.030000", "161652.520000", "161654.010000", "161655.500000", "161656.990000", "161658.480000", "161659.970000", "161701.460000", "161702.950000", "161704.440000", "161705.930000", "161707.420000", "161708.910000", "161710.400000", "161711.890000", "161713.380000", "161714.870000", "161716.360000", "161717.850000", "161719.340000", "161720.830000", "161722.320000", "161723.810000", "161725.300000", "161726.790000", "161728.280000", "161729.770000", "161731.260000", "161732.750000", "161734.240000", "161735.730000", "161737.220000", "161738.710000", "161740.200000", "161741.690000", "161743.180000", "161744.670000", "161746.160000", "161747.650000", "161749.140000", "161750.630000", "161752.120000", "161753.610000", "161755.100000", "161756.590000", "161758.080000", "161759.570000", "161801.060000", "161802.550000", "161804.040000", "161805.530000", "161807.020000", "161808.510000", "161810.000000", "161811.490000", "161812.980000", "161814.470000", "161815.960000", "161817.450000", "161818.940000", "161820.430000", "161821.920000", "161823.410000", "161824.900000", "161826.390000", "161827.880000", "161829.370000", "161830.860000", "161832.350000", "161833.840000", "161835.330000", "161836.820000", "161838.310000", "161839.800000", "161841.290000", "161842.780000", "161844.270000", "161845.760000", "161847.250000", "161848.740000", "161850.230000", "161851.720000", "161853.210000", "161854.700000", "161856.190000", "161857.680000", "161859.170000", "161900.660000", "161902.150000", "161903.640000", "161905.130000", "161906.620000", "161908.110000", "161909.600000", "161911.090000", "161912.580000", "161914.070000", "161915.560000", "161917.050000", "161918.540000", "161920.030000", "161921.520000", "161923.010000", "161924.500000", "161925.990000", "161927.480000", "161928.970000", "161930.460000", "161931.950000", "161933.440000", "161934.930000", "161936.420000", "161937.910000", "161939.400000", "161940.890000", "161942.380000", "161943.870000", "161945.360000", "161946.850000", "161948.340000", "161949.830000", "161951.320000", "161952.810000", "161954.300000", "161955.790000", "161957.280000", "161958.770000", "162000.260000", "162001.750000", "162003.240000", "162004.730000", "162006.220000", "162007.710000", "162009.200000", "162010.690000", "162012.180000", "162013.670000", "162015.160000", "162016.650000", "162018.140000", "162019.630000", "162021.120000", "162022.610000", "162024.100000", "162025.590000", "162027.080000", "162028.570000", "162030.060000", "162031.550000", "162033.040000", "162034.530000", "162036.020000", "162037.510000", "162039.000000", "162040.490000", "162041.980000", "162043.470000", "162044.960000", "162046.450000", "162047.940000", "162049.430000", "162050.920000", "162052.410000", "162053.900000", "162055.390000", "162056.880000", "162058.370000", "162059.860000", "162101.350000", "162102.840000", "162104.330000", "162105.820000", "162107.310000", "162108.800000", "162110.290000", "162111.780000", "162113.270000", "162114.760000", "162116.250000", "162117.740000", "162119.230000", "162120.720000", "162122.210000", "162123.700000", "162125.190000", "162126.680000", "162128.170000", "162129.660000", "162131.150000", "162132.640000", "162134.130000", "162135.620000", "162137.110000", "162138.600000", "162140.090000", "162141.580000", "162143.070000", "162144.560000", "162146.050000", "162147.540000", "162149.030000", "162150.520000", "162152.010000", "162153.500000", "162154.990000", "162156.480000", "162157.970000", "162159.460000", "162200.950000", "162202.440000", "162203.930000", "162205.420000", "162206.910000", "162208.400000", "162209.890000", "162211.380000", "162212.870000", "162214.360000", "162215.850000", "162217.340000", "162218.830000", "162220.320000", "162221.810000", "162223.300000", "162224.790000", "162226.280000", "162227.770000", "162229.260000", "162230.750000", "162232.240000", "162233.730000", "162235.220000", "162236.710000", "162238.200000", "162239.690000", "162241.180000", "162242.670000", "162244.160000", "162245.650000", "162247.140000", "162248.630000", "162250.120000", "162251.610000", "162253.100000", "162254.590000", "162256.080000", "162257.570000", "162259.060000", "162300.550000", "162302.040000", "162303.530000", "162305.020000", "162306.510000", "162308.000000", "162309.490000", "162310.980000", "162312.470000", "162313.960000", "162315.450000", "162316.940000", "162318.430000", "162319.920000", "162321.410000", "162322.900000", "162324.390000", "162325.880000", "162327.370000", "162328.860000", "162330.350000", "162331.840000", "162333.330000", "162334.820000", "162336.310000", "162337.800000", "162339.290000", "162340.780000", "162342.270000", "162343.760000", "162345.250000", "162346.740000", "162348.230000", "162349.720000", "162351.210000", "162352.700000", "162354.190000", "162355.680000", "162357.170000", "162358.660000", "162400.150000", "162401.640000", "162403.130000", "162404.620000", "162406.110000", "162407.600000", "162409.090000", "162410.580000", "162412.070000", "162413.560000", "162415.050000", "162416.540000", "162418.030000", "162419.520000", "162421.010000", "162422.500000", "162423.990000", "162425.480000", "162426.970000", "162428.460000", "162429.950000", "162431.440000", "162432.930000", "162434.420000", "162435.910000", "162437.400000", "162438.890000", "162440.380000", "162441.870000", "162443.360000", "162444.850000", "162446.340000", "162447.830000", "162449.320000", "162450.810000", "162452.300000", "162453.790000", "162455.280000", "162456.770000", "162458.260000", "162459.750000", "162501.240000", "162502.730000", "162504.220000", "162505.710000", "162507.200000", "162508.690000", "162510.180000", "162511.670000", "162513.160000", "162514.650000", "162516.140000", "162517.630000", "162519.120000", "162520.610000", "162522.100000", "162523.590000", "162525.080000", "162526.570000", "162528.060000", "162529.550000", "162531.040000", "162532.530000", "162534.020000", "162535.510000", "162537.000000", "162538.490000", "162539.980000", "162541.470000", "162542.960000", "162544.450000", "162545.940000", "162547.430000", "162548.920000", "162550.410000", "162551.900000", "162553.390000", "162554.880000", "162556.370000", "162557.860000", "162559.350000", "162600.840000", "162602.330000", "162603.820000", "162605.310000", "162606.800000", "162608.290000", "162609.780000", "162611.270000", "162612.760000", "162614.250000", "162615.740000"],
      "ContentTime": ["161546.847000", "161546.851000", "161546.854000", "161546.856000", "161546.860000", "161546.862000", "161546.865000", "161546.873000", "161546.876000", "161546.879000", "161546.882000", "161546.884000", "161546.887000", "161546.897000", "161546.900000", "161546.903000", "161546.906000", "161546.909000", "161546.912000", "161546.914000", "161546.918000", "161546.920000", "161546.924000", "161546.926000", "161546.930000", "161546.932000", "161606.817000", "161606.820000", "161606.823000", "161606.826000", "161606.829000", "161606.832000", "161606.834000", "161606.837000", "161606.840000", "161606.843000", "161606.846000", "161606.849000", "161606.852000", "161606.855000", "161606.858000", "161606.861000", "161606.863000", "161606.866000", "161606.869000", "161606.872000", "161626.817000", "161626.820000", "161626.823000", "161626.826000", "161626.829000", "161626.831000", "161626.834000", "161626.842000", "161626.845000", "161626.848000", "161626.851000", "161626.854000", "161626.857000", "161626.868000", "161626.871000", "161626.874000", "161626.877000", "161626.880000", "161626.883000", "161626.886000", "161646.817000", "161646.820000", "161646.823000", "161646.826000", "161646.829000", "161646.832000", "161646.835000", "161646.838000", "161646.840000", "161646.843000", "161646.846000", "161646.849000", "161646.852000", "161646.855000", "161646.858000", "161646.861000", "161646.864000", "161646.867000", "161646.869000", "161646.872000", "161706.817000", "161706.820000", "161706.823000", "161706.826000", "161706.829000", "161706.832000", "161706.835000", "161706.838000", "161706.841000", "161706.844000", "161706.847000", "161706.850000", "161706.852000", "161706.855000", "161706.859000", "161706.863000", "161706.867000", "161706.871000", "161706.874000", "161706.877000", "161726.817000", "161726.820000", "161726.823000", "161726.826000", "161726.829000", "161726.832000", "161726.834000", "161726.838000", "161726.840000", "161726.843000", "161726.861000", "161726.865000", "161726.868000", "161726.871000", "161726.873000", "161726.876000", "161726.879000", "161726.882000", "161726.885000", "161726.888000", "161726.891000", "161806.817000", "161806.820000", "161806.823000", "161806.826000", "161806.837000", "161806.840000", "161806.843000", "161806.846000", "161806.849000", "161806.852000", "161806.855000", "161806.857000", "161806.861000", "161806.863000", "161806.866000", "161806.869000", "161806.872000", "161806.875000", "161806.878000", "161806.881000", "161806.884000", "161806.887000", "161806.890000", "161806.893000", "161806.896000", "161806.899000", "161806.902000", "161846.817000", "161846.820000", "161846.823000", "161846.826000", "161846.829000", "161846.832000", "161846.835000", "161846.838000", "161846.841000", "161846.844000", "161846.847000", "161846.850000", "161846.853000", "161846.855000", "161846.858000", "161846.861000", "161846.864000", "161846.867000", "161846.870000", "161846.873000", "161846.876000", "161846.879000", "161846.882000", "161846.885000", "161846.888000", "161846.891000", "161846.894000", "161926.817000", "161926.820000", "161926.823000", "161926.826000", "161926.829000", "161926.832000", "161926.835000", "161926.838000", "161926.841000", "161926.844000", "161926.847000", "161926.850000", "161926.853000", "161926.855000", "161926.859000", "161926.861000", "161926.864000", "161926.867000", "161926.870000", "161926.873000", "161926.876000", "161926.879000", "161926.882000", "161926.885000", "161926.888000", "161926.891000", "161926.894000", "162006.817000", "162006.820000", "162006.823000", "162006.826000", "162006.829000", "162006.832000", "162006.835000", "162006.838000", "162006.841000", "162006.844000", "162006.846000", "162006.851000", "162006.854000", "162006.857000", "162006.860000", "162006.863000", "162006.866000", "162006.869000", "162006.871000", "162006.874000", "162006.877000", "162006.880000", "162006.883000", "162006.886000", "162006.889000", "162006.892000", "162046.817000", "162046.820000", "162046.823000", "162046.826000", "162046.829000", "162046.832000", "162046.835000", "162046.838000", "162046.841000", "162046.844000", "162046.846000", "162046.855000", "162046.858000", "162046.861000", "162046.864000", "162046.867000", "162046.870000", "162046.873000", "162046.876000", "162046.879000", "162046.882000", "162046.885000", "162046.888000", "162046.891000", "162046.893000", "162046.896000", "162046.899000", "162126.817000", "162126.820000", "162126.823000", "162126.826000", "162126.829000", "162126.832000", "162126.835000", "162126.838000", "162126.841000", "162126.844000", "162126.847000", "162126.850000", "162126.853000", "162126.856000", "162126.859000", "162126.861000", "162126.864000", "162126.867000", "162126.870000", "162126.873000", "162126.876000", "162126.879000", "162126.882000", "162126.885000", "162126.888000", "162126.891000", "162126.894000", "162206.817000", "162206.820000", "162206.823000", "162206.826000", "162206.829000", "162206.832000", "162206.835000", "162206.838000", "162206.841000", "162206.844000", "162206.846000", "162206.849000", "162206.852000", "162206.855000", "162206.858000", "162206.861000", "162206.864000", "162206.867000", "162206.870000", "162206.873000", "162206.876000", "162206.879000", "162206.882000", "162206.884000", "162206.887000", "162206.906000", "162206.909000", "162226.818000", "162226.821000", "162226.824000", "162226.827000", "162226.830000", "162226.833000", "162226.836000", "162226.839000", "162226.842000", "162226.845000", "162226.848000", "162226.851000", "162226.854000", "162306.817000", "162306.820000", "162306.823000", "162306.826000", "162306.829000", "162306.832000", "162306.835000", "162306.838000", "162306.841000", "162306.844000", "162306.847000", "162306.850000", "162306.853000", "162306.856000", "162306.859000", "162306.861000", "162306.864000", "162306.867000", "162306.870000", "162306.873000", "162306.876000", "162306.879000", "162306.882000", "162306.885000", "162306.887000", "162306.890000", "162306.893000", "162346.817000", "162346.820000", "162346.823000", "162346.826000", "162346.829000", "162346.832000", "162346.835000", "162346.838000", "162346.841000", "162346.844000", "162346.847000", "162346.849000", "162346.853000", "162346.855000", "162346.858000", "162346.861000", "162346.864000", "162346.867000", "162346.870000", "162346.873000", "162346.876000", "162346.879000", "162346.882000", "162346.885000", "162346.888000", "162346.891000", "162346.893000", "162426.817000", "162426.820000", "162426.823000", "162426.826000", "162426.829000", "162426.832000", "162426.835000", "162426.838000", "162426.841000", "162426.844000", "162426.847000", "162426.850000", "162426.853000", "162426.856000", "162426.858000", "162426.861000", "162426.864000", "162426.867000", "162426.870000", "162426.873000", "162426.876000", "162426.879000", "162426.882000", "162426.885000", "162426.888000", "162426.891000", "162426.894000", "162506.817000", "162506.820000", "162506.823000", "162506.826000", "162506.829000", "162506.832000", "162506.835000", "162506.838000", "162506.841000", "162506.844000", "162506.847000", "162506.850000", "162506.853000", "162506.856000", "162506.859000", "162506.862000", "162506.864000", "162506.867000", "162506.870000", "162506.873000", "162506.876000", "162506.879000", "162506.882000", "162506.885000", "162506.888000", "162506.891000", "162506.894000", "162546.817000", "162546.820000", "162546.823000", "162546.826000", "162546.829000", "162546.832000", "162546.835000", "162546.838000", "162546.841000", "162546.844000", "162546.847000", "162546.850000", "162546.853000", "162546.856000", "162546.859000", "162546.862000", "162546.864000", "162546.868000", "162546.870000", "162546.873000", "162546.876000", "162546.879000", "162546.882000", "162546.885000", "162546.888000", "162546.891000", "162546.894000", "162618.039000", "162618.043000", "162618.046000", "162618.055000", "162618.058000", "162618.061000", "162618.064000", "162618.067000", "162618.070000", "162618.073000", "162618.076000", "162618.079000", "162618.083000", "162618.086000", "162618.089000", "162618.091000", "162618.095000", "162618.097000", "162618.100000", "162618.103000", "162618.126000"],
