{
  "AcquisitionMatrixPE": 104,
  "AcquisitionNumber": 1,
  "AcquisitionTime": "15:43:40.615000",
  "BandwidthPerPixelPhaseEncode": 17.17,
  "BaseResolution": 104,
  "BodyPartExamined": "BRAIN",
  "CoilString": "HC1-7;NC1_2",
  "ConsistencyInfo": "N4_VE11C_LATEST_20160120",
  "ConversionSoftware": "dcm2niix",
  "ConversionSoftwareVersion": "v1.0.20190902",
  "DerivedVendorReportedEchoSpacing": 0.000560011,
  "DeviceSerialNumber": "167006",
  "DwellTime": 2.1e-06,
  "EchoTime": 0.037,
  "EchoTrainLength": 104,
  "EffectiveEchoSpacing": 0.000560011,
  "FlipAngle": 52,
  "ImageComments": "Unaliased_MB4_PE3_LB",
  "ImageOrientationPatientDICOM": [0.999805, -0.017929, -0.00823801, 0.014659, 0.954424, -0.298094],
  "ImageType": [
    "ORIGINAL",
    "PRIMARY",
    "M",
    "MB",
    "ND",
    "MOSAIC"
],
  "ImagingFrequency": 123.259,
  "InPlanePhaseEncodingDirectionDICOM": "COL",
  "InstitutionAddress": "Chemin_Queen-Mary_4565_Montreal_District_CA_H3W_1W5",
  "InstitutionName": "IUGM",
  "InstitutionalDepartmentName": "Department",
  "MRAcquisitionType": "2D",
  "MagneticFieldStrength": 3,
  "Manufacturer": "Siemens",
  "ManufacturersModelName": "Prisma_fit",
  "Modality": "MR",
  "MultibandAccelerationFactor": 4,
  "PartialFourier": 1,
  "PatientPosition": "HFS",
  "PercentPhaseFOV": 100,
  "PhaseEncodingDirection": "j",
  "PhaseEncodingSteps": 104,
  "PhaseResolution": 1,
  "PixelBandwidth": 2290,
  "ProcedureStepDescription": "video_friends",
  "ProtocolName": "func_task-friends-s03e04b",
  "PulseSequenceDetails": "%CustomerSeq%_cmrr_mbep2d_bold",
  "ReceiveCoilActiveElements": "HC1-7;NC1,2",
  "ReceiveCoilName": "HeadNeck_64",
  "ReconMatrixPE": 104,
  "RepetitionTime": 1.49,
  "SAR": 0.0279399,
  "ScanOptions": "FS",
  "ScanningSequence": "EP",
  "SequenceName": "epfid2d1_104",
  "SequenceVariant": "SK_SS",
  "SeriesDescription": "func_task-friends-s03e04b",
  "SeriesNumber": 11,
  "ShimSetting": [622, -7221, -8848, 751, 19, -11, 27, 18],
  "SliceThickness": 2,
  "SliceTiming": [0, 0.7825, 0.0975, 0.8825, 0.195, 0.98, 0.2925, 1.0775, 0.3925, 1.175, 0.49, 1.2725, 0.5875, 1.3725, 0.685, 0, 0.7825, 0.0975, 0.8825, 0.195, 0.98, 0.2925, 1.0775, 0.3925, 1.175, 0.49, 1.2725, 0.5875, 1.3725, 0.685, 0, 0.7825, 0.0975, 0.8825, 0.195, 0.98, 0.2925, 1.0775, 0.3925, 1.175, 0.49, 1.2725, 0.5875, 1.3725, 0.685, 0, 0.7825, 0.0975, 0.8825, 0.195, 0.98, 0.2925, 1.0775, 0.3925, 1.175, 0.49, 1.2725, 0.5875, 1.3725, 0.685],
  "SoftwareVersions": "syngo_MR_E11",
  "SpacingBetweenSlices": 2,
  "StationName": "MRC35049",
  "TaskName": "s03e04b",
  "TotalReadoutTime": 0.0576811,
  "TxRefAmp": 207.024,
  "WipMemBlock": "904a76a7-d9ad-4985-83d0-5b7be2557a0e||Sequence: R016 ve11c/master r/e634e98; Dec 19 2017 11:00:25 by eja",
  "dcmmeta_affine": [
    [-1.9996106624603271, 0.02931799925863743, -0.02641415409743786, 103.73926544189453],
    [0.03585796058177948, 1.9088478088378906, -0.5958306789398193, -82.35154724121094],
    [-0.016476018354296684, 0.5961882472038269, 1.9090018272399902, -75.99803161621094],
    [0.0, 0.0, 0.0, 1.0]
],
  "dcmmeta_reorient_transform": [
    [0.0, -1.0, 0.0, 103.0],
    [1.0, 0.0, 0.0, 0.0],
    [0.0, 0.0, 1.0, 0.0],
    [0.0, 0.0, 0.0, 1.0]
],
  "dcmmeta_shape": [104, 104, 60, 473],
  "dcmmeta_slice_dim": 2,
  "dcmmeta_version": 0.6,
  "global": {
    "const": {
      "AcquisitionMatrix": [104, 0, 0, 104],
      "AngioFlag": "N",
      "BitsAllocated": 16,
      "BitsStored": 16,
      "BodyPartExamined": "BRAIN",
      "Columns": 832,
      "EchoNumbers": 1,
      "EchoTime": 37.0,
      "EchoTrainLength": 104,
      "FlipAngle": 52.0,
      "HighBit": 15,
      "ImageOrientationPatient": [0.99980532447067, -0.0179289809638, -0.0082380095709, 0.01465899979303, 0.95442391617865, -0.2980941159287],
      "ImagePositionPatient": [-845.28904980015, -796.02809540968, 208.41914018324],
      "ImageType": [
        "ORIGINAL",
        "PRIMARY",
        "M",
        "MB",
        "ND",
        "MOSAIC"
],
      "ImagedNucleus": "1H",
      "ImagingFrequency": 123.259103,
      "InPlanePhaseEncodingDirection": "COL",
      "MRAcquisitionType": "2D",
      "MagneticFieldStrength": 3.0,
      "Manufacturer": "SIEMENS",
      "ManufacturerModelName": "Prisma_fit",
      "Modality": "MR",
      "NumberOfAverages": 1.0,
      "NumberOfPhaseEncodingSteps": 104,
      "PercentPhaseFieldOfView": 100.0,
      "PercentSampling": 100.0,
      "PerformedProcedureStepStartTime": "145533.816000",
      "PhotometricInterpretation": "MONOCHROME2",
      "PixelBandwidth": 2290.0,
      "PixelRepresentation": 0,
      "PixelSpacing": [2.0, 2.0],
      "ProtocolName": "func_task-friends-s03e04b",
      "RepetitionTime": 1490.0,
      "Rows": 832,
      "SAR": 0.02793992400053,
      "SamplesPerPixel": 1,
      "ScanOptions": "FS",
      "ScanningSequence": "EP",
      "SequenceName": "epfid2d1_104",
      "SequenceVariant": [
        "SK",
        "SS"
],
      "SeriesDescription": "func_task-friends-s03e04b",
      "SeriesNumber": 11,
      "SeriesTime": "154506.848000",
      "SliceLocation": -49.376501060546,
      "SliceThickness": 2.0,
      "SmallestImagePixelValue": 0,
      "SoftwareVersions": "syngo MR E11",
      "SpacingBetweenSlices": 2.0000000181419,
      "SpecificCharacterSet": "ISO_IR 100",
      "StudyID": "1",
      "StudyTime": "145533.663000",
      "TransmitCoilName": "Body",
      "VariableFlipAngleFlag": "N",
      "WindowCenterWidthExplanation": "Algo1",
      "dBdt": 0.0},
    "slices": {}
  },
  "time": {
    "samples": {
      "AcquisitionNumber": [1, 2, 3, 4, 5, 6, 7, 8, 9, 10, 11, 12, 13, 14, 15, 16, 17, 18, 19, 20, 21, 22, 23, 24, 25, 26, 27, 28, 29, 30, 31, 32, 33, 34, 35, 36, 37, 38, 39, 40, 41, 42, 43, 44, 45, 46, 47, 48, 49, 50, 51, 52, 53, 54, 55, 56, 57, 58, 59, 60, 61, 62, 63, 64, 65, 66, 67, 68, 69, 70, 71, 72, 73, 74, 75, 76, 77, 78, 79, 80, 81, 82, 83, 84, 85, 86, 87, 88, 89, 90, 91, 92, 93, 94, 95, 96, 97, 98, 99, 100, 101, 102, 103, 104, 105, 106, 107, 108, 109, 110, 111, 112, 113, 114, 115, 116, 117, 118, 119, 120, 121, 122, 123, 124, 125, 126, 127, 128, 129, 130, 131, 132, 133, 134, 135, 136, 137, 138, 139, 140, 141, 142, 143, 144, 145, 146, 147, 148, 149, 150, 151, 152, 153, 154, 155, 156, 157, 158, 159, 160, 161, 162, 163, 164, 165, 166, 167, 168, 169, 170, 171, 172, 173, 174, 175, 176, 177, 178, 179, 180, 181, 182, 183, 184, 185, 186, 187, 188, 189, 190, 191, 192, 193, 194, 195, 196, 197, 198, 199, 200, 201, 202, 203, 204, 205, 206, 207, 208, 209, 210, 211, 212, 213, 214, 215, 216, 217, 218, 219, 220, 221, 222, 223, 224, 225, 226, 227, 228, 229, 230, 231, 232, 233, 234, 235, 236, 237, 238, 239, 240, 241, 242, 243, 244, 245, 246, 247, 248, 249, 250, 251, 252, 253, 254, 255, 256, 257, 258, 259, 260, 261, 262, 263, 264, 265, 266, 267, 268, 269, 270, 271, 272, 273, 274, 275, 276, 277, 278, 279, 280, 281, 282, 283, 284, 285, 286, 287, 288, 289, 290, 291, 292, 293, 294, 295, 296, 297, 298, 299, 300, 301, 302, 303, 304, 305, 306, 307, 308, 309, 310, 311, 312, 313, 314, 315, 316, 317, 318, 319, 320, 321, 322, 323, 324, 325, 326, 327, 328, 329, 330, 331, 332, 333, 334, 335, 336, 337, 338, 339, 340, 341, 342, 343, 344, 345, 346, 347, 348, 349, 350, 351, 352, 353, 354, 355, 356, 357, 358, 359, 360, 361, 362, 363, 364, 365, 366, 367, 368, 369, 370, 371, 372, 373, 374, 375, 376, 377, 378, 379, 380, 381, 382, 383, 384, 385, 386, 387, 388, 389, 390, 391, 392, 393, 394, 395, 396, 397, 398, 399, 400, 401, 402, 403, 404, 405, 406, 407, 408, 409, 410, 411, 412, 413, 414, 415, 416, 417, 418, 419, 420, 421, 422, 423, 424, 425, 426, 427, 428, 429, 430, 431, 432, 433, 434, 435, 436, 437, 438, 439, 440, 441, 442, 443, 444, 445, 446, 447, 448, 449, 450, 451, 452, 453, 454, 455, 456, 457, 458, 459, 460, 461, 462, 463, 464, 465, 466, 467, 468, 469, 470, 471, 472, 473],
      "AcquisitionTime": ["154340.615000", "154342.105000", "154343.595000", "154345.085000", "154346.575000", "154348.065000", "154349.555000", "154351.045000", "154352.535000", "154354.025000", "154355.515000", "154357.005000", "154358.495000", "154359.985000", "154401.475000", "154402.965000", "154404.455000", "154405.945000", "154407.435000", "154408.925000", "154410.415000", "154411.905000", "154413.395000", "154414.885000", "154416.375000", "154417.865000", "154419.355000", "154420.845000", "154422.335000", "154423.825000", "154425.315000", "154426.805000", "154428.295000", "154429.785000", "154431.275000", "154432.765000", "154434.255000", "154435.745000", "154437.235000", "154438.725000", "154440.215000", "154441.705000", "154443.195000", "154444.685000", "154446.175000", "154447.665000", "154449.155000", "154450.645000", "154452.135000", "154453.625000", "154455.115000", "154456.605000", "154458.095000", "154459.585000", "154501.075000", "154502.565000", "154504.055000", "154505.545000", "154507.035000", "154508.525000", "154510.015000", "154511.505000", "154512.995000", "154514.485000", "154515.975000", "154517.465000", "154518.955000", "154520.445000", "154521.935000", "154523.425000", "154524.915000", "154526.405000", "154527.895000", "154529.385000", "154530.875000", "154532.365000", "154533.855000", "154535.345000", "154536.835000", "154538.325000", "154539.815000", "154541.305000", "154542.795000", "154544.285000", "154545.775000", "154547.265000", "154548.755000", "154550.245000", "154551.735000", "154553.225000", "154554.715000", "154556.205000", "154557.695000", "154559.185000", "154600.675000", "154602.165000", "154603.655000", "154605.145000", "154606.635000", "154608.125000", "154609.615000", "154611.105000", "154612.595000", "154614.085000", "154615.575000", "154617.065000", "154618.555000", "154620.045000", "154621.535000", "154623.025000", "154624.515000", "154626.005000", "154627.495000", "154628.985000", "154630.475000", "154631.965000", "154633.455000", "154634.945000", "154636.435000", "154637.925000", "154639.415000", "154640.905000", "154642.395000", "154643.885000", "154645.375000", "154646.865000", "154648.355000", "154649.845000", "154651.335000", "154652.825000", "154654.315000", "154655.805000", "154657.295000", "154658.785000", "154700.275000", "154701.765000", "154703.255000", "154704.745000", "154706.235000", "154707.725000", "154709.215000", "154710.705000", "154712.195000", "154713.685000", "154715.175000", "154716.665000", "154718.155000", "154719.645000", "154721.135000", "154722.625000", "154724.115000", "154725.605000", "154727.095000", "154728.585000", "154730.075000", "154731.565000", "154733.055000", "154734.545000", "154736.035000", "154737.525000", "154739.015000", "154740.505000", "154741.995000", "154743.485000", "154744.975000", "154746.465000", "154747.955000", "154749.445000", "154750.935000", "154752.425000", "154753.915000", "154755.405000", "154756.895000", "154758.385000", "154759.875000", "154801.365000", "154802.855000", "154804.345000", "154805.835000", "154807.325000", "154808.815000", "154810.305000", "154811.795000", "154813.285000", "154814.775000", "154816.265000", "154817.755000", "154819.245000", "154820.735000", "154822.225000", "154823.715000", "154825.205000", "154826.695000", "154828.185000", "154829.675000", "154831.165000", "154832.655000", "154834.145000", "154835.635000", "154837.125000", "154838.615000", "154840.105000", "154841.595000", "154843.085000", "154844.575000", "154846.065000", "154847.555000", "154849.045000", "154850.535000", "154852.025000", "154853.515000", "154855.005000", "154856.495000", "154857.985000", "154859.475000", "154900.965000", "154902.455000", "154903.945000", "154905.435000", "154906.925000", "154908.415000", "154909.905000", "154911.395000", "154912.885000", "154914.375000", "154915.865000", "154917.355000", "154918.845000", "154920.335000", "154921.825000", "154923.315000", "154924.805000", "154926.295000", "154927.785000", "154929.275000", "154930.765000", "154932.255000", "154933.745000", "154935.235000", "154936.725000", "154938.215000", "154939.705000", "154941.195000", "154942.685000", "154944.175000", "154945.665000", "154947.155000", "154948.645000", "154950.135000", "154951.625000", "154953.115000", "154954.605000", "154956.095000", "154957.585000", "154959.075000", "155000.565000", "155002.055000", "155003.545000", "155005.035000", "155006.525000", "155008.015000", "155009.505000", "155010.995000", "155012.485000", "155013.975000", "155015.465000", "155016.955000", "155018.445000", "155019.935000", "155021.425000", "155022.915000", "155024.405000", "155025.895000", "155027.385000", "155028.875000", "155030.365000", "155031.855000", "155033.345000", "155034.835000", "155036.325000", "155037.815000", "155039.305000", "155040.795000", "155042.285000", "155043.775000", "155045.265000", "155046.755000", "155048.245000", "155049.735000", "155051.225000", "155052.715000", "155054.205000", "155055.695000", "155057.185000", "155058.675000", "155100.165000", "155101.655000", "155103.145000", "155104.635000", "155106.125000", "155107.615000", "155109.105000", "155110.595000", "155112.085000", "155113.575000", "155115.065000", "155116.555000", "155118.045000", "155119.535000", "155121.025000", "155122.515000", "155124.005000", "155125.495000", "155126.985000", "155128.475000", "155129.965000", "155131.455000", "155132.945000", "155134.435000", "155135.925000", "155137.415000", "155138.905000", "155140.395000", "155141.885000", "155143.375000", "155144.865000", "155146.355000", "155147.845000", "155149.335000", "155150.825000", "155152.315000", "155153.805000", "155155.295000", "155156.785000", "155158.275000", "155159.765000", "155201.255000", "155202.745000", "155204.235000", "155205.725000", "155207.215000", "155208.705000", "155210.195000", "155211.685000", "155213.175000", "155214.665000", "155216.155000", "155217.645000", "155219.135000", "155220.625000", "155222.115000", "155223.605000", "155225.095000", "155226.585000", "155228.075000", "155229.565000", "155231.055000", "155232.545000", "155234.035000", "155235.525000", "155237.015000", "155238.505000", "155239.995000", "155241.485000", "155242.975000", "155244.465000", "155245.955000", "155247.445000", "155248.935000", "155250.425000", "155251.915000", "155253.405000", "155254.895000", "155256.385000", "155257.875000", "155259.365000", "155300.855000", "155302.345000", "155303.835000", "155305.325000", "155306.815000", "155308.305000", "155309.795000", "155311.285000", "155312.775000", "155314.265000", "155315.755000", "155317.245000", "155318.735000", "155320.225000", "155321.715000", "155323.205000", "155324.695000", "155326.185000", "155327.675000", "155329.165000", "155330.655000", "155332.145000", "155333.635000", "155335.125000", "155336.615000", "155338.105000", "155339.595000", "155341.085000", "155342.575000", "155344.065000", "155345.555000", "155347.045000", "155348.535000", "155350.025000", "155351.515000", "155353.005000", "155354.495000", "155355.985000", "155357.475000", "155358.965000", "155400.455000", "155401.945000", "155403.435000", "155404.925000", "155406.415000", "155407.905000", "155409.395000", "155410.885000", "155412.375000", "155413.865000", "155415.355000", "155416.845000", "155418.335000", "155419.825000", "155421.315000", "155422.805000", "155424.295000", "155425.785000", "155427.275000", "155428.765000", "155430.255000", "155431.745000", "155433.235000", "155434.725000", "155436.215000", "155437.705000", "155439.195000", "155440.685000", "155442.175000", "155443.665000", "155445.155000", "155446.645000", "155448.135000", "155449.625000", "155451.115000", "155452.605000", "155454.095000", "155455.585000", "155457.075000", "155458.565000", "155500.055000", "155501.545000", "155503.035000", "155504.525000", "155506.015000", "155507.505000", "155508.995000", "155510.485000", "155511.975000", "155513.465000", "155514.955000", "155516.445000", "155517.935000", "155519.425000", "155520.915000", "155522.405000", "155523.895000"],
      "ContentTime": ["154506.851000", "154506.863000", "154506.866000", "154506.869000", "154506.872000", "154506.875000", "154506.878000", "154506.881000", "154506.884000", "154506.887000", "154506.890000", "154506.893000", "154506.896000", "154506.899000", "154506.902000", "154506.904000", "154506.907000", "154506.910000", "154506.913000", "154506.916000", "154506.922000", "154506.925000", "154506.928000", "154506.931000", "154506.934000", "154506.937000", "154506.939000", "154506.942000", "154506.945000", "154506.948000", "154506.951000", "154506.954000", "154526.817000", "154526.820000", "154526.823000", "154526.826000", "154526.829000", "154526.832000", "154526.835000", "154526.837000", "154526.840000", "154526.843000", "154526.846000", "154526.849000", "154526.852000", "154526.855000", "154526.858000", "154526.861000", "154526.864000", "154526.867000", "154526.870000", "154526.872000", "154546.817000", "154546.820000", "154546.823000", "154546.826000", "154546.829000", "154546.832000", "154546.834000", "154546.837000", "154546.840000", "154546.843000", "154546.846000", "154546.849000", "154546.852000", "154546.855000", "154546.857000", "154546.860000", "154546.863000", "154546.866000", "154546.869000", "154546.872000", "154606.817000", "154606.820000", "154606.823000", "154606.826000", "154606.828000", "154606.831000", "154606.839000", "154606.842000", "154606.845000", "154606.848000", "154606.851000", "154606.854000", "154606.857000", "154606.860000", "154606.863000", "154606.865000", "154606.869000", "154606.871000", "154606.874000", "154606.877000", "154646.817000", "154646.820000", "154646.823000", "154646.826000", "154646.829000", "154646.832000", "154646.835000", "154646.838000", "154646.841000", "154646.843000", "154646.846000", "154646.849000", "154646.852000", "154646.855000", "154646.858000", "154646.861000", "154646.864000", "154646.867000", "154646.870000", "154646.873000", "154646.876000", "154646.879000", "154646.881000", "154646.884000", "154646.887000", "154646.890000", "154646.893000", "154646.896000", "154646.899000", "154646.902000", "154646.905000", "154646.908000", "154726.817000", "154726.820000", "154726.823000", "154726.826000", "154726.829000", "154726.831000", "154726.834000", "154726.837000", "154726.840000", "154726.843000", "154726.846000", "154726.849000", "154726.851000", "154726.854000", "154726.869000", "154726.872000", "154726.875000", "154726.878000", "154726.894000", "154726.897000", "154726.900000", "154726.903000", "154726.906000", "154726.909000", "154726.912000", "154726.915000", "154726.918000", "154806.817000", "154806.820000", "154806.823000", "154806.826000", "154806.829000", "154806.832000", "154806.835000", "154806.838000", "154806.840000", "154806.843000", "154806.846000", "154806.849000", "154806.852000", "154806.855000", "154806.858000", "154806.861000", "154806.864000", "154806.867000", "154806.870000", "154806.873000", "154806.876000", "154806.879000", "154806.881000", "154806.884000", "154806.887000", "154806.890000", "154806.893000", "154846.817000", "154846.858000", "154846.861000", "154846.864000", "154846.867000", "154846.870000", "154846.873000", "154846.876000", "154846.879000", "154846.881000", "154846.884000", "154846.887000", "154846.890000", "154846.893000", "154846.896000", "154846.899000", "154846.902000", "154846.905000", "154846.907000", "154846.910000", "154846.913000", "154846.916000", "154846.919000", "154846.922000", "154846.925000", "154846.928000", "154846.930000", "154926.817000", "154926.820000", "154926.823000", "154926.826000", "154926.829000", "154926.832000", "154926.835000", "154926.838000", "154926.841000", "154926.843000", "154926.846000", "154926.849000", "154926.852000", "154926.855000", "154926.858000", "154926.861000", "154926.864000", "154926.867000", "154926.869000", "154926.872000", "154926.875000", "154926.878000", "154926.881000", "154926.884000", "154926.887000", "154926.890000", "154926.893000", "155006.817000", "155006.820000", "155006.823000", "155006.826000", "155006.829000", "155006.832000", "155006.835000", "155006.838000", "155006.841000", "155006.844000", "155006.854000", "155006.856000", "155006.859000", "155006.863000", "155006.866000", "155006.868000", "155006.871000", "155006.874000", "155006.877000", "155006.880000", "155006.883000", "155006.886000", "155006.889000", "155006.891000", "155006.894000", "155006.897000", "155046.817000", "155046.820000", "155046.823000", "155046.826000", "155046.829000", "155046.832000", "155046.835000", "155046.838000", "155046.841000", "155046.844000", "155046.846000", "155046.849000", "155046.852000", "155046.855000", "155046.858000", "155046.861000", "155046.864000", "155046.867000", "155046.870000", "155046.873000", "155046.876000", "155046.879000", "155046.882000", "155046.885000", "155046.888000", "155046.891000", "155046.893000", "155126.817000", "155126.820000", "155126.823000", "155126.826000", "155126.829000", "155126.832000", "155126.835000", "155126.838000", "155126.841000", "155126.844000", "155126.847000", "155126.850000", "155126.853000", "155126.855000", "155126.858000", "155126.861000", "155126.864000", "155126.867000", "155126.870000", "155126.873000", "155126.876000", "155126.879000", "155126.882000", "155126.885000", "155126.888000", "155126.891000", "155126.894000", "155206.817000", "155206.872000", "155206.875000", "155206.878000", "155206.881000", "155206.883000", "155206.887000", "155206.889000", "155206.892000", "155206.902000", "155206.905000", "155206.908000", "155206.911000", "155206.913000", "155206.917000", "155206.919000", "155206.922000", "155206.925000", "155206.928000", "155206.931000", "155206.934000", "155206.937000", "155206.940000", "155206.943000", "155206.946000", "155206.948000", "155206.951000", "155226.831000", "155226.834000", "155226.837000", "155226.840000", "155226.843000", "155226.846000", "155226.849000", "155226.851000", "155226.854000", "155226.857000", "155226.860000", "155226.863000", "155226.867000", "155306.817000", "155306.820000", "155306.823000", "155306.826000", "155306.829000", "155306.832000", "155306.835000", "155306.838000", "155306.841000", "155306.844000", "155306.847000", "155306.850000", "155306.853000", "155306.855000", "155306.859000", "155306.861000", "155306.864000", "155306.867000", "155306.870000", "155306.873000", "155306.876000", "155306.879000", "155306.882000", "155306.885000", "155306.888000", "155306.891000", "155306.894000", "155346.817000", "155346.879000", "155346.882000", "155346.885000", "155346.888000", "155346.891000", "155346.894000", "155346.897000", "155346.900000", "155346.903000", "155346.906000", "155346.909000", "155346.912000", "155346.915000", "155346.918000", "155346.921000", "155346.924000", "155346.927000", "155346.930000", "155346.933000", "155346.935000", "155346.939000", "155346.941000", "155346.944000", "155346.947000", "155346.950000", "155346.953000", "155426.817000", "155426.820000", "155426.823000", "155426.826000", "155426.829000", "155426.832000", "155426.835000", "155426.838000", "155426.841000", "155426.844000", "155426.847000", "155426.849000", "155426.853000", "155426.855000", "155426.858000", "155426.861000", "155426.864000", "155426.867000", "155426.870000", "155426.873000", "155426.876000", "155426.879000", "155426.882000", "155426.885000", "155426.891000", "155426.894000", "155426.897000", "155506.817000", "155506.820000", "155506.823000", "155506.826000", "155506.829000", "155506.832000", "155506.834000", "155506.838000", "155506.841000", "155506.843000", "155506.846000", "155506.849000", "155506.852000", "155506.855000", "155506.858000", "155506.861000", "155506.864000", "155506.867000", "155506.870000", "155506.873000", "155506.876000", "155506.879000", "155506.881000", "155506.884000", "155506.887000", "155506.890000", "155506.893000", "155525.845000", "155525.848000", "155525.851000", "155525.854000", "155525.857000", "155525.860000", "155525.863000", "155525.866000", "155525.869000", "155525.872000", "155525.875000", "155525.878000", "155525.881000"],
