{
  "AcquisitionMatrixPE": 104,
  "AcquisitionNumber": 1,
  "AcquisitionTime": "15:31:18.657500",
  "BandwidthPerPixelPhaseEncode": 17.17,
  "BaseResolution": 104,
  "BodyPartExamined": "BRAIN",
  "CoilString": "HC1-7;NC1_2",
  "ConsistencyInfo": "N4_VE11C_LATEST_20160120",
  "ConversionSoftware": "dcm2niix",
  "ConversionSoftwareVersion": "v1.0.20190902",
  "DerivedVendorReportedEchoSpacing": 0.000560011,
  "DeviceSerialNumber": "167006",
  "DwellTime": 2.1e-06,
  "EchoTime": 0.037,
  "EchoTrainLength": 104,
  "EffectiveEchoSpacing": 0.000560011,
  "FlipAngle": 52,
  "ImageComments": "Unaliased_MB4_PE3_LB",
  "ImageOrientationPatientDICOM": [0.999805, -0.017929, -0.00823801, 0.014659, 0.954424, -0.298094],
  "ImageType": [
    "ORIGINAL",
    "PRIMARY",
    "M",
    "MB",
    "ND",
    "MOSAIC"
],
  "ImagingFrequency": 123.259,
  "InPlanePhaseEncodingDirectionDICOM": "COL",
  "InstitutionAddress": "Chemin_Queen-Mary_4565_Montreal_District_CA_H3W_1W5",
  "InstitutionName": "IUGM",
  "InstitutionalDepartmentName": "Department",
  "MRAcquisitionType": "2D",
  "MagneticFieldStrength": 3,
  "Manufacturer": "Siemens",
  "ManufacturersModelName": "Prisma_fit",
  "Modality": "MR",
  "MultibandAccelerationFactor": 4,
  "PartialFourier": 1,
  "PatientPosition": "HFS",
  "PercentPhaseFOV": 100,
  "PhaseEncodingDirection": "j",
  "PhaseEncodingSteps": 104,
  "PhaseResolution": 1,
  "PixelBandwidth": 2290,
  "ProcedureStepDescription": "video_friends",
  "ProtocolName": "func_task-friends-s03e04a",
  "PulseSequenceDetails": "%CustomerSeq%_cmrr_mbep2d_bold",
  "ReceiveCoilActiveElements": "HC1-7;NC1,2",
  "ReceiveCoilName": "HeadNeck_64",
  "ReconMatrixPE": 104,
  "RepetitionTime": 1.49,
  "SAR": 0.0279399,
  "ScanOptions": "FS",
  "ScanningSequence": "EP",
  "SequenceName": "epfid2d1_104",
  "SequenceVariant": "SK_SS",
  "SeriesDescription": "func_task-friends-s03e04a",
  "SeriesNumber": 9,
  "ShimSetting": [622, -7221, -8848, 751, 19, -11, 27, 18],
  "SliceThickness": 2,
  "SliceTiming": [0, 0.785, 0.0975, 0.8825, 0.1975, 0.98, 0.295, 1.0775, 0.3925, 1.1775, 0.49, 1.275, 0.5875, 1.3725, 0.6875, 0, 0.785, 0.0975, 0.8825, 0.1975, 0.98, 0.295, 1.0775, 0.3925, 1.1775, 0.49, 1.275, 0.5875, 1.3725, 0.6875, 0, 0.785, 0.0975, 0.8825, 0.1975, 0.98, 0.295, 1.0775, 0.3925, 1.1775, 0.49, 1.275, 0.5875, 1.3725, 0.6875, 0, 0.785, 0.0975, 0.8825, 0.1975, 0.98, 0.295, 1.0775, 0.3925, 1.1775, 0.49, 1.275, 0.5875, 1.3725, 0.6875],
  "SoftwareVersions": "syngo_MR_E11",
  "SpacingBetweenSlices": 2,
  "StationName": "MRC35049",
  "TaskName": "s03e04a",
  "TotalReadoutTime": 0.0576811,
  "TxRefAmp": 207.024,
  "WipMemBlock": "b4a44fb7-7f6f-43e8-a2f1-9fdfed87f837||Sequence: R016 ve11c/master r/e634e98; Dec 19 2017 11:00:25 by eja",
  "dcmmeta_affine": [
    [-1.9996106624603271, 0.02931799925863743, -0.02641415409743786, 103.73926544189453],
    [0.03585796058177948, 1.9088478088378906, -0.5958306789398193, -82.35154724121094],
    [-0.016476018354296684, 0.5961882472038269, 1.9090018272399902, -75.99803161621094],
    [0.0, 0.0, 0.0, 1.0]
],
  "dcmmeta_reorient_transform": [
    [0.0, -1.0, 0.0, 103.0],
    [1.0, 0.0, 0.0, 0.0],
    [0.0, 0.0, 1.0, 0.0],
    [0.0, 0.0, 0.0, 1.0]
],
  "dcmmeta_shape": [104, 104, 60, 473],
  "dcmmeta_slice_dim": 2,
  "dcmmeta_version": 0.6,
  "global": {
    "const": {
      "AcquisitionMatrix": [104, 0, 0, 104],
      "AngioFlag": "N",
      "BitsAllocated": 16,
      "BitsStored": 16,
      "BodyPartExamined": "BRAIN",
      "Columns": 832,
      "EchoNumbers": 1,
      "EchoTime": 37.0,
      "EchoTrainLength": 104,
      "FlipAngle": 52.0,
      "HighBit": 15,
      "ImageOrientationPatient": [0.99980532447067, -0.0179289809638, -0.0082380095709, 0.01465899979303, 0.95442391617865, -0.2980941159287],
      "ImagePositionPatient": [-845.28904980015, -796.02809540968, 208.41914018324],
      "ImageType": [
        "ORIGINAL",
        "PRIMARY",
        "M",
        "MB",
        "ND",
        "MOSAIC"
],
      "ImagedNucleus": "1H",
      "ImagingFrequency": 123.259092,
      "InPlanePhaseEncodingDirection": "COL",
      "MRAcquisitionType": "2D",
      "MagneticFieldStrength": 3.0,
      "Manufacturer": "SIEMENS",
      "ManufacturerModelName": "Prisma_fit",
      "Modality": "MR",
      "NumberOfAverages": 1.0,
      "NumberOfPhaseEncodingSteps": 104,
      "PercentPhaseFieldOfView": 100.0,
      "PercentSampling": 100.0,
      "PerformedProcedureStepStartTime": "145533.816000",
      "PhotometricInterpretation": "MONOCHROME2",
      "PixelBandwidth": 2290.0,
      "PixelRepresentation": 0,
      "PixelSpacing": [2.0, 2.0],
      "ProtocolName": "func_task-friends-s03e04a",
      "RepetitionTime": 1490.0,
      "Rows": 832,
      "SAR": 0.02793992400053,
      "SamplesPerPixel": 1,
      "ScanOptions": "FS",
      "ScanningSequence": "EP",
      "SequenceName": "epfid2d1_104",
      "SequenceVariant": [
        "SK",
        "SS"
],
      "SeriesDescription": "func_task-friends-s03e04a",
      "SeriesNumber": 9,
      "SeriesTime": "153241.356000",
      "SliceLocation": -49.376501060546,
      "SliceThickness": 2.0,
      "SmallestImagePixelValue": 0,
      "SoftwareVersions": "syngo MR E11",
      "SpacingBetweenSlices": 2.0000000181419,
      "SpecificCharacterSet": "ISO_IR 100",
      "StudyID": "1",
      "StudyTime": "145533.663000",
      "TransmitCoilName": "Body",
      "VariableFlipAngleFlag": "N",
      "WindowCenterWidthExplanation": "Algo1",
      "dBdt": 0.0},
    "slices": {}
  },
  "time": {
    "samples": {
      "AcquisitionNumber": [1, 2, 3, 4, 5, 6, 7, 8, 9, 10, 11, 12, 13, 14, 15, 16, 17, 18, 19, 20, 21, 22, 23, 24, 25, 26, 27, 28, 29, 30, 31, 32, 33, 34, 35, 36, 37, 38, 39, 40, 41, 42, 43, 44, 45, 46, 47, 48, 49, 50, 51, 52, 53, 54, 55, 56, 57, 58, 59, 60, 61, 62, 63, 64, 65, 66, 67, 68, 69, 70, 71, 72, 73, 74, 75, 76, 77, 78, 79, 80, 81, 82, 83, 84, 85, 86, 87, 88, 89, 90, 91, 92, 93, 94, 95, 96, 97, 98, 99, 100, 101, 102, 103, 104, 105, 106, 107, 108, 109, 110, 111, 112, 113, 114, 115, 116, 117, 118, 119, 120, 121, 122, 123, 124, 125, 126, 127, 128, 129, 130, 131, 132, 133, 134, 135, 136, 137, 138, 139, 140, 141, 142, 143, 144, 145, 146, 147, 148, 149, 150, 151, 152, 153, 154, 155, 156, 157, 158, 159, 160, 161, 162, 163, 164, 165, 166, 167, 168, 169, 170, 171, 172, 173, 174, 175, 176, 177, 178, 179, 180, 181, 182, 183, 184, 185, 186, 187, 188, 189, 190, 191, 192, 193, 194, 195, 196, 197, 198, 199, 200, 201, 202, 203, 204, 205, 206, 207, 208, 209, 210, 211, 212, 213, 214, 215, 216, 217, 218, 219, 220, 221, 222, 223, 224, 225, 226, 227, 228, 229, 230, 231, 232, 233, 234, 235, 236, 237, 238, 239, 240, 241, 242, 243, 244, 245, 246, 247, 248, 249, 250, 251, 252, 253, 254, 255, 256, 257, 258, 259, 260, 261, 262, 263, 264, 265, 266, 267, 268, 269, 270, 271, 272, 273, 274, 275, 276, 277, 278, 279, 280, 281, 282, 283, 284, 285, 286, 287, 288, 289, 290, 291, 292, 293, 294, 295, 296, 297, 298, 299, 300, 301, 302, 303, 304, 305, 306, 307, 308, 309, 310, 311, 312, 313, 314, 315, 316, 317, 318, 319, 320, 321, 322, 323, 324, 325, 326, 327, 328, 329, 330, 331, 332, 333, 334, 335, 336, 337, 338, 339, 340, 341, 342, 343, 344, 345, 346, 347, 348, 349, 350, 351, 352, 353, 354, 355, 356, 357, 358, 359, 360, 361, 362, 363, 364, 365, 366, 367, 368, 369, 370, 371, 372, 373, 374, 375, 376, 377, 378, 379, 380, 381, 382, 383, 384, 385, 386, 387, 388, 389, 390, 391, 392, 393, 394, 395, 396, 397, 398, 399, 400, 401, 402, 403, 404, 405, 406, 407, 408, 409, 410, 411, 412, 413, 414, 415, 416, 417, 418, 419, 420, 421, 422, 423, 424, 425, 426, 427, 428, 429, 430, 431, 432, 433, 434, 435, 436, 437, 438, 439, 440, 441, 442, 443, 444, 445, 446, 447, 448, 449, 450, 451, 452, 453, 454, 455, 456, 457, 458, 459, 460, 461, 462, 463, 464, 465, 466, 467, 468, 469, 470, 471, 472, 473],
      "AcquisitionTime": ["153118.657500", "153120.147500", "153121.637500", "153123.127500", "153124.617500", "153126.107500", "153127.597500", "153129.087500", "153130.577500", "153132.067500", "153133.557500", "153135.047500", "153136.537500", "153138.027500", "153139.517500", "153141.007500", "153142.497500", "153143.987500", "153145.477500", "153146.967500", "153148.457500", "153149.947500", "153151.437500", "153152.927500", "153154.417500", "153155.907500", "153157.397500", "153158.887500", "153200.377500", "153201.867500", "153203.357500", "153204.847500", "153206.337500", "153207.827500", "153209.317500", "153210.807500", "153212.297500", "153213.787500", "153215.277500", "153216.767500", "153218.257500", "153219.747500", "153221.237500", "153222.727500", "153224.217500", "153225.707500", "153227.197500", "153228.687500", "153230.177500", "153231.667500", "153233.157500", "153234.647500", "153236.137500", "153237.627500", "153239.117500", "153240.607500", "153242.097500", "153243.587500", "153245.077500", "153246.567500", "153248.057500", "153249.547500", "153251.037500", "153252.527500", "153254.017500", "153255.507500", "153256.997500", "153258.487500", "153259.977500", "153301.467500", "153302.957500", "153304.447500", "153305.937500", "153307.427500", "153308.917500", "153310.407500", "153311.897500", "153313.387500", "153314.877500", "153316.367500", "153317.857500", "153319.347500", "153320.837500", "153322.327500", "153323.817500", "153325.307500", "153326.797500", "153328.287500", "153329.777500", "153331.267500", "153332.757500", "153334.247500", "153335.737500", "153337.227500", "153338.717500", "153340.207500", "153341.697500", "153343.187500", "153344.677500", "153346.167500", "153347.657500", "153349.147500", "153350.637500", "153352.127500", "153353.617500", "153355.107500", "153356.597500", "153358.087500", "153359.577500", "153401.067500", "153402.557500", "153404.047500", "153405.537500", "153407.027500", "153408.517500", "153410.007500", "153411.497500", "153412.987500", "153414.477500", "153415.967500", "153417.457500", "153418.947500", "153420.437500", "153421.927500", "153423.417500", "153424.907500", "153426.397500", "153427.887500", "153429.377500", "153430.867500", "153432.357500", "153433.847500", "153435.337500", "153436.827500", "153438.317500", "153439.807500", "153441.297500", "153442.787500", "153444.277500", "153445.767500", "153447.257500", "153448.747500", "153450.237500", "153451.727500", "153453.217500", "153454.707500", "153456.197500", "153457.687500", "153459.177500", "153500.667500", "153502.157500", "153503.647500", "153505.137500", "153506.627500", "153508.117500", "153509.607500", "153511.097500", "153512.587500", "153514.077500", "153515.567500", "153517.057500", "153518.547500", "153520.037500", "153521.527500", "153523.017500", "153524.507500", "153525.997500", "153527.487500", "153528.977500", "153530.467500", "153531.957500", "153533.447500", "153534.937500", "153536.427500", "153537.917500", "153539.407500", "153540.897500", "153542.387500", "153543.877500", "153545.367500", "153546.857500", "153548.347500", "153549.837500", "153551.327500", "153552.817500", "153554.307500", "153555.797500", "153557.287500", "153558.777500", "153600.267500", "153601.757500", "153603.247500", "153604.737500", "153606.227500", "153607.717500", "153609.207500", "153610.697500", "153612.187500", "153613.677500", "153615.167500", "153616.657500", "153618.147500", "153619.637500", "153621.127500", "153622.617500", "153624.107500", "153625.597500", "153627.087500", "153628.577500", "153630.067500", "153631.557500", "153633.047500", "153634.537500", "153636.027500", "153637.517500", "153639.007500", "153640.497500", "153641.987500", "153643.477500", "153644.967500", "153646.457500", "153647.947500", "153649.437500", "153650.927500", "153652.417500", "153653.907500", "153655.397500", "153656.887500", "153658.377500", "153659.867500", "153701.357500", "153702.847500", "153704.337500", "153705.827500", "153707.317500", "153708.807500", "153710.297500", "153711.787500", "153713.277500", "153714.767500", "153716.257500", "153717.747500", "153719.237500", "153720.727500", "153722.217500", "153723.707500", "153725.197500", "153726.687500", "153728.177500", "153729.667500", "153731.157500", "153732.647500", "153734.137500", "153735.627500", "153737.117500", "153738.607500", "153740.097500", "153741.587500", "153743.077500", "153744.567500", "153746.057500", "153747.547500", "153749.037500", "153750.527500", "153752.017500", "153753.507500", "153754.997500", "153756.487500", "153757.977500", "153759.467500", "153800.957500", "153802.447500", "153803.937500", "153805.427500", "153806.917500", "153808.407500", "153809.897500", "153811.387500", "153812.877500", "153814.367500", "153815.857500", "153817.347500", "153818.837500", "153820.327500", "153821.817500", "153823.307500", "153824.797500", "153826.287500", "153827.777500", "153829.267500", "153830.757500", "153832.247500", "153833.737500", "153835.227500", "153836.717500", "153838.207500", "153839.697500", "153841.187500", "153842.677500", "153844.167500", "153845.657500", "153847.147500", "153848.637500", "153850.127500", "153851.617500", "153853.107500", "153854.597500", "153856.087500", "153857.577500", "153859.067500", "153900.557500", "153902.047500", "153903.537500", "153905.027500", "153906.517500", "153908.007500", "153909.497500", "153910.987500", "153912.477500", "153913.967500", "153915.457500", "153916.947500", "153918.437500", "153919.927500", "153921.417500", "153922.907500", "153924.397500", "153925.887500", "153927.377500", "153928.867500", "153930.357500", "153931.847500", "153933.337500", "153934.827500", "153936.317500", "153937.807500", "153939.297500", "153940.787500", "153942.277500", "153943.767500", "153945.257500", "153946.747500", "153948.237500", "153949.727500", "153951.217500", "153952.707500", "153954.197500", "153955.687500", "153957.177500", "153958.667500", "154000.157500", "154001.647500", "154003.137500", "154004.627500", "154006.117500", "154007.607500", "154009.097500", "154010.587500", "154012.077500", "154013.567500", "154015.057500", "154016.547500", "154018.037500", "154019.527500", "154021.017500", "154022.507500", "154023.997500", "154025.487500", "154026.977500", "154028.467500", "154029.957500", "154031.447500", "154032.937500", "154034.427500", "154035.917500", "154037.407500", "154038.897500", "154040.387500", "154041.877500", "154043.367500", "154044.857500", "154046.347500", "154047.837500", "154049.327500", "154050.817500", "154052.307500", "154053.797500", "154055.287500", "154056.777500", "154058.267500", "154059.757500", "154101.247500", "154102.737500", "154104.227500", "154105.717500", "154107.207500", "154108.697500", "154110.187500", "154111.677500", "154113.167500", "154114.657500", "154116.147500", "154117.637500", "154119.127500", "154120.617500", "154122.107500", "154123.597500", "154125.087500", "154126.577500", "154128.067500", "154129.557500", "154131.047500", "154132.537500", "154134.027500", "154135.517500", "154137.007500", "154138.497500", "154139.987500", "154141.477500", "154142.967500", "154144.457500", "154145.947500", "154147.437500", "154148.927500", "154150.417500", "154151.907500", "154153.397500", "154154.887500", "154156.377500", "154157.867500", "154159.357500", "154200.847500", "154202.337500", "154203.827500", "154205.317500", "154206.807500", "154208.297500", "154209.787500", "154211.277500", "154212.767500", "154214.257500", "154215.747500", "154217.237500", "154218.727500", "154220.217500", "154221.707500", "154223.197500", "154224.687500", "154226.177500", "154227.667500", "154229.157500", "154230.647500", "154232.137500", "154233.627500", "154235.117500", "154236.607500", "154238.097500", "154239.587500", "154241.077500", "154242.567500", "154244.057500", "154245.547500", "154247.037500", "154248.527500", "154250.017500", "154251.507500", "154252.997500", "154254.487500", "154255.977500", "154257.467500", "154258.957500", "154300.447500", "154301.937500"],
      "ContentTime": ["153241.359000", "153241.369000", "153241.372000", "153241.375000", "153241.378000", "153241.381000", "153241.384000", "153241.386000", "153241.389000", "153241.392000", "153241.395000", "153241.398000", "153241.401000", "153241.404000", "153241.407000", "153241.410000", "153241.413000", "153241.420000", "153241.423000", "153241.425000", "153241.429000", "153241.431000", "153241.434000", "153241.437000", "153241.440000", "153301.309000", "153301.312000", "153301.315000", "153301.318000", "153301.321000", "153301.323000", "153301.335000", "153301.338000", "153301.341000", "153301.344000", "153301.347000", "153301.350000", "153301.353000", "153301.365000", "153301.368000", "153301.371000", "153301.374000", "153301.377000", "153301.380000", "153301.382000", "153321.309000", "153321.312000", "153321.315000", "153321.318000", "153321.321000", "153321.324000", "153321.327000", "153321.330000", "153321.333000", "153321.336000", "153321.339000", "153321.341000", "153321.344000", "153321.347000", "153321.350000", "153321.353000", "153321.356000", "153321.359000", "153321.361000", "153321.377000", "153341.309000", "153341.312000", "153341.315000", "153341.317000", "153341.320000", "153341.324000", "153341.328000", "153341.332000", "153341.336000", "153341.340000", "153341.343000", "153341.346000", "153341.349000", "153341.353000", "153341.356000", "153341.359000", "153341.362000", "153341.365000", "153341.368000", "153341.371000", "153401.309000", "153401.312000", "153401.315000", "153401.318000", "153401.321000", "153401.324000", "153401.327000", "153401.331000", "153401.334000", "153401.337000", "153401.340000", "153401.343000", "153401.346000", "153401.349000", "153401.352000", "153401.355000", "153401.358000", "153401.361000", "153401.364000", "153401.367000", "153441.309000", "153441.312000", "153441.315000", "153441.318000", "153441.321000", "153441.324000", "153441.327000", "153441.330000", "153441.333000", "153441.335000", "153441.338000", "153441.341000", "153441.344000", "153441.347000", "153441.350000", "153441.353000", "153441.356000", "153441.359000", "153441.362000", "153441.365000", "153441.367000", "153441.370000", "153441.373000", "153441.376000", "153441.379000", "153441.382000", "153441.385000", "153441.388000", "153441.391000", "153441.394000", "153521.309000", "153521.312000", "153521.315000", "153521.318000", "153521.321000", "153521.324000", "153521.327000", "153521.330000", "153521.333000", "153521.336000", "153521.339000", "153521.342000", "153521.345000", "153521.347000", "153521.351000", "153521.353000", "153521.356000", "153521.359000", "153521.362000", "153521.365000", "153521.368000", "153521.371000", "153521.374000", "153521.377000", "153521.380000", "153521.382000", "153521.386000", "153601.309000", "153601.312000", "153601.315000", "153601.319000", "153601.322000", "153601.326000", "153601.329000", "153601.332000", "153601.335000", "153601.338000", "153601.341000", "153601.344000", "153601.347000", "153601.350000", "153601.353000", "153601.356000", "153601.359000", "153601.362000", "153601.365000", "153601.368000", "153601.371000", "153601.374000", "153601.377000", "153601.380000", "153601.383000", "153601.386000", "153641.308000", "153641.311000", "153641.314000", "153641.317000", "153641.320000", "153641.323000", "153641.325000", "153641.329000", "153641.332000", "153641.335000", "153641.337000", "153641.341000", "153641.343000", "153641.346000", "153641.349000", "153641.352000", "153641.355000", "153641.358000", "153641.361000", "153641.364000", "153641.367000", "153641.370000", "153641.373000", "153641.376000", "153641.378000", "153641.381000", "153641.384000", "153721.309000", "153721.313000", "153721.316000", "153721.319000", "153721.322000", "153721.324000", "153721.328000", "153721.331000", "153721.334000", "153721.336000", "153721.340000", "153721.342000", "153721.345000", "153721.348000", "153721.351000", "153721.354000", "153721.357000", "153721.360000", "153721.363000", "153721.366000", "153721.369000", "153721.372000", "153721.375000", "153721.377000", "153721.380000", "153721.383000", "153721.386000", "153801.309000", "153801.312000", "153801.315000", "153801.318000", "153801.321000", "153801.324000", "153801.327000", "153801.330000", "153801.333000", "153801.336000", "153801.339000", "153801.342000", "153801.344000", "153801.348000", "153801.351000", "153801.354000", "153801.356000", "153801.360000", "153801.371000", "153801.374000", "153801.377000", "153801.380000", "153801.383000", "153801.386000", "153801.388000", "153801.391000", "153801.394000", "153841.309000", "153841.312000", "153841.315000", "153841.318000", "153841.321000", "153841.324000", "153841.327000", "153841.330000", "153841.333000", "153841.336000", "153841.339000", "153841.341000", "153841.344000", "153841.347000", "153841.350000", "153841.353000", "153841.356000", "153841.359000", "153841.362000", "153841.365000", "153841.368000", "153841.371000", "153841.374000", "153841.377000", "153841.380000", "153841.382000", "153841.385000", "153921.309000", "153921.312000", "153921.315000", "153921.318000", "153921.321000", "153921.324000", "153921.327000", "153921.330000", "153921.333000", "153921.336000", "153921.339000", "153921.342000", "153921.346000", "153921.349000", "153921.351000", "153921.355000", "153921.357000", "153921.360000", "153921.363000", "153921.366000", "153921.369000", "153921.372000", "153921.375000", "153921.378000", "153921.381000", "153921.384000", "153921.387000", "154001.309000", "154001.312000", "154001.315000", "154001.318000", "154001.321000", "154001.324000", "154001.327000", "154001.330000", "154001.333000", "154001.336000", "154001.339000", "154001.342000", "154001.344000", "154001.347000", "154001.351000", "154001.353000", "154001.356000", "154001.359000", "154001.362000", "154001.365000", "154001.368000", "154001.372000", "154001.375000", "154001.379000", "154001.382000", "154001.386000", "154001.390000", "154041.309000", "154041.312000", "154041.315000", "154041.318000", "154041.321000", "154041.324000", "154041.327000", "154041.330000", "154041.333000", "154041.336000", "154041.338000", "154041.341000", "154041.344000", "154041.347000", "154041.350000", "154041.353000", "154041.356000", "154041.359000", "154041.362000", "154041.365000", "154041.368000", "154041.371000", "154041.374000", "154041.377000", "154041.379000", "154041.382000", "154121.308000", "154121.312000", "154121.316000", "154121.320000", "154121.323000", "154121.326000", "154121.329000", "154121.332000", "154121.335000", "154121.339000", "154121.342000", "154121.346000", "154121.349000", "154121.352000", "154121.355000", "154121.361000", "154121.364000", "154121.367000", "154121.370000", "154121.373000", "154121.376000", "154121.379000", "154121.383000", "154121.386000", "154121.389000", "154121.391000", "154121.394000", "154201.309000", "154201.312000", "154201.315000", "154201.318000", "154201.321000", "154201.324000", "154201.327000", "154201.330000", "154201.333000", "154201.336000", "154201.339000", "154201.342000", "154201.345000", "154201.348000", "154201.351000", "154201.354000", "154201.357000", "154201.360000", "154201.363000", "154201.366000", "154201.369000", "154201.371000", "154201.374000", "154201.377000", "154201.380000", "154201.383000", "154201.386000", "154241.309000", "154241.312000", "154241.315000", "154241.318000", "154241.321000", "154241.324000", "154241.327000", "154241.330000", "154241.333000", "154241.336000", "154241.339000", "154241.342000", "154241.345000", "154241.348000", "154241.359000", "154241.362000", "154241.365000", "154241.368000", "154241.371000", "154241.374000", "154241.377000", "154241.380000", "154241.382000", "154241.385000", "154241.388000", "154241.391000", "154241.394000", "154304.520000", "154304.523000", "154304.526000", "154304.529000", "154304.532000", "154304.535000", "154304.538000", "154304.541000", "154304.544000", "154304.547000", "154304.551000", "154304.554000", "154304.557000", "154304.560000", "154304.563000", "154304.566000"],
