{
  "AcquisitionMatrixPE": 104,
  "AcquisitionNumber": 1,
  "AcquisitionTime": "17:52:53.442500",
  "BandwidthPerPixelPhaseEncode": 17.17,
  "BaseResolution": 104,
  "BodyPartExamined": "BRAIN",
  "CoilString": "HC1-7;NC1_2",
  "ConsistencyInfo": "N4_VE11C_LATEST_20160120",
  "ConversionSoftware": "dcm2niix",
  "ConversionSoftwareVersion": "v1.0.20190902",
  "DerivedVendorReportedEchoSpacing": 0.000560011,
  "DeviceSerialNumber": "167006",
  "DwellTime": 2.1e-06,
  "EchoTime": 0.037,
  "EchoTrainLength": 104,
  "EffectiveEchoSpacing": 0.000560011,
  "FlipAngle": 52,
  "ImageComments": "Unaliased_MB4_PE3_LB",
  "ImageOrientationPatientDICOM": [0.999657, 0.0165361, -0.0203167, -0.0209398, 0.970432, -0.240465],
  "ImageType": [
    "ORIGINAL",
    "PRIMARY",
    "M",
    "MB",
    "ND",
    "MOSAIC"
],
  "ImagingFrequency": 123.259,
  "InPlanePhaseEncodingDirectionDICOM": "COL",
  "InstitutionAddress": "Chemin_Queen-Mary_4565_Montreal_District_CA_H3W_1W5",
  "InstitutionName": "IUGM",
  "InstitutionalDepartmentName": "Department",
  "MRAcquisitionType": "2D",
  "MagneticFieldStrength": 3,
  "Manufacturer": "Siemens",
  "ManufacturersModelName": "Prisma_fit",
  "Modality": "MR",
  "MultibandAccelerationFactor": 4,
  "PartialFourier": 1,
  "PatientPosition": "HFS",
  "PercentPhaseFOV": 100,
  "PhaseEncodingDirection": "j",
  "PhaseEncodingSteps": 104,
  "PhaseResolution": 1,
  "PixelBandwidth": 2290,
  "ProcedureStepDescription": "video_friends",
  "ProtocolName": "func_task-friends-s04e08b",
  "PulseSequenceDetails": "%CustomerSeq%_cmrr_mbep2d_bold",
  "ReceiveCoilActiveElements": "HC1-7;NC1,2",
  "ReceiveCoilName": "HeadNeck_64",
  "ReconMatrixPE": 104,
  "RepetitionTime": 1.49,
  "SAR": 0.0306046,
  "ScanOptions": "FS",
  "ScanningSequence": "EP",
  "SequenceName": "epfid2d1_104",
  "SequenceVariant": "SK_SS",
  "SeriesDescription": "func_task-friends-s04e08b",
  "SeriesNumber": 11,
  "ShimSetting": [626, -7231, -8753, 714, 39, -38, 82, -8],
  "SliceThickness": 2,
  "SliceTiming": [0, 0.785, 0.0975, 0.8825, 0.195, 0.98, 0.295, 1.0775, 0.3925, 1.175, 0.49, 1.275, 0.5875, 1.3725, 0.685, 0, 0.785, 0.0975, 0.8825, 0.195, 0.98, 0.295, 1.0775, 0.3925, 1.175, 0.49, 1.275, 0.5875, 1.3725, 0.685, 0, 0.785, 0.0975, 0.8825, 0.195, 0.98, 0.295, 1.0775, 0.3925, 1.175, 0.49, 1.275, 0.5875, 1.3725, 0.685, 0, 0.785, 0.0975, 0.8825, 0.195, 0.98, 0.295, 1.0775, 0.3925, 1.175, 0.49, 1.275, 0.5875, 1.3725, 0.685],
  "SoftwareVersions": "syngo_MR_E11",
  "SpacingBetweenSlices": 2,
  "StationName": "MRC35049",
  "TaskName": "s04e08b",
  "TotalReadoutTime": 0.0576811,
  "TxRefAmp": 208.288,
  "WipMemBlock": "cb9607c4-65ea-445c-a4f2-bee9e7bb5b9d||Sequence: R016 ve11c/master r/e634e98; Dec 19 2017 11:00:25 by eja",
  "dcmmeta_affine": [
    [-1.9993137121200562, -0.04187965393066406, -0.03147916868329048, 107.78938293457031],
    [-0.03307227045297623, 1.940863847732544, -0.48161572217941284, -83.58580780029297],
    [-0.04063333943486214, 0.4809299111366272, 1.9408903121948242, -47.35089111328125],
    [0.0, 0.0, 0.0, 1.0]
],
  "dcmmeta_reorient_transform": [
    [0.0, -1.0, 0.0, 103.0],
    [1.0, 0.0, 0.0, 0.0],
    [0.0, 0.0, 1.0, 0.0],
    [0.0, 0.0, 0.0, 1.0]
],
  "dcmmeta_shape": [104, 104, 60, 503],
  "dcmmeta_slice_dim": 2,
  "dcmmeta_version": 0.6,
  "global": {
    "const": {
      "AcquisitionMatrix": [104, 0, 0, 104],
      "AngioFlag": "N",
      "BitsAllocated": 16,
      "BitsStored": 16,
      "BodyPartExamined": "BRAIN",
      "Columns": 832,
      "EchoNumbers": 1,
      "EchoTime": 37.0,
      "EchoTrainLength": 104,
      "FlipAngle": 52.0,
      "HighBit": 15,
      "ImageOrientationPatient": [0.99965683570624, 0.01653613498268, -0.020316669649, -0.0209398261902, 0.97043192967739, -0.2404649528346],
      "ImagePositionPatient": [-815.98176388194, -834.83592043591, 192.03390853917],
      "ImageType": [
        "ORIGINAL",
        "PRIMARY",
        "M",
        "MB",
        "ND",
        "MOSAIC"
],
      "ImagedNucleus": "1H",
      "ImagingFrequency": 123.259073,
      "InPlanePhaseEncodingDirection": "COL",
      "MRAcquisitionType": "2D",
      "MagneticFieldStrength": 3.0,
      "Manufacturer": "SIEMENS",
      "ManufacturerModelName": "Prisma_fit",
      "Modality": "MR",
      "NumberOfAverages": 1.0,
      "NumberOfPhaseEncodingSteps": 104,
      "PercentPhaseFieldOfView": 100.0,
      "PercentSampling": 100.0,
      "PerformedProcedureStepStartTime": "171335.190000",
      "PhotometricInterpretation": "MONOCHROME2",
      "PixelBandwidth": 2290.0,
      "PixelRepresentation": 0,
      "PixelSpacing": [2.0, 2.0],
      "ProtocolName": "func_task-friends-s04e08b",
      "RepetitionTime": 1490.0,
      "Rows": 832,
      "SAR": 0.03060465008006,
      "SamplesPerPixel": 1,
      "ScanOptions": "FS",
      "ScanningSequence": "EP",
      "SequenceName": "epfid2d1_104",
      "SequenceVariant": [
        "SK",
        "SS"
],
      "SeriesDescription": "func_task-friends-s04e08b",
      "SeriesNumber": 11,
      "SeriesTime": "175424.273000",
      "SliceLocation": -27.519885981898,
      "SliceThickness": 2.0,
      "SmallestImagePixelValue": 0,
      "SoftwareVersions": "syngo MR E11",
      "SpacingBetweenSlices": 1.9999999473215,
      "SpecificCharacterSet": "ISO_IR 100",
      "StudyID": "1",
      "StudyTime": "171335.122000",
      "TransmitCoilName": "Body",
      "VariableFlipAngleFlag": "N",
      "WindowCenterWidthExplanation": "Algo1",
      "dBdt": 0.0},
    "slices": {}
  },
  "time": {
    "samples": {
      "AcquisitionNumber": [1, 2, 3, 4, 5, 6, 7, 8, 9, 10, 11, 12, 13, 14, 15, 16, 17, 18, 19, 20, 21, 22, 23, 24, 25, 26, 27, 28, 29, 30, 31, 32, 33, 34, 35, 36, 37, 38, 39, 40, 41, 42, 43, 44, 45, 46, 47, 48, 49, 50, 51, 52, 53, 54, 55, 56, 57, 58, 59, 60, 61, 62, 63, 64, 65, 66, 67, 68, 69, 70, 71, 72, 73, 74, 75, 76, 77, 78, 79, 80, 81, 82, 83, 84, 85, 86, 87, 88, 89, 90, 91, 92, 93, 94, 95, 96, 97, 98, 99, 100, 101, 102, 103, 104, 105, 106, 107, 108, 109, 110, 111, 112, 113, 114, 115, 116, 117, 118, 119, 120, 121, 122, 123, 124, 125, 126, 127, 128, 129, 130, 131, 132, 133, 134, 135, 136, 137, 138, 139, 140, 141, 142, 143, 144, 145, 146, 147, 148, 149, 150, 151, 152, 153, 154, 155, 156, 157, 158, 159, 160, 161, 162, 163, 164, 165, 166, 167, 168, 169, 170, 171, 172, 173, 174, 175, 176, 177, 178, 179, 180, 181, 182, 183, 184, 185, 186, 187, 188, 189, 190, 191, 192, 193, 194, 195, 196, 197, 198, 199, 200, 201, 202, 203, 204, 205, 206, 207, 208, 209, 210, 211, 212, 213, 214, 215, 216, 217, 218, 219, 220, 221, 222, 223, 224, 225, 226, 227, 228, 229, 230, 231, 232, 233, 234, 235, 236, 237, 238, 239, 240, 241, 242, 243, 244, 245, 246, 247, 248, 249, 250, 251, 252, 253, 254, 255, 256, 257, 258, 259, 260, 261, 262, 263, 264, 265, 266, 267, 268, 269, 270, 271, 272, 273, 274, 275, 276, 277, 278, 279, 280, 281, 282, 283, 284, 285, 286, 287, 288, 289, 290, 291, 292, 293, 294, 295, 296, 297, 298, 299, 300, 301, 302, 303, 304, 305, 306, 307, 308, 309, 310, 311, 312, 313, 314, 315, 316, 317, 318, 319, 320, 321, 322, 323, 324, 325, 326, 327, 328, 329, 330, 331, 332, 333, 334, 335, 336, 337, 338, 339, 340, 341, 342, 343, 344, 345, 346, 347, 348, 349, 350, 351, 352, 353, 354, 355, 356, 357, 358, 359, 360, 361, 362, 363, 364, 365, 366, 367, 368, 369, 370, 371, 372, 373, 374, 375, 376, 377, 378, 379, 380, 381, 382, 383, 384, 385, 386, 387, 388, 389, 390, 391, 392, 393, 394, 395, 396, 397, 398, 399, 400, 401, 402, 403, 404, 405, 406, 407, 408, 409, 410, 411, 412, 413, 414, 415, 416, 417, 418, 419, 420, 421, 422, 423, 424, 425, 426, 427, 428, 429, 430, 431, 432, 433, 434, 435, 436, 437, 438, 439, 440, 441, 442, 443, 444, 445, 446, 447, 448, 449, 450, 451, 452, 453, 454, 455, 456, 457, 458, 459, 460, 461, 462, 463, 464, 465, 466, 467, 468, 469, 470, 471, 472, 473, 474, 475, 476, 477, 478, 479, 480, 481, 482, 483, 484, 485, 486, 487, 488, 489, 490, 491, 492, 493, 494, 495, 496, 497, 498, 499, 500, 501, 502, 503],
      "AcquisitionTime": ["175253.442500", "175254.932500", "175256.422500", "175257.912500", "175259.402500", "175300.892500", "175302.382500", "175303.872500", "175305.362500", "175306.852500", "175308.342500", "175309.832500", "175311.322500", "175312.812500", "175314.302500", "175315.792500", "175317.282500", "175318.772500", "175320.262500", "175321.752500", "175323.242500", "175324.732500", "175326.222500", "175327.712500", "175329.202500", "175330.692500", "175332.182500", "175333.672500", "175335.162500", "175336.652500", "175338.142500", "175339.632500", "175341.122500", "175342.612500", "175344.102500", "175345.592500", "175347.082500", "175348.572500", "175350.062500", "175351.552500", "175353.042500", "175354.532500", "175356.022500", "175357.512500", "175359.002500", "175400.492500", "175401.982500", "175403.472500", "175404.962500", "175406.452500", "175407.942500", "175409.432500", "175410.922500", "175412.412500", "175413.902500", "175415.392500", "175416.882500", "175418.372500", "175419.862500", "175421.352500", "175422.842500", "175424.332500", "175425.822500", "175427.312500", "175428.802500", "175430.292500", "175431.782500", "175433.272500", "175434.762500", "175436.252500", "175437.742500", "175439.232500", "175440.722500", "175442.212500", "175443.702500", "175445.192500", "175446.682500", "175448.172500", "175449.662500", "175451.152500", "175452.642500", "175454.132500", "175455.622500", "175457.112500", "175458.602500", "175500.092500", "175501.582500", "175503.072500", "175504.562500", "175506.052500", "175507.542500", "175509.032500", "175510.522500", "175512.012500", "175513.502500", "175514.992500", "175516.482500", "175517.972500", "175519.462500", "175520.952500", "175522.442500", "175523.932500", "175525.422500", "175526.912500", "175528.402500", "175529.892500", "175531.382500", "175532.872500", "175534.362500", "175535.852500", "175537.342500", "175538.832500", "175540.322500", "175541.812500", "175543.302500", "175544.792500", "175546.282500", "175547.772500", "175549.262500", "175550.752500", "175552.242500", "175553.732500", "175555.222500", "175556.712500", "175558.202500", "175559.692500", "175601.182500", "175602.672500", "175604.162500", "175605.652500", "175607.142500", "175608.632500", "175610.122500", "175611.612500", "175613.102500", "175614.592500", "175616.082500", "175617.572500", "175619.062500", "175620.552500", "175622.042500", "175623.532500", "175625.022500", "175626.512500", "175628.002500", "175629.492500", "175630.982500", "175632.472500", "175633.962500", "175635.452500", "175636.942500", "175638.432500", "175639.922500", "175641.412500", "175642.902500", "175644.392500", "175645.882500", "175647.372500", "175648.862500", "175650.352500", "175651.842500", "175653.332500", "175654.822500", "175656.312500", "175657.802500", "175659.292500", "175700.782500", "175702.272500", "175703.762500", "175705.252500", "175706.742500", "175708.232500", "175709.722500", "175711.212500", "175712.702500", "175714.192500", "175715.682500", "175717.172500", "175718.662500", "175720.152500", "175721.642500", "175723.132500", "175724.622500", "175726.112500", "175727.602500", "175729.092500", "175730.582500", "175732.072500", "175733.562500", "175735.052500", "175736.542500", "175738.032500", "175739.522500", "175741.012500", "175742.502500", "175743.992500", "175745.482500", "175746.972500", "175748.462500", "175749.952500", "175751.442500", "175752.932500", "175754.422500", "175755.912500", "175757.402500", "175758.892500", "175800.382500", "175801.872500", "175803.362500", "175804.852500", "175806.342500", "175807.832500", "175809.322500", "175810.812500", "175812.302500", "175813.792500", "175815.282500", "175816.772500", "175818.262500", "175819.752500", "175821.242500", "175822.732500", "175824.222500", "175825.712500", "175827.202500", "175828.692500", "175830.182500", "175831.672500", "175833.162500", "175834.652500", "175836.142500", "175837.632500", "175839.122500", "175840.612500", "175842.102500", "175843.592500", "175845.082500", "175846.572500", "175848.062500", "175849.552500", "175851.042500", "175852.532500", "175854.022500", "175855.512500", "175857.002500", "175858.492500", "175859.982500", "175901.472500", "175902.962500", "175904.452500", "175905.942500", "175907.432500", "175908.922500", "175910.412500", "175911.902500", "175913.392500", "175914.882500", "175916.372500", "175917.862500", "175919.352500", "175920.842500", "175922.332500", "175923.822500", "175925.312500", "175926.802500", "175928.292500", "175929.782500", "175931.272500", "175932.762500", "175934.252500", "175935.742500", "175937.232500", "175938.722500", "175940.212500", "175941.702500", "175943.192500", "175944.682500", "175946.172500", "175947.662500", "175949.152500", "175950.642500", "175952.132500", "175953.622500", "175955.112500", "175956.602500", "175958.092500", "175959.582500", "180001.072500", "180002.562500", "180004.052500", "180005.542500", "180007.032500", "180008.522500", "180010.012500", "180011.502500", "180012.992500", "180014.482500", "180015.972500", "180017.462500", "180018.952500", "180020.442500", "180021.932500", "180023.422500", "180024.912500", "180026.402500", "180027.892500", "180029.382500", "180030.872500", "180032.362500", "180033.852500", "180035.342500", "180036.832500", "180038.322500", "180039.812500", "180041.302500", "180042.792500", "180044.282500", "180045.772500", "180047.262500", "180048.752500", "180050.242500", "180051.732500", "180053.222500", "180054.712500", "180056.202500", "180057.692500", "180059.182500", "180100.672500", "180102.162500", "180103.652500", "180105.142500", "180106.632500", "180108.122500", "180109.612500", "180111.102500", "180112.592500", "180114.082500", "180115.572500", "180117.062500", "180118.552500", "180120.042500", "180121.532500", "180123.022500", "180124.512500", "180126.002500", "180127.492500", "180128.982500", "180130.472500", "180131.962500", "180133.452500", "180134.942500", "180136.432500", "180137.922500", "180139.412500", "180140.902500", "180142.392500", "180143.882500", "180145.372500", "180146.862500", "180148.352500", "180149.842500", "180151.332500", "180152.822500", "180154.312500", "180155.802500", "180157.292500", "180158.782500", "180200.272500", "180201.762500", "180203.252500", "180204.742500", "180206.232500", "180207.722500", "180209.212500", "180210.702500", "180212.192500", "180213.682500", "180215.172500", "180216.662500", "180218.152500", "180219.642500", "180221.132500", "180222.622500", "180224.112500", "180225.602500", "180227.092500", "180228.582500", "180230.072500", "180231.562500", "180233.052500", "180234.542500", "180236.032500", "180237.522500", "180239.012500", "180240.502500", "180241.992500", "180243.482500", "180244.972500", "180246.462500", "180247.952500", "180249.442500", "180250.932500", "180252.422500", "180253.912500", "180255.402500", "180256.892500", "180258.382500", "180259.872500", "180301.362500", "180302.852500", "180304.342500", "180305.832500", "180307.322500", "180308.812500", "180310.302500", "180311.792500", "180313.282500", "180314.772500", "180316.262500", "180317.752500", "180319.242500", "180320.732500", "180322.222500", "180323.712500", "180325.202500", "180326.692500", "180328.182500", "180329.672500", "180331.162500", "180332.652500", "180334.142500", "180335.632500", "180337.122500", "180338.612500", "180340.102500", "180341.592500", "180343.082500", "180344.572500", "180346.062500", "180347.552500", "180349.042500", "180350.532500", "180352.022500", "180353.512500", "180355.002500", "180356.492500", "180357.982500", "180359.472500", "180400.962500", "180402.452500", "180403.942500", "180405.432500", "180406.922500", "180408.412500", "180409.902500", "180411.392500", "180412.882500", "180414.372500", "180415.862500", "180417.352500", "180418.842500", "180420.332500", "180421.822500", "180423.312500", "180424.802500", "180426.292500", "180427.782500", "180429.272500", "180430.762500", "180432.252500", "180433.742500", "180435.232500", "180436.722500", "180438.212500", "180439.702500", "180441.192500", "180442.682500", "180444.172500", "180445.662500", "180447.152500", "180448.642500", "180450.132500", "180451.622500", "180453.112500", "180454.602500", "180456.092500", "180457.582500", "180459.072500", "180500.562500", "180502.052500", "180503.542500", "180505.032500", "180506.522500", "180508.012500", "180509.502500", "180510.992500", "180512.482500", "180513.972500", "180515.462500", "180516.952500", "180518.442500", "180519.932500", "180521.422500"],
      "ContentTime": ["175424.276000", "175424.279000", "175424.282000", "175424.285000", "175424.288000", "175424.291000", "175424.294000", "175424.296000", "175424.299000", "175424.302000", "175424.305000", "175424.308000", "175424.310000", "175424.313000", "175424.316000", "175424.319000", "175424.322000", "175424.324000", "175424.327000", "175424.330000", "175424.333000", "175424.336000", "175424.339000", "175424.341000", "175424.344000", "175424.347000", "175424.350000", "175424.353000", "175424.362000", "175424.364000", "175424.367000", "175424.370000", "175424.373000", "175424.376000", "175424.378000", "175424.381000", "175424.384000", "175424.387000", "175424.390000", "175444.245000", "175444.248000", "175444.251000", "175444.254000", "175444.256000", "175444.259000", "175444.262000", "175444.265000", "175444.268000", "175444.270000", "175444.273000", "175444.276000", "175444.279000", "175444.282000", "175444.284000", "175444.287000", "175444.290000", "175444.293000", "175444.296000", "175444.298000", "175504.245000", "175504.248000", "175504.251000", "175504.253000", "175504.256000", "175504.259000", "175504.262000", "175504.265000", "175504.267000", "175504.270000", "175504.274000", "175504.277000", "175504.279000", "175504.282000", "175504.285000", "175504.288000", "175504.291000", "175504.293000", "175504.296000", "175504.299000", "175524.245000", "175524.248000", "175524.251000", "175524.253000", "175524.256000", "175524.259000", "175524.262000", "175524.264000", "175524.267000", "175524.270000", "175524.273000", "175524.276000", "175524.279000", "175524.281000", "175524.284000", "175524.287000", "175524.290000", "175524.293000", "175524.295000", "175524.298000", "175524.301000", "175604.245000", "175604.248000", "175604.251000", "175604.254000", "175604.256000", "175604.259000", "175604.262000", "175604.265000", "175604.268000", "175604.271000", "175604.274000", "175604.277000", "175604.280000", "175604.282000", "175604.285000", "175604.288000", "175604.291000", "175604.294000", "175604.296000", "175604.299000", "175604.302000", "175604.306000", "175604.309000", "175604.312000", "175604.315000", "175604.318000", "175604.320000", "175644.245000", "175644.248000", "175644.251000", "175644.253000", "175644.256000", "175644.259000", "175644.262000", "175644.265000", "175644.268000", "175644.271000", "175644.274000", "175644.276000", "175644.279000", "175644.282000", "175644.285000", "175644.288000", "175644.290000", "175644.293000", "175644.296000", "175644.299000", "175644.302000", "175644.304000", "175644.307000", "175644.310000", "175644.313000", "175644.316000", "175644.318000", "175724.245000", "175724.248000", "175724.251000", "175724.254000", "175724.257000", "175724.260000", "175724.270000", "175724.273000", "175724.275000", "175724.278000", "175724.281000", "175724.284000", "175724.287000", "175724.289000", "175724.292000", "175724.295000", "175724.298000", "175724.301000", "175724.303000", "175724.306000", "175724.309000", "175724.312000", "175724.315000", "175724.318000", "175724.320000", "175724.323000", "175724.326000", "175804.245000", "175804.248000", "175804.251000", "175804.254000", "175804.256000", "175804.259000", "175804.262000", "175804.265000", "175804.268000", "175804.271000", "175804.273000", "175804.276000", "175804.279000", "175804.282000", "175804.285000", "175804.287000", "175804.290000", "175804.293000", "175804.296000", "175804.299000", "175804.302000", "175804.304000", "175804.307000", "175804.310000", "175804.313000", "175804.315000", "175804.318000", "175844.245000", "175844.248000", "175844.251000", "175844.253000", "175844.256000", "175844.259000", "175844.262000", "175844.265000", "175844.268000", "175844.270000", "175844.273000", "175844.276000", "175844.279000", "175844.282000", "175844.284000", "175844.287000", "175844.290000", "175844.293000", "175844.296000", "175844.299000", "175844.301000", "175844.304000", "175844.307000", "175844.310000", "175844.313000", "175844.315000", "175844.318000", "175924.245000", "175924.248000", "175924.251000", "175924.254000", "175924.257000", "175924.260000", "175924.263000", "175924.266000", "175924.269000", "175924.272000", "175924.274000", "175924.277000", "175924.280000", "175924.283000", "175924.286000", "175924.289000", "175924.292000", "175924.294000", "175924.297000", "175924.300000", "175924.303000", "175924.306000", "175924.309000", "175924.312000", "175924.315000", "175924.318000", "175924.321000", "180004.245000", "180004.248000", "180004.251000", "180004.254000", "180004.257000", "180004.260000", "180004.262000", "180004.265000", "180004.268000", "180004.271000", "180004.274000", "180004.276000", "180004.279000", "180004.282000", "180004.285000", "180004.288000", "180004.290000", "180004.293000", "180004.296000", "180004.299000", "180004.302000", "180004.305000", "180004.307000", "180004.310000", "180004.313000", "180004.316000", "180044.245000", "180044.248000", "180044.251000", "180044.254000", "180044.256000", "180044.259000", "180044.262000", "180044.265000", "180044.268000", "180044.270000", "180044.273000", "180044.276000", "180044.279000", "180044.282000", "180044.285000", "180044.287000", "180044.290000", "180044.293000", "180044.296000", "180044.299000", "180044.302000", "180044.304000", "180044.307000", "180044.310000", "180044.313000", "180044.316000", "180044.318000", "180124.245000", "180124.255000", "180124.258000", "180124.260000", "180124.263000", "180124.266000", "180124.269000", "180124.272000", "180124.275000", "180124.277000", "180124.280000", "180124.283000", "180124.286000", "180124.289000", "180124.291000", "180124.294000", "180124.297000", "180124.300000", "180124.303000", "180124.306000", "180124.308000", "180124.311000", "180124.314000", "180124.317000", "180124.320000", "180124.323000", "180124.325000", "180204.245000", "180204.248000", "180204.251000", "180204.254000", "180204.256000", "180204.259000", "180204.280000", "180204.283000", "180204.286000", "180204.289000", "180204.292000", "180204.294000", "180204.297000", "180204.300000", "180204.303000", "180204.306000", "180204.308000", "180204.311000", "180204.314000", "180204.317000", "180204.320000", "180204.323000", "180204.325000", "180204.328000", "180204.331000", "180204.334000", "180204.336000", "180244.245000", "180244.248000", "180244.251000", "180244.254000", "180244.257000", "180244.259000", "180244.262000", "180244.265000", "180244.268000", "180244.271000", "180244.274000", "180244.277000", "180244.280000", "180244.282000", "180244.285000", "180244.288000", "180244.291000", "180244.294000", "180244.296000", "180244.299000", "180244.302000", "180244.305000", "180244.308000", "180244.310000", "180244.313000", "180244.316000", "180244.327000", "180324.245000", "180324.248000", "180324.251000", "180324.254000", "180324.256000", "180324.259000", "180324.262000", "180324.265000", "180324.268000", "180324.271000", "180324.273000", "180324.276000", "180324.279000", "180324.282000", "180324.285000", "180324.287000", "180324.290000", "180324.293000", "180324.296000", "180324.299000", "180324.302000", "180324.304000", "180324.307000", "180324.310000", "180324.313000", "180324.316000", "180324.318000", "180404.245000", "180404.248000", "180404.251000", "180404.253000", "180404.256000", "180404.259000", "180404.262000", "180404.265000", "180404.268000", "180404.271000", "180404.273000", "180404.276000", "180404.279000", "180404.282000", "180404.285000", "180404.287000", "180404.290000", "180404.293000", "180404.296000", "180404.299000", "180404.302000", "180404.305000", "180404.307000", "180404.310000", "180404.313000", "180404.316000", "180404.319000", "180444.245000", "180444.254000", "180444.257000", "180444.260000", "180444.262000", "180444.265000", "180444.268000", "180444.271000", "180444.274000", "180444.277000", "180444.279000", "180444.282000", "180444.285000", "180444.288000", "180444.291000", "180444.295000", "180444.300000", "180444.303000", "180444.306000", "180444.311000", "180444.314000", "180444.317000", "180444.320000", "180444.324000", "180444.327000", "180444.331000", "180523.422000", "180523.426000", "180523.429000", "180523.431000", "180523.434000", "180523.437000", "180523.440000", "180523.443000", "180523.446000", "180523.449000", "180523.452000", "180523.455000", "180523.458000", "180523.461000", "180523.463000", "180523.466000", "180523.469000", "180523.472000", "180523.475000", "180523.478000", "180523.481000", "180523.484000", "180523.487000", "180523.490000", "180523.493000", "180523.496000", "180523.498000"],
