{
  "AcquisitionMatrixPE": 104,
  "AcquisitionNumber": 1,
  "AcquisitionTime": "18:46:58.490000",
  "BandwidthPerPixelPhaseEncode": 17.17,
  "BaseResolution": 104,
  "BodyPartExamined": "BRAIN",
  "CoilString": "HC1-7;NC1_2",
  "ConsistencyInfo": "N4_VE11C_LATEST_20160120",
  "ConversionSoftware": "dcm2niix",
  "ConversionSoftwareVersion": "v1.0.20190720  (JP2:OpenJPEG) GCC7.3.0",
  "DerivedVendorReportedEchoSpacing": 0.000560011,
  "DeviceSerialNumber": "167006",
  "DwellTime": 2.1e-06,
  "EchoTime": 0.037,
  "EchoTrainLength": 104,
  "EffectiveEchoSpacing": 0.000560011,
  "FlipAngle": 52,
  "ImageComments": "Unaliased_MB4_PE3_LB",
  "ImageOrientationPatientDICOM": [0.998437, 0.0446922, 0.0335591, -0.0325982, 0.953423, -0.299869],
  "ImageType": [
    "ORIGINAL",
    "PRIMARY",
    "M",
    "MB",
    "ND",
    "MOSAIC"
],
  "ImagingFrequency": 123.259,
  "InPlanePhaseEncodingDirectionDICOM": "COL",
  "InstitutionAddress": "Chemin_Queen-Mary_4565_Montreal_District_CA_H3W_1W5",
  "InstitutionName": "IUGM",
  "InstitutionalDepartmentName": "Department",
  "MRAcquisitionType": "2D",
  "MagneticFieldStrength": 3,
  "Manufacturer": "Siemens",
  "ManufacturersModelName": "Prisma_fit",
  "Modality": "MR",
  "MultibandAccelerationFactor": 4,
  "PartialFourier": 1,
  "PatientPosition": "HFS",
  "PercentPhaseFOV": 100,
  "PhaseEncodingDirection": "j",
  "PhaseEncodingSteps": 104,
  "PhaseResolution": 1,
  "PixelBandwidth": 2290,
  "ProcedureStepDescription": "video_friends",
  "ProtocolName": "func_task-s01e17b",
  "PulseSequenceDetails": "%CustomerSeq%_cmrr_mbep2d_bold",
  "ReceiveCoilActiveElements": "HC1-7;NC1,2",
  "ReceiveCoilName": "HeadNeck_64",
  "ReconMatrixPE": 104,
  "RepetitionTime": 1.49,
  "SAR": 0.035718,
  "ScanOptions": "FS",
  "ScanningSequence": "EP",
  "SequenceName": "epfid2d1_104",
  "SequenceVariant": "SK_SS",
  "SeriesDescription": "func_task-s01e17b",
  "SeriesNumber": 19,
  "ShimSetting": [640, -7201, -8813, 732, 103, -21, 26, -16],
  "SliceThickness": 2,
  "SliceTiming": [0, 0.785, 0.0975, 0.8825, 0.195, 0.98, 0.295, 1.0775, 0.3925, 1.175, 0.49, 1.275, 0.5875, 1.3725, 0.685, 0, 0.785, 0.0975, 0.8825, 0.195, 0.98, 0.295, 1.0775, 0.3925, 1.175, 0.49, 1.275, 0.5875, 1.3725, 0.685, 0, 0.785, 0.0975, 0.8825, 0.195, 0.98, 0.295, 1.0775, 0.3925, 1.175, 0.49, 1.275, 0.5875, 1.3725, 0.685, 0, 0.785, 0.0975, 0.8825, 0.195, 0.98, 0.295, 1.0775, 0.3925, 1.175, 0.49, 1.275, 0.5875, 1.3725, 0.685],
  "SoftwareVersions": "syngo_MR_E11",
  "SpacingBetweenSlices": 2,
  "StationName": "MRC35049",
  "TaskName": "friends",
  "TotalReadoutTime": 0.0576811,
  "TxRefAmp": 242.361,
  "WipMemBlock": "a6cf68e1-82a0-4b1c-a542-664175cb29a3||Sequence: R016 ve11c/master r/e634e98; Dec 19 2017 11:00:25 by eja",
  "dcmmeta_affine": [
    [-1.9968739748001099, -0.06519633531570435, 0.09079571813344955, 104.0084228515625],
    [-0.08938437700271606, 1.906846284866333, -0.5966134071350098, -67.76251983642578],
    [0.06711823493242264, 0.5997387170791626, 1.9067796468734741, -56.008522033691406],
    [0.0, 0.0, 0.0, 1.0]
],
  "dcmmeta_reorient_transform": [
    [0.0, -1.0, 0.0, 103.0],
    [1.0, 0.0, 0.0, 0.0],
    [0.0, 0.0, 1.0, 0.0],
    [0.0, 0.0, 0.0, 1.0]
],
  "dcmmeta_shape": [104, 104, 60, 483],
  "dcmmeta_slice_dim": 2,
  "dcmmeta_version": 0.6,
  "global": {
    "const": {
      "AcquisitionMatrix": [104, 0, 0, 104],
      "AngioFlag": "N",
      "BitsAllocated": 16,
      "BitsStored": 16,
      "BodyPartExamined": "BRAIN",
      "Columns": 832,
      "EchoNumbers": 1,
      "EchoTime": 37.0,
      "EchoTrainLength": 104,
      "FlipAngle": 52.0,
      "HighBit": 15,
      "ImageOrientationPatient": [0.99843697530817, 0.04469219004665, 0.03355911927203, -0.0325981692385, 0.95342316192034, -0.299869361016],
      "ImagePositionPatient": [-800.42384917439, -855.27063021568, 199.63842137814],
      "ImageType": [
        "ORIGINAL",
        "PRIMARY",
        "M",
        "MB",
        "ND",
        "MOSAIC"
],
      "ImagedNucleus": "1H",
      "ImagingFrequency": 123.259134,
      "InPlanePhaseEncodingDirection": "COL",
      "MRAcquisitionType": "2D",
      "MagneticFieldStrength": 3.0,
      "Manufacturer": "SIEMENS",
      "ManufacturerModelName": "Prisma_fit",
      "Modality": "MR",
      "NumberOfAverages": 1.0,
      "NumberOfPhaseEncodingSteps": 104,
      "PercentPhaseFieldOfView": 100.0,
      "PercentSampling": 100.0,
      "PerformedProcedureStepStartTime": "170859.098000",
      "PhotometricInterpretation": "MONOCHROME2",
      "PixelBandwidth": 2290.0,
      "PixelRepresentation": 0,
      "PixelSpacing": [2.0, 2.0],
      "ProtocolName": "func_task-s01e17b",
      "RepetitionTime": 1490.0,
      "Rows": 832,
      "SAR": 0.03571796547211,
      "SamplesPerPixel": 1,
      "ScanOptions": "FS",
      "ScanningSequence": "EP",
      "SequenceName": "epfid2d1_104",
      "SequenceVariant": [
        "SK",
        "SS"
],
      "SeriesDescription": "func_task-s01e17b",
      "SeriesNumber": 19,
      "SeriesTime": "184827.110000",
      "SliceLocation": -28.462183580921,
      "SliceThickness": 2.0,
      "SmallestImagePixelValue": 0,
      "SoftwareVersions": "syngo MR E11",
      "SpacingBetweenSlices": 1.9999999964653,
      "SpecificCharacterSet": "ISO_IR 100",
      "StudyID": "1",
      "StudyTime": "170858.981000",
      "TransmitCoilName": "Body",
      "VariableFlipAngleFlag": "N",
      "WindowCenterWidthExplanation": "Algo1",
      "dBdt": 0.0},
    "slices": {}
  },
  "time": {
    "samples": {
      "AcquisitionNumber": [1, 2, 3, 4, 5, 6, 7, 8, 9, 10, 11, 12, 13, 14, 15, 16, 17, 18, 19, 20, 21, 22, 23, 24, 25, 26, 27, 28, 29, 30, 31, 32, 33, 34, 35, 36, 37, 38, 39, 40, 41, 42, 43, 44, 45, 46, 47, 48, 49, 50, 51, 52, 53, 54, 55, 56, 57, 58, 59, 60, 61, 62, 63, 64, 65, 66, 67, 68, 69, 70, 71, 72, 73, 74, 75, 76, 77, 78, 79, 80, 81, 82, 83, 84, 85, 86, 87, 88, 89, 90, 91, 92, 93, 94, 95, 96, 97, 98, 99, 100, 101, 102, 103, 104, 105, 106, 107, 108, 109, 110, 111, 112, 113, 114, 115, 116, 117, 118, 119, 120, 121, 122, 123, 124, 125, 126, 127, 128, 129, 130, 131, 132, 133, 134, 135, 136, 137, 138, 139, 140, 141, 142, 143, 144, 145, 146, 147, 148, 149, 150, 151, 152, 153, 154, 155, 156, 157, 158, 159, 160, 161, 162, 163, 164, 165, 166, 167, 168, 169, 170, 171, 172, 173, 174, 175, 176, 177, 178, 179, 180, 181, 182, 183, 184, 185, 186, 187, 188, 189, 190, 191, 192, 193, 194, 195, 196, 197, 198, 199, 200, 201, 202, 203, 204, 205, 206, 207, 208, 209, 210, 211, 212, 213, 214, 215, 216, 217, 218, 219, 220, 221, 222, 223, 224, 225, 226, 227, 228, 229, 230, 231, 232, 233, 234, 235, 236, 237, 238, 239, 240, 241, 242, 243, 244, 245, 246, 247, 248, 249, 250, 251, 252, 253, 254, 255, 256, 257, 258, 259, 260, 261, 262, 263, 264, 265, 266, 267, 268, 269, 270, 271, 272, 273, 274, 275, 276, 277, 278, 279, 280, 281, 282, 283, 284, 285, 286, 287, 288, 289, 290, 291, 292, 293, 294, 295, 296, 297, 298, 299, 300, 301, 302, 303, 304, 305, 306, 307, 308, 309, 310, 311, 312, 313, 314, 315, 316, 317, 318, 319, 320, 321, 322, 323, 324, 325, 326, 327, 328, 329, 330, 331, 332, 333, 334, 335, 336, 337, 338, 339, 340, 341, 342, 343, 344, 345, 346, 347, 348, 349, 350, 351, 352, 353, 354, 355, 356, 357, 358, 359, 360, 361, 362, 363, 364, 365, 366, 367, 368, 369, 370, 371, 372, 373, 374, 375, 376, 377, 378, 379, 380, 381, 382, 383, 384, 385, 386, 387, 388, 389, 390, 391, 392, 393, 394, 395, 396, 397, 398, 399, 400, 401, 402, 403, 404, 405, 406, 407, 408, 409, 410, 411, 412, 413, 414, 415, 416, 417, 418, 419, 420, 421, 422, 423, 424, 425, 426, 427, 428, 429, 430, 431, 432, 433, 434, 435, 436, 437, 438, 439, 440, 441, 442, 443, 444, 445, 446, 447, 448, 449, 450, 451, 452, 453, 454, 455, 456, 457, 458, 459, 460, 461, 462, 463, 464, 465, 466, 467, 468, 469, 470, 471, 472, 473, 474, 475, 476, 477, 478, 479, 480, 481, 482, 483],
      "AcquisitionTime": ["184658.490000", "184659.980000", "184701.470000", "184702.960000", "184704.450000", "184705.940000", "184707.430000", "184708.920000", "184710.410000", "184711.900000", "184713.390000", "184714.880000", "184716.370000", "184717.860000", "184719.350000", "184720.840000", "184722.330000", "184723.820000", "184725.310000", "184726.800000", "184728.290000", "184729.780000", "184731.270000", "184732.760000", "184734.250000", "184735.740000", "184737.230000", "184738.720000", "184740.210000", "184741.700000", "184743.190000", "184744.680000", "184746.170000", "184747.660000", "184749.150000", "184750.640000", "184752.130000", "184753.620000", "184755.110000", "184756.600000", "184758.090000", "184759.580000", "184801.070000", "184802.560000", "184804.050000", "184805.540000", "184807.030000", "184808.520000", "184810.010000", "184811.500000", "184812.990000", "184814.480000", "184815.970000", "184817.460000", "184818.950000", "184820.440000", "184821.930000", "184823.420000", "184824.910000", "184826.400000", "184827.890000", "184829.380000", "184830.870000", "184832.360000", "184833.850000", "184835.340000", "184836.830000", "184838.320000", "184839.810000", "184841.300000", "184842.790000", "184844.280000", "184845.770000", "184847.260000", "184848.750000", "184850.240000", "184851.730000", "184853.220000", "184854.710000", "184856.200000", "184857.690000", "184859.180000", "184900.670000", "184902.160000", "184903.650000", "184905.140000", "184906.630000", "184908.120000", "184909.610000", "184911.100000", "184912.590000", "184914.080000", "184915.570000", "184917.060000", "184918.550000", "184920.040000", "184921.530000", "184923.020000", "184924.510000", "184926.000000", "184927.490000", "184928.980000", "184930.470000", "184931.960000", "184933.450000", "184934.940000", "184936.430000", "184937.920000", "184939.410000", "184940.900000", "184942.390000", "184943.880000", "184945.370000", "184946.860000", "184948.350000", "184949.840000", "184951.330000", "184952.820000", "184954.310000", "184955.800000", "184957.290000", "184958.780000", "185000.270000", "185001.760000", "185003.250000", "185004.740000", "185006.230000", "185007.720000", "185009.210000", "185010.700000", "185012.190000", "185013.680000", "185015.170000", "185016.660000", "185018.150000", "185019.640000", "185021.130000", "185022.620000", "185024.110000", "185025.600000", "185027.090000", "185028.580000", "185030.070000", "185031.560000", "185033.050000", "185034.540000", "185036.030000", "185037.520000", "185039.010000", "185040.500000", "185041.990000", "185043.480000", "185044.970000", "185046.460000", "185047.950000", "185049.440000", "185050.930000", "185052.420000", "185053.910000", "185055.400000", "185056.890000", "185058.380000", "185059.870000", "185101.360000", "185102.850000", "185104.340000", "185105.830000", "185107.320000", "185108.810000", "185110.300000", "185111.790000", "185113.280000", "185114.770000", "185116.260000", "185117.750000", "185119.240000", "185120.730000", "185122.220000", "185123.710000", "185125.200000", "185126.690000", "185128.180000", "185129.670000", "185131.160000", "185132.650000", "185134.140000", "185135.630000", "185137.120000", "185138.610000", "185140.100000", "185141.590000", "185143.080000", "185144.570000", "185146.060000", "185147.550000", "185149.040000", "185150.530000", "185152.020000", "185153.510000", "185155.000000", "185156.490000", "185157.980000", "185159.470000", "185200.960000", "185202.450000", "185203.940000", "185205.430000", "185206.920000", "185208.410000", "185209.900000", "185211.390000", "185212.880000", "185214.370000", "185215.860000", "185217.350000", "185218.840000", "185220.330000", "185221.820000", "185223.310000", "185224.800000", "185226.290000", "185227.780000", "185229.270000", "185230.760000", "185232.250000", "185233.740000", "185235.230000", "185236.720000", "185238.210000", "185239.700000", "185241.190000", "185242.680000", "185244.170000", "185245.660000", "185247.150000", "185248.640000", "185250.130000", "185251.620000", "185253.110000", "185254.600000", "185256.090000", "185257.580000", "185259.070000", "185300.560000", "185302.050000", "185303.540000", "185305.030000", "185306.520000", "185308.010000", "185309.500000", "185310.990000", "185312.480000", "185313.970000", "185315.460000", "185316.950000", "185318.440000", "185319.930000", "185321.420000", "185322.910000", "185324.400000", "185325.890000", "185327.380000", "185328.870000", "185330.360000", "185331.850000", "185333.340000", "185334.830000", "185336.320000", "185337.810000", "185339.300000", "185340.790000", "185342.280000", "185343.770000", "185345.260000", "185346.750000", "185348.240000", "185349.730000", "185351.220000", "185352.710000", "185354.200000", "185355.690000", "185357.180000", "185358.670000", "185400.160000", "185401.650000", "185403.140000", "185404.630000", "185406.120000", "185407.610000", "185409.100000", "185410.590000", "185412.080000", "185413.570000", "185415.060000", "185416.550000", "185418.040000", "185419.530000", "185421.020000", "185422.510000", "185424.000000", "185425.490000", "185426.980000", "185428.470000", "185429.960000", "185431.450000", "185432.940000", "185434.430000", "185435.920000", "185437.410000", "185438.900000", "185440.390000", "185441.880000", "185443.370000", "185444.860000", "185446.350000", "185447.840000", "185449.330000", "185450.820000", "185452.310000", "185453.800000", "185455.290000", "185456.780000", "185458.270000", "185459.760000", "185501.250000", "185502.740000", "185504.230000", "185505.720000", "185507.210000", "185508.700000", "185510.190000", "185511.680000", "185513.170000", "185514.660000", "185516.150000", "185517.640000", "185519.130000", "185520.620000", "185522.110000", "185523.600000", "185525.090000", "185526.580000", "185528.070000", "185529.560000", "185531.050000", "185532.540000", "185534.030000", "185535.520000", "185537.010000", "185538.500000", "185539.990000", "185541.480000", "185542.970000", "185544.460000", "185545.950000", "185547.440000", "185548.930000", "185550.420000", "185551.910000", "185553.400000", "185554.890000", "185556.380000", "185557.870000", "185559.360000", "185600.850000", "185602.340000", "185603.830000", "185605.320000", "185606.810000", "185608.300000", "185609.790000", "185611.280000", "185612.770000", "185614.260000", "185615.750000", "185617.240000", "185618.730000", "185620.220000", "185621.710000", "185623.200000", "185624.690000", "185626.180000", "185627.670000", "185629.160000", "185630.650000", "185632.140000", "185633.630000", "185635.120000", "185636.610000", "185638.100000", "185639.590000", "185641.080000", "185642.570000", "185644.060000", "185645.550000", "185647.040000", "185648.530000", "185650.020000", "185651.510000", "185653.000000", "185654.490000", "185655.980000", "185657.470000", "185658.960000", "185700.450000", "185701.940000", "185703.430000", "185704.920000", "185706.410000", "185707.900000", "185709.390000", "185710.880000", "185712.370000", "185713.860000", "185715.350000", "185716.840000", "185718.330000", "185719.820000", "185721.310000", "185722.800000", "185724.290000", "185725.780000", "185727.270000", "185728.760000", "185730.250000", "185731.740000", "185733.230000", "185734.720000", "185736.210000", "185737.700000", "185739.190000", "185740.680000", "185742.170000", "185743.660000", "185745.150000", "185746.640000", "185748.130000", "185749.620000", "185751.110000", "185752.600000", "185754.090000", "185755.580000", "185757.070000", "185758.560000", "185800.050000", "185801.540000", "185803.030000", "185804.520000", "185806.010000", "185807.500000", "185808.990000", "185810.480000", "185811.970000", "185813.460000", "185814.950000", "185816.440000", "185817.930000", "185819.420000", "185820.910000", "185822.400000", "185823.890000", "185825.380000", "185826.870000", "185828.360000", "185829.850000", "185831.340000", "185832.830000", "185834.320000", "185835.810000", "185837.300000", "185838.790000", "185840.280000", "185841.770000", "185843.260000", "185844.750000", "185846.240000", "185847.730000", "185849.220000", "185850.710000", "185852.200000", "185853.690000", "185855.180000", "185856.670000"],
      "ContentTime": ["184827.114000", "184827.117000", "184827.120000", "184827.122000", "184827.125000", "184827.128000", "184827.131000", "184827.134000", "184827.136000", "184827.139000", "184827.142000", "184827.145000", "184827.148000", "184827.150000", "184827.153000", "184827.156000", "184827.159000", "184827.161000", "184827.164000", "184827.167000", "184827.170000", "184827.173000", "184827.175000", "184827.178000", "184827.181000", "184827.184000", "184827.187000", "184827.190000", "184827.192000", "184827.195000", "184827.198000", "184827.201000", "184827.204000", "184827.206000", "184847.076000", "184847.079000", "184847.082000", "184847.085000", "184847.087000", "184847.091000", "184847.094000", "184847.097000", "184847.099000", "184847.102000", "184847.105000", "184847.108000", "184847.111000", "184847.113000", "184847.116000", "184847.119000", "184847.122000", "184847.124000", "184847.127000", "184847.130000", "184907.076000", "184907.079000", "184907.081000", "184907.084000", "184907.087000", "184907.090000", "184907.093000", "184907.096000", "184907.098000", "184907.101000", "184907.104000", "184907.107000", "184907.110000", "184907.112000", "184907.115000", "184907.118000", "184907.121000", "184907.123000", "184907.126000", "184907.129000", "184907.132000", "184927.076000", "184927.079000", "184927.081000", "184927.084000", "184927.087000", "184927.090000", "184927.094000", "184927.096000", "184927.099000", "184927.102000", "184927.105000", "184927.108000", "184927.111000", "184927.114000", "184927.116000", "184927.119000", "184927.122000", "184927.125000", "184927.128000", "184927.131000", "185007.076000", "185007.079000", "185007.081000", "185007.084000", "185007.087000", "185007.090000", "185007.093000", "185007.095000", "185007.098000", "185007.101000", "185007.104000", "185007.107000", "185007.110000", "185007.112000", "185007.115000", "185007.118000", "185007.121000", "185007.124000", "185007.126000", "185007.129000", "185007.132000", "185007.135000", "185007.138000", "185007.140000", "185007.143000", "185007.146000", "185007.149000", "185007.152000", "185007.155000", "185007.157000", "185007.160000", "185047.076000", "185047.079000", "185047.082000", "185047.084000", "185047.087000", "185047.090000", "185047.093000", "185047.096000", "185047.099000", "185047.102000", "185047.105000", "185047.107000", "185047.111000", "185047.114000", "185047.117000", "185047.120000", "185047.123000", "185047.125000", "185047.128000", "185047.131000", "185047.134000", "185047.137000", "185047.140000", "185047.142000", "185047.145000", "185047.148000", "185127.076000", "185127.079000", "185127.082000", "185127.085000", "185127.088000", "185127.090000", "185127.093000", "185127.096000", "185127.110000", "185127.113000", "185127.115000", "185127.118000", "185127.122000", "185127.125000", "185127.128000", "185127.131000", "185127.133000", "185127.145000", "185127.148000", "185127.150000", "185127.153000", "185127.156000", "185127.159000", "185127.162000", "185127.164000", "185127.167000", "185127.170000", "185207.076000", "185207.080000", "185207.083000", "185207.086000", "185207.089000", "185207.092000", "185207.094000", "185207.097000", "185207.100000", "185207.103000", "185207.106000", "185207.108000", "185207.111000", "185207.114000", "185207.117000", "185207.120000", "185207.123000", "185207.126000", "185207.128000", "185207.132000", "185207.135000", "185207.138000", "185207.141000", "185207.144000", "185207.147000", "185207.150000", "185207.153000", "185247.077000", "185247.080000", "185247.083000", "185247.085000", "185247.088000", "185247.091000", "185247.094000", "185247.097000", "185247.099000", "185247.102000", "185247.105000", "185247.108000", "185247.111000", "185247.114000", "185247.116000", "185247.119000", "185247.122000", "185247.125000", "185247.128000", "185247.130000", "185247.133000", "185247.136000", "185247.139000", "185247.142000", "185247.144000", "185247.147000", "185247.150000", "185327.076000", "185327.079000", "185327.082000", "185327.085000", "185327.087000", "185327.090000", "185327.093000", "185327.096000", "185327.099000", "185327.102000", "185327.104000", "185327.107000", "185327.110000", "185327.113000", "185327.116000", "185327.119000", "185327.121000", "185327.124000", "185327.127000", "185327.130000", "185327.133000", "185327.136000", "185327.139000", "185327.141000", "185327.144000", "185327.147000", "185327.150000", "185407.076000", "185407.079000", "185407.082000", "185407.085000", "185407.087000", "185407.090000", "185407.093000", "185407.096000", "185407.099000", "185407.101000", "185407.104000", "185407.107000", "185407.110000", "185407.113000", "185407.116000", "185407.118000", "185407.121000", "185407.124000", "185407.127000", "185407.130000", "185407.133000", "185407.136000", "185407.138000", "185407.141000", "185407.144000", "185407.147000", "185407.150000", "185447.076000", "185447.079000", "185447.082000", "185447.084000", "185447.087000", "185447.090000", "185447.093000", "185447.096000", "185447.099000", "185447.101000", "185447.104000", "185447.107000", "185447.110000", "185447.114000", "185447.118000", "185447.121000", "185447.124000", "185447.127000", "185447.131000", "185447.134000", "185447.137000", "185447.140000", "185447.142000", "185447.145000", "185447.148000", "185447.151000", "185527.076000", "185527.079000", "185527.082000", "185527.085000", "185527.087000", "185527.090000", "185527.093000", "185527.096000", "185527.099000", "185527.102000", "185527.105000", "185527.107000", "185527.110000", "185527.113000", "185527.116000", "185527.119000", "185527.121000", "185527.135000", "185527.138000", "185527.141000", "185527.144000", "185527.147000", "185527.149000", "185527.152000", "185527.155000", "185527.158000", "185527.161000", "185607.076000", "185607.079000", "185607.082000", "185607.085000", "185607.087000", "185607.090000", "185607.093000", "185607.096000", "185607.099000", "185607.102000", "185607.104000", "185607.107000", "185607.110000", "185607.113000", "185607.116000", "185607.118000", "185607.121000", "185607.124000", "185607.127000", "185607.130000", "185607.133000", "185607.135000", "185607.152000", "185607.155000", "185607.158000", "185607.161000", "185607.164000", "185647.076000", "185647.079000", "185647.082000", "185647.084000", "185647.087000", "185647.090000", "185647.093000", "185647.096000", "185647.099000", "185647.101000", "185647.104000", "185647.107000", "185647.110000", "185647.113000", "185647.115000", "185647.118000", "185647.121000", "185647.124000", "185647.127000", "185647.129000", "185647.132000", "185647.135000", "185647.138000", "185647.141000", "185647.143000", "185647.146000", "185647.149000", "185727.077000", "185727.080000", "185727.083000", "185727.086000", "185727.088000", "185727.091000", "185727.094000", "185727.097000", "185727.100000", "185727.103000", "185727.105000", "185727.108000", "185727.111000", "185727.114000", "185727.117000", "185727.119000", "185727.122000", "185727.125000", "185727.128000", "185727.131000", "185727.134000", "185727.136000", "185727.139000", "185727.142000", "185727.145000", "185727.148000", "185727.151000", "185807.076000", "185807.079000", "185807.082000", "185807.085000", "185807.087000", "185807.090000", "185807.093000", "185807.096000", "185807.099000", "185807.101000", "185807.104000", "185807.107000", "185807.110000", "185807.113000", "185807.115000", "185807.118000", "185807.121000", "185807.124000", "185807.127000", "185807.129000", "185807.132000", "185807.135000", "185807.138000", "185807.141000", "185807.144000", "185807.146000", "185807.149000", "185827.076000", "185827.079000", "185827.082000", "185827.085000", "185827.088000", "185827.091000", "185827.093000", "185827.096000", "185827.099000", "185827.102000", "185827.105000", "185827.108000", "185827.110000", "185858.984000", "185858.987000", "185858.990000", "185858.993000", "185858.996000", "185859.000000", "185859.002000", "185859.005000", "185859.008000", "185859.011000", "185859.014000", "185859.016000", "185859.019000", "185859.022000", "185859.025000", "185859.028000", "185859.030000", "185859.033000", "185859.036000", "185859.039000", "185859.042000", "185859.045000"],
