{
  "AcquisitionMatrixPE": 104,
  "AcquisitionNumber": 1,
  "AcquisitionTime": "17:56:45.407500",
  "BandwidthPerPixelPhaseEncode": 17.17,
  "BaseResolution": 104,
  "BodyPartExamined": "BRAIN",
  "CoilString": "HC1-7;NC1_2",
  "ConsistencyInfo": "N4_VE11C_LATEST_20160120",
  "ConversionSoftware": "dcm2niix",
  "ConversionSoftwareVersion": "v1.0.20190720  (JP2:OpenJPEG) GCC7.3.0",
  "DerivedVendorReportedEchoSpacing": 0.000560011,
  "DeviceSerialNumber": "167006",
  "DwellTime": 2.1e-06,
  "EchoTime": 0.037,
  "EchoTrainLength": 104,
  "EffectiveEchoSpacing": 0.000560011,
  "FlipAngle": 52,
  "ImageComments": "Unaliased_MB4_PE3_LB",
  "ImageOrientationPatientDICOM": [0.998437, 0.0446922, 0.0335591, -0.0325982, 0.953423, -0.299869],
  "ImageType": [
    "ORIGINAL",
    "PRIMARY",
    "M",
    "MB",
    "ND",
    "MOSAIC"
],
  "ImagingFrequency": 123.259,
  "InPlanePhaseEncodingDirectionDICOM": "COL",
  "InstitutionAddress": "Chemin_Queen-Mary_4565_Montreal_District_CA_H3W_1W5",
  "InstitutionName": "IUGM",
  "InstitutionalDepartmentName": "Department",
  "MRAcquisitionType": "2D",
  "MagneticFieldStrength": 3,
  "Manufacturer": "Siemens",
  "ManufacturersModelName": "Prisma_fit",
  "Modality": "MR",
  "MultibandAccelerationFactor": 4,
  "PartialFourier": 1,
  "PatientPosition": "HFS",
  "PercentPhaseFOV": 100,
  "PhaseEncodingDirection": "j",
  "PhaseEncodingSteps": 104,
  "PhaseResolution": 1,
  "PixelBandwidth": 2290,
  "ProcedureStepDescription": "video_friends",
  "ProtocolName": "func_task-s01e15b",
  "PulseSequenceDetails": "%CustomerSeq%_cmrr_mbep2d_bold",
  "ReceiveCoilActiveElements": "HC1-7;NC1,2",
  "ReceiveCoilName": "HeadNeck_64",
  "ReconMatrixPE": 104,
  "RepetitionTime": 1.49,
  "SAR": 0.0357161,
  "ScanOptions": "FS",
  "ScanningSequence": "EP",
  "SequenceName": "epfid2d1_104",
  "SequenceVariant": "SK_SS",
  "SeriesDescription": "func_task-s01e15b",
  "SeriesNumber": 11,
  "ShimSetting": [640, -7201, -8813, 732, 103, -21, 26, -16],
  "SliceThickness": 2,
  "SliceTiming": [0, 0.785, 0.0975, 0.8825, 0.195, 0.98, 0.295, 1.0775, 0.3925, 1.175, 0.49, 1.275, 0.5875, 1.3725, 0.685, 0, 0.785, 0.0975, 0.8825, 0.195, 0.98, 0.295, 1.0775, 0.3925, 1.175, 0.49, 1.275, 0.5875, 1.3725, 0.685, 0, 0.785, 0.0975, 0.8825, 0.195, 0.98, 0.295, 1.0775, 0.3925, 1.175, 0.49, 1.275, 0.5875, 1.3725, 0.685, 0, 0.785, 0.0975, 0.8825, 0.195, 0.98, 0.295, 1.0775, 0.3925, 1.175, 0.49, 1.275, 0.5875, 1.3725, 0.685],
  "SoftwareVersions": "syngo_MR_E11",
  "SpacingBetweenSlices": 2,
  "StationName": "MRC35049",
  "TaskName": "friends",
  "TotalReadoutTime": 0.0576811,
  "TxRefAmp": 242.361,
  "WipMemBlock": "733dacf7-3e1b-4d9f-82e3-3226c562cc84||Sequence: R016 ve11c/master r/e634e98; Dec 19 2017 11:00:25 by eja",
  "dcmmeta_affine": [
    [-1.9968739748001099, -0.06519633531570435, 0.09079571813344955, 104.0084228515625],
    [-0.08938437700271606, 1.906846284866333, -0.5966134071350098, -67.76251983642578],
    [0.06711823493242264, 0.5997387170791626, 1.9067796468734741, -56.008522033691406],
    [0.0, 0.0, 0.0, 1.0]
],
  "dcmmeta_reorient_transform": [
    [0.0, -1.0, 0.0, 103.0],
    [1.0, 0.0, 0.0, 0.0],
    [0.0, 0.0, 1.0, 0.0],
    [0.0, 0.0, 0.0, 1.0]
],
  "dcmmeta_shape": [104, 104, 60, 477],
  "dcmmeta_slice_dim": 2,
  "dcmmeta_version": 0.6,
  "global": {
    "const": {
      "AcquisitionMatrix": [104, 0, 0, 104],
      "AngioFlag": "N",
      "BitsAllocated": 16,
      "BitsStored": 16,
      "BodyPartExamined": "BRAIN",
      "Columns": 832,
      "EchoNumbers": 1,
      "EchoTime": 37.0,
      "EchoTrainLength": 104,
      "FlipAngle": 52.0,
      "HighBit": 15,
      "ImageOrientationPatient": [0.99843697530817, 0.04469219004665, 0.03355911927203, -0.0325981692385, 0.95342316192034, -0.299869361016],
      "ImagePositionPatient": [-800.42384917439, -855.27063021568, 199.63842137814],
      "ImageType": [
        "ORIGINAL",
        "PRIMARY",
        "M",
        "MB",
        "ND",
        "MOSAIC"
],
      "ImagedNucleus": "1H",
      "ImagingFrequency": 123.259116,
      "InPlanePhaseEncodingDirection": "COL",
      "MRAcquisitionType": "2D",
      "MagneticFieldStrength": 3.0,
      "Manufacturer": "SIEMENS",
      "ManufacturerModelName": "Prisma_fit",
      "Modality": "MR",
      "NumberOfAverages": 1.0,
      "NumberOfPhaseEncodingSteps": 104,
      "PercentPhaseFieldOfView": 100.0,
      "PercentSampling": 100.0,
      "PerformedProcedureStepStartTime": "170859.098000",
      "PhotometricInterpretation": "MONOCHROME2",
      "PixelBandwidth": 2290.0,
      "PixelRepresentation": 0,
      "PixelSpacing": [2.0, 2.0],
      "ProtocolName": "func_task-s01e15b",
      "RepetitionTime": 1490.0,
      "Rows": 832,
      "SAR": 0.03571612733729,
      "SamplesPerPixel": 1,
      "ScanOptions": "FS",
      "ScanningSequence": "EP",
      "SequenceName": "epfid2d1_104",
      "SequenceVariant": [
        "SK",
        "SS"
],
      "SeriesDescription": "func_task-s01e15b",
      "SeriesNumber": 11,
      "SeriesTime": "175759.164000",
      "SliceLocation": -28.462183580921,
      "SliceThickness": 2.0,
      "SmallestImagePixelValue": 0,
      "SoftwareVersions": "syngo MR E11",
      "SpacingBetweenSlices": 1.9999999964653,
      "SpecificCharacterSet": "ISO_IR 100",
      "StudyID": "1",
      "StudyTime": "170858.981000",
      "TransmitCoilName": "Body",
      "VariableFlipAngleFlag": "N",
      "WindowCenterWidthExplanation": "Algo1",
      "dBdt": 0.0},
    "slices": {}
  },
  "time": {
    "samples": {
      "AcquisitionNumber": [1, 2, 3, 4, 5, 6, 7, 8, 9, 10, 11, 12, 13, 14, 15, 16, 17, 18, 19, 20, 21, 22, 23, 24, 25, 26, 27, 28, 29, 30, 31, 32, 33, 34, 35, 36, 37, 38, 39, 40, 41, 42, 43, 44, 45, 46, 47, 48, 49, 50, 51, 52, 53, 54, 55, 56, 57, 58, 59, 60, 61, 62, 63, 64, 65, 66, 67, 68, 69, 70, 71, 72, 73, 74, 75, 76, 77, 78, 79, 80, 81, 82, 83, 84, 85, 86, 87, 88, 89, 90, 91, 92, 93, 94, 95, 96, 97, 98, 99, 100, 101, 102, 103, 104, 105, 106, 107, 108, 109, 110, 111, 112, 113, 114, 115, 116, 117, 118, 119, 120, 121, 122, 123, 124, 125, 126, 127, 128, 129, 130, 131, 132, 133, 134, 135, 136, 137, 138, 139, 140, 141, 142, 143, 144, 145, 146, 147, 148, 149, 150, 151, 152, 153, 154, 155, 156, 157, 158, 159, 160, 161, 162, 163, 164, 165, 166, 167, 168, 169, 170, 171, 172, 173, 174, 175, 176, 177, 178, 179, 180, 181, 182, 183, 184, 185, 186, 187, 188, 189, 190, 191, 192, 193, 194, 195, 196, 197, 198, 199, 200, 201, 202, 203, 204, 205, 206, 207, 208, 209, 210, 211, 212, 213, 214, 215, 216, 217, 218, 219, 220, 221, 222, 223, 224, 225, 226, 227, 228, 229, 230, 231, 232, 233, 234, 235, 236, 237, 238, 239, 240, 241, 242, 243, 244, 245, 246, 247, 248, 249, 250, 251, 252, 253, 254, 255, 256, 257, 258, 259, 260, 261, 262, 263, 264, 265, 266, 267, 268, 269, 270, 271, 272, 273, 274, 275, 276, 277, 278, 279, 280, 281, 282, 283, 284, 285, 286, 287, 288, 289, 290, 291, 292, 293, 294, 295, 296, 297, 298, 299, 300, 301, 302, 303, 304, 305, 306, 307, 308, 309, 310, 311, 312, 313, 314, 315, 316, 317, 318, 319, 320, 321, 322, 323, 324, 325, 326, 327, 328, 329, 330, 331, 332, 333, 334, 335, 336, 337, 338, 339, 340, 341, 342, 343, 344, 345, 346, 347, 348, 349, 350, 351, 352, 353, 354, 355, 356, 357, 358, 359, 360, 361, 362, 363, 364, 365, 366, 367, 368, 369, 370, 371, 372, 373, 374, 375, 376, 377, 378, 379, 380, 381, 382, 383, 384, 385, 386, 387, 388, 389, 390, 391, 392, 393, 394, 395, 396, 397, 398, 399, 400, 401, 402, 403, 404, 405, 406, 407, 408, 409, 410, 411, 412, 413, 414, 415, 416, 417, 418, 419, 420, 421, 422, 423, 424, 425, 426, 427, 428, 429, 430, 431, 432, 433, 434, 435, 436, 437, 438, 439, 440, 441, 442, 443, 444, 445, 446, 447, 448, 449, 450, 451, 452, 453, 454, 455, 456, 457, 458, 459, 460, 461, 462, 463, 464, 465, 466, 467, 468, 469, 470, 471, 472, 473, 474, 475, 476, 477],
      "AcquisitionTime": ["175645.407500", "175646.897500", "175648.387500", "175649.877500", "175651.367500", "175652.857500", "175654.347500", "175655.837500", "175657.327500", "175658.817500", "175700.307500", "175701.797500", "175703.287500", "175704.777500", "175706.267500", "175707.757500", "175709.247500", "175710.737500", "175712.227500", "175713.717500", "175715.207500", "175716.697500", "175718.187500", "175719.677500", "175721.167500", "175722.657500", "175724.147500", "175725.637500", "175727.127500", "175728.617500", "175730.107500", "175731.597500", "175733.087500", "175734.577500", "175736.067500", "175737.557500", "175739.047500", "175740.537500", "175742.027500", "175743.517500", "175745.007500", "175746.497500", "175747.987500", "175749.477500", "175750.967500", "175752.457500", "175753.947500", "175755.437500", "175756.927500", "175758.417500", "175759.907500", "175801.397500", "175802.887500", "175804.377500", "175805.867500", "175807.357500", "175808.847500", "175810.337500", "175811.827500", "175813.317500", "175814.807500", "175816.297500", "175817.787500", "175819.277500", "175820.767500", "175822.257500", "175823.747500", "175825.237500", "175826.727500", "175828.217500", "175829.707500", "175831.197500", "175832.687500", "175834.177500", "175835.667500", "175837.157500", "175838.647500", "175840.137500", "175841.627500", "175843.117500", "175844.607500", "175846.097500", "175847.587500", "175849.077500", "175850.567500", "175852.057500", "175853.547500", "175855.037500", "175856.527500", "175858.017500", "175859.507500", "175900.997500", "175902.487500", "175903.977500", "175905.467500", "175906.957500", "175908.447500", "175909.937500", "175911.427500", "175912.917500", "175914.407500", "175915.897500", "175917.387500", "175918.877500", "175920.367500", "175921.857500", "175923.347500", "175924.837500", "175926.327500", "175927.817500", "175929.307500", "175930.797500", "175932.287500", "175933.777500", "175935.267500", "175936.757500", "175938.247500", "175939.737500", "175941.227500", "175942.717500", "175944.207500", "175945.697500", "175947.187500", "175948.677500", "175950.167500", "175951.657500", "175953.147500", "175954.637500", "175956.127500", "175957.617500", "175959.107500", "180000.597500", "180002.087500", "180003.577500", "180005.067500", "180006.557500", "180008.047500", "180009.537500", "180011.027500", "180012.517500", "180014.007500", "180015.497500", "180016.987500", "180018.477500", "180019.967500", "180021.457500", "180022.947500", "180024.437500", "180025.927500", "180027.417500", "180028.907500", "180030.397500", "180031.887500", "180033.377500", "180034.867500", "180036.357500", "180037.847500", "180039.337500", "180040.827500", "180042.317500", "180043.807500", "180045.297500", "180046.787500", "180048.277500", "180049.767500", "180051.257500", "180052.747500", "180054.237500", "180055.727500", "180057.217500", "180058.707500", "180100.197500", "180101.687500", "180103.177500", "180104.667500", "180106.157500", "180107.647500", "180109.137500", "180110.627500", "180112.117500", "180113.607500", "180115.097500", "180116.587500", "180118.077500", "180119.567500", "180121.057500", "180122.547500", "180124.037500", "180125.527500", "180127.017500", "180128.507500", "180129.997500", "180131.487500", "180132.977500", "180134.467500", "180135.957500", "180137.447500", "180138.937500", "180140.427500", "180141.917500", "180143.407500", "180144.897500", "180146.387500", "180147.877500", "180149.367500", "180150.857500", "180152.347500", "180153.837500", "180155.327500", "180156.817500", "180158.307500", "180159.797500", "180201.287500", "180202.777500", "180204.267500", "180205.757500", "180207.247500", "180208.737500", "180210.227500", "180211.717500", "180213.207500", "180214.697500", "180216.187500", "180217.677500", "180219.167500", "180220.657500", "180222.147500", "180223.637500", "180225.127500", "180226.617500", "180228.107500", "180229.597500", "180231.087500", "180232.577500", "180234.067500", "180235.557500", "180237.047500", "180238.537500", "180240.027500", "180241.517500", "180243.007500", "180244.497500", "180245.987500", "180247.477500", "180248.967500", "180250.457500", "180251.947500", "180253.437500", "180254.927500", "180256.417500", "180257.907500", "180259.397500", "180300.887500", "180302.377500", "180303.867500", "180305.357500", "180306.847500", "180308.337500", "180309.827500", "180311.317500", "180312.807500", "180314.297500", "180315.787500", "180317.277500", "180318.767500", "180320.257500", "180321.747500", "180323.237500", "180324.727500", "180326.217500", "180327.707500", "180329.197500", "180330.687500", "180332.177500", "180333.667500", "180335.157500", "180336.647500", "180338.137500", "180339.627500", "180341.117500", "180342.607500", "180344.097500", "180345.587500", "180347.077500", "180348.567500", "180350.057500", "180351.547500", "180353.037500", "180354.527500", "180356.017500", "180357.507500", "180358.997500", "180400.487500", "180401.977500", "180403.467500", "180404.957500", "180406.447500", "180407.937500", "180409.427500", "180410.917500", "180412.407500", "180413.897500", "180415.387500", "180416.877500", "180418.367500", "180419.857500", "180421.347500", "180422.837500", "180424.327500", "180425.817500", "180427.307500", "180428.797500", "180430.287500", "180431.777500", "180433.267500", "180434.757500", "180436.247500", "180437.737500", "180439.227500", "180440.717500", "180442.207500", "180443.697500", "180445.187500", "180446.677500", "180448.167500", "180449.657500", "180451.147500", "180452.637500", "180454.127500", "180455.617500", "180457.107500", "180458.597500", "180500.087500", "180501.577500", "180503.067500", "180504.557500", "180506.047500", "180507.537500", "180509.027500", "180510.517500", "180512.007500", "180513.497500", "180514.987500", "180516.477500", "180517.967500", "180519.457500", "180520.947500", "180522.437500", "180523.927500", "180525.417500", "180526.907500", "180528.397500", "180529.887500", "180531.377500", "180532.867500", "180534.357500", "180535.847500", "180537.337500", "180538.827500", "180540.317500", "180541.807500", "180543.297500", "180544.787500", "180546.277500", "180547.767500", "180549.257500", "180550.747500", "180552.237500", "180553.727500", "180555.217500", "180556.707500", "180558.197500", "180559.687500", "180601.177500", "180602.667500", "180604.157500", "180605.647500", "180607.137500", "180608.627500", "180610.117500", "180611.607500", "180613.097500", "180614.587500", "180616.077500", "180617.567500", "180619.057500", "180620.547500", "180622.037500", "180623.527500", "180625.017500", "180626.507500", "180627.997500", "180629.487500", "180630.977500", "180632.467500", "180633.957500", "180635.447500", "180636.937500", "180638.427500", "180639.917500", "180641.407500", "180642.897500", "180644.387500", "180645.877500", "180647.367500", "180648.857500", "180650.347500", "180651.837500", "180653.327500", "180654.817500", "180656.307500", "180657.797500", "180659.287500", "180700.777500", "180702.267500", "180703.757500", "180705.247500", "180706.737500", "180708.227500", "180709.717500", "180711.207500", "180712.697500", "180714.187500", "180715.677500", "180717.167500", "180718.657500", "180720.147500", "180721.637500", "180723.127500", "180724.617500", "180726.107500", "180727.597500", "180729.087500", "180730.577500", "180732.067500", "180733.557500", "180735.047500", "180736.537500", "180738.027500", "180739.517500", "180741.007500", "180742.497500", "180743.987500", "180745.477500", "180746.967500", "180748.457500", "180749.947500", "180751.437500", "180752.927500", "180754.417500", "180755.907500", "180757.397500", "180758.887500", "180800.377500", "180801.867500", "180803.357500", "180804.847500", "180806.337500", "180807.827500", "180809.317500", "180810.807500", "180812.297500", "180813.787500", "180815.277500", "180816.767500", "180818.257500", "180819.747500", "180821.237500", "180822.727500", "180824.217500", "180825.707500", "180827.197500", "180828.687500", "180830.177500", "180831.667500", "180833.157500", "180834.647500"],
      "ContentTime": ["175759.167000", "175759.171000", "175759.174000", "175759.176000", "175759.179000", "175759.182000", "175759.185000", "175759.188000", "175759.191000", "175759.194000", "175759.196000", "175759.199000", "175759.202000", "175759.205000", "175759.208000", "175759.211000", "175759.213000", "175759.216000", "175759.219000", "175759.222000", "175759.225000", "175819.121000", "175819.124000", "175819.127000", "175819.129000", "175819.132000", "175819.135000", "175819.138000", "175819.141000", "175819.144000", "175819.146000", "175819.149000", "175819.152000", "175819.155000", "175819.158000", "175819.166000", "175819.169000", "175819.172000", "175819.175000", "175819.177000", "175819.180000", "175839.120000", "175839.123000", "175839.125000", "175839.128000", "175839.131000", "175839.134000", "175839.136000", "175839.139000", "175839.142000", "175839.145000", "175839.148000", "175839.151000", "175839.153000", "175839.156000", "175839.159000", "175839.162000", "175839.165000", "175839.167000", "175839.170000", "175839.173000", "175859.120000", "175859.123000", "175859.125000", "175859.128000", "175859.131000", "175859.134000", "175859.137000", "175859.139000", "175859.142000", "175859.145000", "175859.148000", "175859.150000", "175859.153000", "175859.156000", "175859.159000", "175859.161000", "175859.164000", "175859.167000", "175859.170000", "175859.173000", "175859.175000", "175919.120000", "175919.123000", "175919.125000", "175919.128000", "175919.131000", "175919.134000", "175919.136000", "175919.139000", "175919.142000", "175919.145000", "175919.148000", "175919.151000", "175919.153000", "175919.156000", "175919.159000", "175919.162000", "175919.164000", "175919.167000", "175919.170000", "175919.173000", "175959.120000", "175959.123000", "175959.125000", "175959.128000", "175959.137000", "175959.140000", "175959.143000", "175959.146000", "175959.149000", "175959.151000", "175959.154000", "175959.157000", "175959.160000", "175959.163000", "175959.166000", "175959.168000", "175959.171000", "175959.174000", "175959.177000", "175959.180000", "175959.182000", "175959.185000", "175959.188000", "175959.191000", "175959.194000", "175959.196000", "175959.199000", "180039.121000", "180039.124000", "180039.127000", "180039.129000", "180039.132000", "180039.135000", "180039.138000", "180039.141000", "180039.143000", "180039.146000", "180039.149000", "180039.152000", "180039.155000", "180039.157000", "180039.160000", "180039.163000", "180039.166000", "180039.169000", "180039.171000", "180039.174000", "180039.177000", "180039.180000", "180039.182000", "180039.185000", "180039.188000", "180039.191000", "180039.194000", "180119.120000", "180119.123000", "180119.125000", "180119.128000", "180119.131000", "180119.134000", "180119.137000", "180119.139000", "180119.142000", "180119.145000", "180119.148000", "180119.151000", "180119.153000", "180119.156000", "180119.159000", "180119.162000", "180119.165000", "180119.167000", "180119.170000", "180119.173000", "180119.176000", "180119.179000", "180119.181000", "180119.184000", "180119.187000", "180119.190000", "180119.192000", "180159.120000", "180159.123000", "180159.126000", "180159.128000", "180159.131000", "180159.134000", "180159.137000", "180159.140000", "180159.142000", "180159.145000", "180159.148000", "180159.151000", "180159.154000", "180159.156000", "180159.159000", "180159.162000", "180159.166000", "180159.169000", "180159.172000", "180159.174000", "180159.177000", "180159.180000", "180159.183000", "180159.186000", "180159.188000", "180159.191000", "180159.194000", "180239.121000", "180239.124000", "180239.127000", "180239.129000", "180239.132000", "180239.135000", "180239.138000", "180239.141000", "180239.143000", "180239.146000", "180239.149000", "180239.152000", "180239.155000", "180239.157000", "180239.160000", "180239.163000", "180239.166000", "180239.169000", "180239.171000", "180239.174000", "180239.177000", "180239.180000", "180239.182000", "180239.185000", "180239.188000", "180239.191000", "180239.194000", "180319.120000", "180319.123000", "180319.126000", "180319.129000", "180319.135000", "180319.138000", "180319.140000", "180319.143000", "180319.146000", "180319.149000", "180319.152000", "180319.154000", "180319.161000", "180319.164000", "180319.166000", "180319.169000", "180319.172000", "180319.175000", "180319.178000", "180319.181000", "180319.184000", "180319.187000", "180319.189000", "180319.192000", "180319.195000", "180319.198000", "180319.201000", "180359.120000", "180359.123000", "180359.126000", "180359.137000", "180359.140000", "180359.143000", "180359.146000", "180359.149000", "180359.153000", "180359.155000", "180359.158000", "180359.161000", "180359.164000", "180359.167000", "180359.169000", "180359.172000", "180359.175000", "180359.178000", "180359.181000", "180359.184000", "180359.186000", "180359.189000", "180359.192000", "180359.195000", "180359.198000", "180359.200000", "180439.120000", "180439.123000", "180439.126000", "180439.129000", "180439.132000", "180439.135000", "180439.137000", "180439.140000", "180439.143000", "180439.146000", "180439.149000", "180439.152000", "180439.154000", "180439.157000", "180439.160000", "180439.163000", "180439.166000", "180439.168000", "180439.171000", "180439.174000", "180439.177000", "180439.180000", "180439.183000", "180439.185000", "180439.188000", "180439.198000", "180439.201000", "180519.121000", "180519.124000", "180519.127000", "180519.129000", "180519.133000", "180519.135000", "180519.138000", "180519.141000", "180519.144000", "180519.147000", "180519.150000", "180519.152000", "180519.155000", "180519.158000", "180519.161000", "180519.164000", "180519.167000", "180519.169000", "180519.172000", "180519.175000", "180519.178000", "180519.181000", "180519.184000", "180519.187000", "180519.190000", "180519.193000", "180519.195000", "180559.120000", "180559.123000", "180559.126000", "180559.129000", "180559.131000", "180559.134000", "180559.137000", "180559.140000", "180559.143000", "180559.146000", "180559.149000", "180559.152000", "180559.154000", "180559.157000", "180559.160000", "180559.163000", "180559.166000", "180559.169000", "180559.172000", "180559.175000", "180559.177000", "180559.180000", "180559.183000", "180559.186000", "180559.189000", "180559.192000", "180559.194000", "180639.120000", "180639.123000", "180639.126000", "180639.129000", "180639.132000", "180639.134000", "180639.137000", "180639.140000", "180639.143000", "180639.146000", "180639.149000", "180639.152000", "180639.154000", "180639.157000", "180639.160000", "180639.163000", "180639.166000", "180639.169000", "180639.172000", "180639.175000", "180639.178000", "180639.180000", "180639.183000", "180639.186000", "180639.189000", "180639.192000", "180639.195000", "180719.121000", "180719.124000", "180719.127000", "180719.130000", "180719.132000", "180719.135000", "180719.138000", "180719.141000", "180719.144000", "180719.147000", "180719.150000", "180719.152000", "180719.155000", "180719.158000", "180719.161000", "180719.164000", "180719.167000", "180719.170000", "180719.172000", "180719.175000", "180719.178000", "180719.181000", "180719.184000", "180719.187000", "180719.190000", "180719.192000", "180719.195000", "180759.120000", "180759.123000", "180759.126000", "180759.129000", "180759.131000", "180759.134000", "180759.137000", "180759.140000", "180759.143000", "180759.146000", "180759.149000", "180759.152000", "180759.154000", "180759.157000", "180759.160000", "180759.163000", "180759.166000", "180759.169000", "180759.172000", "180759.175000", "180759.180000", "180759.182000", "180759.185000", "180759.188000", "180759.191000", "180759.194000", "180819.120000", "180819.123000", "180819.126000", "180819.129000", "180819.131000", "180819.134000", "180819.137000", "180819.140000", "180819.143000", "180819.146000", "180819.148000", "180819.151000", "180819.154000", "180819.157000", "180836.466000", "180836.469000", "180836.472000", "180836.475000", "180836.492000", "180836.495000", "180836.506000", "180836.509000", "180836.512000", "180836.515000", "180836.518000", "180836.521000"],
