{
  "AcquisitionMatrixPE": 104,
  "AcquisitionNumber": 1,
  "AcquisitionTime": "18:09:6.990000",
  "BandwidthPerPixelPhaseEncode": 17.17,
  "BaseResolution": 104,
  "BodyPartExamined": "BRAIN",
  "CoilString": "HC1-7;NC1_2",
  "ConsistencyInfo": "N4_VE11C_LATEST_20160120",
  "ConversionSoftware": "dcm2niix",
  "ConversionSoftwareVersion": "v1.0.20190720  (JP2:OpenJPEG) GCC7.3.0",
  "DerivedVendorReportedEchoSpacing": 0.000560011,
  "DeviceSerialNumber": "167006",
  "DwellTime": 2.1e-06,
  "EchoTime": 0.037,
  "EchoTrainLength": 104,
  "EffectiveEchoSpacing": 0.000560011,
  "FlipAngle": 52,
  "ImageComments": "Unaliased_MB4_PE3_LB",
  "ImageOrientationPatientDICOM": [0.998437, 0.0446922, 0.0335591, -0.0325982, 0.953423, -0.299869],
  "ImageType": [
    "ORIGINAL",
    "PRIMARY",
    "M",
    "MB",
    "ND",
    "MOSAIC"
],
  "ImagingFrequency": 123.259,
  "InPlanePhaseEncodingDirectionDICOM": "COL",
  "InstitutionAddress": "Chemin_Queen-Mary_4565_Montreal_District_CA_H3W_1W5",
  "InstitutionName": "IUGM",
  "InstitutionalDepartmentName": "Department",
  "MRAcquisitionType": "2D",
  "MagneticFieldStrength": 3,
  "Manufacturer": "Siemens",
  "ManufacturersModelName": "Prisma_fit",
  "Modality": "MR",
  "MultibandAccelerationFactor": 4,
  "PartialFourier": 1,
  "PatientPosition": "HFS",
  "PercentPhaseFOV": 100,
  "PhaseEncodingDirection": "j",
  "PhaseEncodingSteps": 104,
  "PhaseResolution": 1,
  "PixelBandwidth": 2290,
  "ProcedureStepDescription": "video_friends",
  "ProtocolName": "func_task-friends-s01e16a",
  "PulseSequenceDetails": "%CustomerSeq%_cmrr_mbep2d_bold",
  "ReceiveCoilActiveElements": "HC1-7;NC1,2",
  "ReceiveCoilName": "HeadNeck_64",
  "ReconMatrixPE": 104,
  "RepetitionTime": 1.49,
  "SAR": 0.035718,
  "ScanOptions": "FS",
  "ScanningSequence": "EP",
  "SequenceName": "epfid2d1_104",
  "SequenceVariant": "SK_SS",
  "SeriesDescription": "func_task-friends-s01e16a",
  "SeriesNumber": 13,
  "ShimSetting": [640, -7201, -8813, 732, 103, -21, 26, -16],
  "SliceThickness": 2,
  "SliceTiming": [0, 0.785, 0.1, 0.8825, 0.1975, 0.98, 0.295, 1.08, 0.3925, 1.1775, 0.49, 1.275, 0.59, 1.3725, 0.6875, 0, 0.785, 0.1, 0.8825, 0.1975, 0.98, 0.295, 1.08, 0.3925, 1.1775, 0.49, 1.275, 0.59, 1.3725, 0.6875, 0, 0.785, 0.1, 0.8825, 0.1975, 0.98, 0.295, 1.08, 0.3925, 1.1775, 0.49, 1.275, 0.59, 1.3725, 0.6875, 0, 0.785, 0.1, 0.8825, 0.1975, 0.98, 0.295, 1.08, 0.3925, 1.1775, 0.49, 1.275, 0.59, 1.3725, 0.6875],
  "SoftwareVersions": "syngo_MR_E11",
  "SpacingBetweenSlices": 2,
  "StationName": "MRC35049",
  "TaskName": "friends",
  "TotalReadoutTime": 0.0576811,
  "TxRefAmp": 242.361,
  "WipMemBlock": "716f2df9-d567-446c-9018-b0aa958dc426||Sequence: R016 ve11c/master r/e634e98; Dec 19 2017 11:00:25 by eja",
  "dcmmeta_affine": [
    [-1.9968739748001099, -0.06519633531570435, 0.09079571813344955, 104.0084228515625],
    [-0.08938437700271606, 1.906846284866333, -0.5966134071350098, -67.76251983642578],
    [0.06711823493242264, 0.5997387170791626, 1.9067796468734741, -56.008522033691406],
    [0.0, 0.0, 0.0, 1.0]
],
  "dcmmeta_reorient_transform": [
    [0.0, -1.0, 0.0, 103.0],
    [1.0, 0.0, 0.0, 0.0],
    [0.0, 0.0, 1.0, 0.0],
    [0.0, 0.0, 0.0, 1.0]
],
  "dcmmeta_shape": [104, 104, 60, 483],
  "dcmmeta_slice_dim": 2,
  "dcmmeta_version": 0.6,
  "global": {
    "const": {
      "AcquisitionMatrix": [104, 0, 0, 104],
      "AngioFlag": "N",
      "BitsAllocated": 16,
      "BitsStored": 16,
      "BodyPartExamined": "BRAIN",
      "Columns": 832,
      "EchoNumbers": 1,
      "EchoTime": 37.0,
      "EchoTrainLength": 104,
      "FlipAngle": 52.0,
      "HighBit": 15,
      "ImageOrientationPatient": [0.99843697530817, 0.04469219004665, 0.03355911927203, -0.0325981692385, 0.95342316192034, -0.299869361016],
      "ImagePositionPatient": [-800.42384917439, -855.27063021568, 199.63842137814],
      "ImageType": [
        "ORIGINAL",
        "PRIMARY",
        "M",
        "MB",
        "ND",
        "MOSAIC"
],
      "ImagedNucleus": "1H",
      "ImagingFrequency": 123.259122,
      "InPlanePhaseEncodingDirection": "COL",
      "MRAcquisitionType": "2D",
      "MagneticFieldStrength": 3.0,
      "Manufacturer": "SIEMENS",
      "ManufacturerModelName": "Prisma_fit",
      "Modality": "MR",
      "NumberOfAverages": 1.0,
      "NumberOfPhaseEncodingSteps": 104,
      "PercentPhaseFieldOfView": 100.0,
      "PercentSampling": 100.0,
      "PerformedProcedureStepStartTime": "170859.098000",
      "PhotometricInterpretation": "MONOCHROME2",
      "PixelBandwidth": 2290.0,
      "PixelRepresentation": 0,
      "PixelSpacing": [2.0, 2.0],
      "ProtocolName": "func_task-friends-s01e16a",
      "RepetitionTime": 1490.0,
      "Rows": 832,
      "SAR": 0.03571796547211,
      "SamplesPerPixel": 1,
      "ScanOptions": "FS",
      "ScanningSequence": "EP",
      "SequenceName": "epfid2d1_104",
      "SequenceVariant": [
        "SK",
        "SS"
],
      "SeriesDescription": "func_task-friends-s01e16a",
      "SeriesNumber": 13,
      "SeriesTime": "181027.107000",
      "SliceLocation": -28.462183580921,
      "SliceThickness": 2.0,
      "SmallestImagePixelValue": 0,
      "SoftwareVersions": "syngo MR E11",
      "SpacingBetweenSlices": 1.9999999964653,
      "SpecificCharacterSet": "ISO_IR 100",
      "StudyID": "1",
      "StudyTime": "170858.981000",
      "TransmitCoilName": "Body",
      "VariableFlipAngleFlag": "N",
      "WindowCenterWidthExplanation": "Algo1",
      "dBdt": 0.0},
    "slices": {}
  },
  "time": {
    "samples": {
      "AcquisitionNumber": [1, 2, 3, 4, 5, 6, 7, 8, 9, 10, 11, 12, 13, 14, 15, 16, 17, 18, 19, 20, 21, 22, 23, 24, 25, 26, 27, 28, 29, 30, 31, 32, 33, 34, 35, 36, 37, 38, 39, 40, 41, 42, 43, 44, 45, 46, 47, 48, 49, 50, 51, 52, 53, 54, 55, 56, 57, 58, 59, 60, 61, 62, 63, 64, 65, 66, 67, 68, 69, 70, 71, 72, 73, 74, 75, 76, 77, 78, 79, 80, 81, 82, 83, 84, 85, 86, 87, 88, 89, 90, 91, 92, 93, 94, 95, 96, 97, 98, 99, 100, 101, 102, 103, 104, 105, 106, 107, 108, 109, 110, 111, 112, 113, 114, 115, 116, 117, 118, 119, 120, 121, 122, 123, 124, 125, 126, 127, 128, 129, 130, 131, 132, 133, 134, 135, 136, 137, 138, 139, 140, 141, 142, 143, 144, 145, 146, 147, 148, 149, 150, 151, 152, 153, 154, 155, 156, 157, 158, 159, 160, 161, 162, 163, 164, 165, 166, 167, 168, 169, 170, 171, 172, 173, 174, 175, 176, 177, 178, 179, 180, 181, 182, 183, 184, 185, 186, 187, 188, 189, 190, 191, 192, 193, 194, 195, 196, 197, 198, 199, 200, 201, 202, 203, 204, 205, 206, 207, 208, 209, 210, 211, 212, 213, 214, 215, 216, 217, 218, 219, 220, 221, 222, 223, 224, 225, 226, 227, 228, 229, 230, 231, 232, 233, 234, 235, 236, 237, 238, 239, 240, 241, 242, 243, 244, 245, 246, 247, 248, 249, 250, 251, 252, 253, 254, 255, 256, 257, 258, 259, 260, 261, 262, 263, 264, 265, 266, 267, 268, 269, 270, 271, 272, 273, 274, 275, 276, 277, 278, 279, 280, 281, 282, 283, 284, 285, 286, 287, 288, 289, 290, 291, 292, 293, 294, 295, 296, 297, 298, 299, 300, 301, 302, 303, 304, 305, 306, 307, 308, 309, 310, 311, 312, 313, 314, 315, 316, 317, 318, 319, 320, 321, 322, 323, 324, 325, 326, 327, 328, 329, 330, 331, 332, 333, 334, 335, 336, 337, 338, 339, 340, 341, 342, 343, 344, 345, 346, 347, 348, 349, 350, 351, 352, 353, 354, 355, 356, 357, 358, 359, 360, 361, 362, 363, 364, 365, 366, 367, 368, 369, 370, 371, 372, 373, 374, 375, 376, 377, 378, 379, 380, 381, 382, 383, 384, 385, 386, 387, 388, 389, 390, 391, 392, 393, 394, 395, 396, 397, 398, 399, 400, 401, 402, 403, 404, 405, 406, 407, 408, 409, 410, 411, 412, 413, 414, 415, 416, 417, 418, 419, 420, 421, 422, 423, 424, 425, 426, 427, 428, 429, 430, 431, 432, 433, 434, 435, 436, 437, 438, 439, 440, 441, 442, 443, 444, 445, 446, 447, 448, 449, 450, 451, 452, 453, 454, 455, 456, 457, 458, 459, 460, 461, 462, 463, 464, 465, 466, 467, 468, 469, 470, 471, 472, 473, 474, 475, 476, 477, 478, 479, 480, 481, 482, 483],
      "AcquisitionTime": ["180906.990000", "180908.480000", "180909.970000", "180911.460000", "180912.950000", "180914.440000", "180915.930000", "180917.420000", "180918.910000", "180920.400000", "180921.890000", "180923.380000", "180924.870000", "180926.360000", "180927.850000", "180929.340000", "180930.830000", "180932.320000", "180933.810000", "180935.300000", "180936.790000", "180938.280000", "180939.770000", "180941.260000", "180942.750000", "180944.240000", "180945.730000", "180947.220000", "180948.710000", "180950.200000", "180951.690000", "180953.180000", "180954.670000", "180956.160000", "180957.650000", "180959.140000", "181000.630000", "181002.120000", "181003.610000", "181005.100000", "181006.590000", "181008.080000", "181009.570000", "181011.060000", "181012.550000", "181014.040000", "181015.530000", "181017.020000", "181018.510000", "181020.000000", "181021.490000", "181022.980000", "181024.470000", "181025.960000", "181027.450000", "181028.940000", "181030.430000", "181031.920000", "181033.410000", "181034.900000", "181036.390000", "181037.880000", "181039.370000", "181040.860000", "181042.350000", "181043.840000", "181045.330000", "181046.820000", "181048.310000", "181049.800000", "181051.290000", "181052.780000", "181054.270000", "181055.760000", "181057.250000", "181058.740000", "181100.230000", "181101.720000", "181103.210000", "181104.700000", "181106.190000", "181107.680000", "181109.170000", "181110.660000", "181112.150000", "181113.640000", "181115.130000", "181116.620000", "181118.110000", "181119.600000", "181121.090000", "181122.580000", "181124.070000", "181125.560000", "181127.050000", "181128.540000", "181130.030000", "181131.520000", "181133.010000", "181134.500000", "181135.990000", "181137.480000", "181138.970000", "181140.460000", "181141.950000", "181143.440000", "181144.930000", "181146.420000", "181147.910000", "181149.400000", "181150.890000", "181152.380000", "181153.870000", "181155.360000", "181156.850000", "181158.340000", "181159.830000", "181201.320000", "181202.810000", "181204.300000", "181205.790000", "181207.280000", "181208.770000", "181210.260000", "181211.750000", "181213.240000", "181214.730000", "181216.220000", "181217.710000", "181219.200000", "181220.690000", "181222.180000", "181223.670000", "181225.160000", "181226.650000", "181228.140000", "181229.630000", "181231.120000", "181232.610000", "181234.100000", "181235.590000", "181237.080000", "181238.570000", "181240.060000", "181241.550000", "181243.040000", "181244.530000", "181246.020000", "181247.510000", "181249.000000", "181250.490000", "181251.980000", "181253.470000", "181254.960000", "181256.450000", "181257.940000", "181259.430000", "181300.920000", "181302.410000", "181303.900000", "181305.390000", "181306.880000", "181308.370000", "181309.860000", "181311.350000", "181312.840000", "181314.330000", "181315.820000", "181317.310000", "181318.800000", "181320.290000", "181321.780000", "181323.270000", "181324.760000", "181326.250000", "181327.740000", "181329.230000", "181330.720000", "181332.210000", "181333.700000", "181335.190000", "181336.680000", "181338.170000", "181339.660000", "181341.150000", "181342.640000", "181344.130000", "181345.620000", "181347.110000", "181348.600000", "181350.090000", "181351.580000", "181353.070000", "181354.560000", "181356.050000", "181357.540000", "181359.030000", "181400.520000", "181402.010000", "181403.500000", "181404.990000", "181406.480000", "181407.970000", "181409.460000", "181410.950000", "181412.440000", "181413.930000", "181415.420000", "181416.910000", "181418.400000", "181419.890000", "181421.380000", "181422.870000", "181424.360000", "181425.850000", "181427.340000", "181428.830000", "181430.320000", "181431.810000", "181433.300000", "181434.790000", "181436.280000", "181437.770000", "181439.260000", "181440.750000", "181442.240000", "181443.730000", "181445.220000", "181446.710000", "181448.200000", "181449.690000", "181451.180000", "181452.670000", "181454.160000", "181455.650000", "181457.140000", "181458.630000", "181500.120000", "181501.610000", "181503.100000", "181504.590000", "181506.080000", "181507.570000", "181509.060000", "181510.550000", "181512.040000", "181513.530000", "181515.020000", "181516.510000", "181518.000000", "181519.490000", "181520.980000", "181522.470000", "181523.960000", "181525.450000", "181526.940000", "181528.430000", "181529.920000", "181531.410000", "181532.900000", "181534.390000", "181535.880000", "181537.370000", "181538.860000", "181540.350000", "181541.840000", "181543.330000", "181544.820000", "181546.310000", "181547.800000", "181549.290000", "181550.780000", "181552.270000", "181553.760000", "181555.250000", "181556.740000", "181558.230000", "181559.720000", "181601.210000", "181602.700000", "181604.190000", "181605.680000", "181607.170000", "181608.660000", "181610.150000", "181611.640000", "181613.130000", "181614.620000", "181616.110000", "181617.600000", "181619.090000", "181620.580000", "181622.070000", "181623.560000", "181625.050000", "181626.540000", "181628.030000", "181629.520000", "181631.010000", "181632.500000", "181633.990000", "181635.480000", "181636.970000", "181638.460000", "181639.950000", "181641.440000", "181642.930000", "181644.420000", "181645.910000", "181647.400000", "181648.890000", "181650.380000", "181651.870000", "181653.360000", "181654.850000", "181656.340000", "181657.830000", "181659.320000", "181700.810000", "181702.300000", "181703.790000", "181705.280000", "181706.770000", "181708.260000", "181709.750000", "181711.240000", "181712.730000", "181714.220000", "181715.710000", "181717.200000", "181718.690000", "181720.180000", "181721.670000", "181723.160000", "181724.650000", "181726.140000", "181727.630000", "181729.120000", "181730.610000", "181732.100000", "181733.590000", "181735.080000", "181736.570000", "181738.060000", "181739.550000", "181741.040000", "181742.530000", "181744.020000", "181745.510000", "181747.000000", "181748.490000", "181749.980000", "181751.470000", "181752.960000", "181754.450000", "181755.940000", "181757.430000", "181758.920000", "181800.410000", "181801.900000", "181803.390000", "181804.880000", "181806.370000", "181807.860000", "181809.350000", "181810.840000", "181812.330000", "181813.820000", "181815.310000", "181816.800000", "181818.290000", "181819.780000", "181821.270000", "181822.760000", "181824.250000", "181825.740000", "181827.230000", "181828.720000", "181830.210000", "181831.700000", "181833.190000", "181834.680000", "181836.170000", "181837.660000", "181839.150000", "181840.640000", "181842.130000", "181843.620000", "181845.110000", "181846.600000", "181848.090000", "181849.580000", "181851.070000", "181852.560000", "181854.050000", "181855.540000", "181857.030000", "181858.520000", "181900.010000", "181901.500000", "181902.990000", "181904.480000", "181905.970000", "181907.460000", "181908.950000", "181910.440000", "181911.930000", "181913.420000", "181914.910000", "181916.400000", "181917.890000", "181919.380000", "181920.870000", "181922.360000", "181923.850000", "181925.340000", "181926.830000", "181928.320000", "181929.810000", "181931.300000", "181932.790000", "181934.280000", "181935.770000", "181937.260000", "181938.750000", "181940.240000", "181941.730000", "181943.220000", "181944.710000", "181946.200000", "181947.690000", "181949.180000", "181950.670000", "181952.160000", "181953.650000", "181955.140000", "181956.630000", "181958.120000", "181959.610000", "182001.100000", "182002.590000", "182004.080000", "182005.570000", "182007.060000", "182008.550000", "182010.040000", "182011.530000", "182013.020000", "182014.510000", "182016.000000", "182017.490000", "182018.980000", "182020.470000", "182021.960000", "182023.450000", "182024.940000", "182026.430000", "182027.920000", "182029.410000", "182030.900000", "182032.390000", "182033.880000", "182035.370000", "182036.860000", "182038.350000", "182039.840000", "182041.330000", "182042.820000", "182044.310000", "182045.800000", "182047.290000", "182048.780000", "182050.270000", "182051.760000", "182053.250000", "182054.740000", "182056.230000", "182057.720000", "182059.210000", "182100.700000", "182102.190000", "182103.680000", "182105.170000"],
      "ContentTime": ["181027.110000", "181027.113000", "181027.116000", "181027.119000", "181027.122000", "181027.125000", "181027.127000", "181027.130000", "181027.133000", "181027.136000", "181027.139000", "181027.142000", "181027.144000", "181027.147000", "181027.159000", "181027.162000", "181027.165000", "181027.167000", "181027.170000", "181027.173000", "181027.176000", "181027.179000", "181027.181000", "181027.184000", "181027.187000", "181047.076000", "181047.079000", "181047.082000", "181047.090000", "181047.092000", "181047.095000", "181047.098000", "181047.101000", "181047.104000", "181047.113000", "181047.116000", "181047.119000", "181047.121000", "181047.124000", "181047.127000", "181047.130000", "181047.133000", "181047.136000", "181047.138000", "181047.141000", "181047.144000", "181107.077000", "181107.080000", "181107.083000", "181107.086000", "181107.088000", "181107.091000", "181107.094000", "181107.097000", "181107.100000", "181107.107000", "181107.110000", "181107.113000", "181107.115000", "181107.118000", "181107.121000", "181107.124000", "181107.127000", "181107.129000", "181107.132000", "181107.135000", "181127.076000", "181127.079000", "181127.082000", "181127.084000", "181127.087000", "181127.090000", "181127.093000", "181127.095000", "181127.098000", "181127.101000", "181127.104000", "181127.106000", "181127.109000", "181127.112000", "181127.115000", "181127.117000", "181127.120000", "181127.123000", "181127.126000", "181127.128000", "181147.076000", "181147.079000", "181147.081000", "181147.084000", "181147.087000", "181147.090000", "181147.093000", "181147.096000", "181147.099000", "181147.101000", "181147.104000", "181147.107000", "181147.110000", "181147.112000", "181147.115000", "181147.118000", "181147.121000", "181147.123000", "181147.126000", "181147.129000", "181227.076000", "181227.079000", "181227.082000", "181227.084000", "181227.087000", "181227.090000", "181227.093000", "181227.095000", "181227.098000", "181227.101000", "181227.104000", "181227.107000", "181227.109000", "181227.112000", "181227.115000", "181227.118000", "181227.121000", "181227.123000", "181227.126000", "181227.129000", "181227.132000", "181227.134000", "181227.137000", "181227.140000", "181227.143000", "181227.145000", "181227.148000", "181307.076000", "181307.079000", "181307.082000", "181307.085000", "181307.087000", "181307.090000", "181307.093000", "181307.096000", "181307.098000", "181307.101000", "181307.104000", "181307.107000", "181307.110000", "181307.112000", "181307.115000", "181307.118000", "181307.121000", "181307.124000", "181307.126000", "181307.129000", "181307.132000", "181307.135000", "181307.137000", "181307.140000", "181307.143000", "181307.146000", "181307.148000", "181347.076000", "181347.079000", "181347.082000", "181347.085000", "181347.087000", "181347.090000", "181347.093000", "181347.096000", "181347.098000", "181347.101000", "181347.104000", "181347.107000", "181347.110000", "181347.128000", "181347.131000", "181347.134000", "181347.136000", "181347.139000", "181347.142000", "181347.145000", "181347.148000", "181347.150000", "181347.153000", "181347.156000", "181347.159000", "181347.162000", "181347.164000", "181427.076000", "181427.079000", "181427.081000", "181427.084000", "181427.087000", "181427.090000", "181427.093000", "181427.096000", "181427.098000", "181427.101000", "181427.104000", "181427.107000", "181427.109000", "181427.112000", "181427.115000", "181427.118000", "181427.121000", "181427.124000", "181427.126000", "181427.129000", "181427.132000", "181427.135000", "181427.137000", "181427.140000", "181427.143000", "181427.146000", "181427.149000", "181507.076000", "181507.079000", "181507.082000", "181507.085000", "181507.088000", "181507.090000", "181507.093000", "181507.096000", "181507.099000", "181507.102000", "181507.104000", "181507.107000", "181507.110000", "181507.113000", "181507.116000", "181507.119000", "181507.122000", "181507.125000", "181507.127000", "181507.130000", "181507.133000", "181507.136000", "181507.139000", "181507.142000", "181507.145000", "181507.147000", "181507.150000", "181547.077000", "181547.080000", "181547.083000", "181547.088000", "181547.091000", "181547.094000", "181547.097000", "181547.100000", "181547.102000", "181547.105000", "181547.108000", "181547.111000", "181547.114000", "181547.117000", "181547.120000", "181547.123000", "181547.125000", "181547.128000", "181547.131000", "181547.134000", "181547.137000", "181547.140000", "181547.142000", "181547.145000", "181547.148000", "181547.151000", "181547.154000", "181627.076000", "181627.079000", "181627.082000", "181627.085000", "181627.088000", "181627.090000", "181627.093000", "181627.096000", "181627.099000", "181627.102000", "181627.105000", "181627.108000", "181627.111000", "181627.114000", "181627.116000", "181627.119000", "181627.122000", "181627.125000", "181627.128000", "181627.131000", "181627.134000", "181627.136000", "181627.139000", "181627.142000", "181627.145000", "181627.148000", "181707.076000", "181707.079000", "181707.082000", "181707.085000", "181707.088000", "181707.091000", "181707.094000", "181707.096000", "181707.099000", "181707.102000", "181707.105000", "181707.108000", "181707.111000", "181707.114000", "181707.116000", "181707.119000", "181707.122000", "181707.125000", "181707.128000", "181707.130000", "181707.133000", "181707.136000", "181707.139000", "181707.142000", "181707.144000", "181707.147000", "181707.150000", "181747.077000", "181747.080000", "181747.083000", "181747.086000", "181747.089000", "181747.091000", "181747.094000", "181747.097000", "181747.100000", "181747.103000", "181747.106000", "181747.109000", "181747.111000", "181747.114000", "181747.117000", "181747.120000", "181747.123000", "181747.126000", "181747.129000", "181747.132000", "181747.135000", "181747.137000", "181747.140000", "181747.143000", "181747.146000", "181747.149000", "181747.152000", "181827.076000", "181827.079000", "181827.082000", "181827.085000", "181827.088000", "181827.090000", "181827.093000", "181827.096000", "181827.099000", "181827.102000", "181827.105000", "181827.108000", "181827.111000", "181827.128000", "181827.131000", "181827.133000", "181827.136000", "181827.139000", "181827.142000", "181827.145000", "181827.148000", "181827.150000", "181827.153000", "181827.156000", "181827.159000", "181827.162000", "181827.165000", "181907.076000", "181907.079000", "181907.082000", "181907.085000", "181907.088000", "181907.091000", "181907.094000", "181907.096000", "181907.099000", "181907.102000", "181907.105000", "181907.108000", "181907.111000", "181907.114000", "181907.116000", "181907.119000", "181907.122000", "181907.125000", "181907.128000", "181907.131000", "181907.133000", "181907.136000", "181907.139000", "181907.142000", "181907.145000", "181907.148000", "181907.150000", "181947.076000", "181947.079000", "181947.082000", "181947.084000", "181947.088000", "181947.090000", "181947.093000", "181947.096000", "181947.099000", "181947.102000", "181947.105000", "181947.108000", "181947.111000", "181947.113000", "181947.116000", "181947.119000", "181947.122000", "181947.125000", "181947.128000", "181947.131000", "181947.134000", "181947.136000", "181947.139000", "181947.142000", "181947.145000", "181947.148000", "181947.151000", "182027.077000", "182027.080000", "182027.083000", "182027.086000", "182027.089000", "182027.092000", "182027.095000", "182027.097000", "182027.100000", "182027.103000", "182027.106000", "182027.109000", "182027.112000", "182027.115000", "182027.117000", "182027.120000", "182027.123000", "182027.126000", "182027.129000", "182027.132000", "182027.134000", "182027.137000", "182027.140000", "182027.143000", "182027.146000", "182027.149000", "182107.076000", "182107.079000", "182107.082000", "182107.085000", "182107.088000", "182107.091000", "182107.094000", "182107.096000", "182107.099000", "182107.102000", "182107.105000", "182107.108000", "182107.111000", "182107.114000", "182107.117000", "182107.119000", "182107.122000", "182107.125000", "182107.128000", "182107.131000", "182107.134000", "182107.137000", "182107.139000", "182107.142000", "182107.145000", "182107.148000", "182107.151000", "182107.693000"],
