{
  "AcquisitionMatrixPE": 104,
  "AcquisitionNumber": 1,
  "AcquisitionTime": "18:34:27.982500",
  "BandwidthPerPixelPhaseEncode": 17.17,
  "BaseResolution": 104,
  "BodyPartExamined": "BRAIN",
  "CoilString": "HC1-7;NC1_2",
  "ConsistencyInfo": "N4_VE11C_LATEST_20160120",
  "ConversionSoftware": "dcm2niix",
  "ConversionSoftwareVersion": "v1.0.20190720  (JP2:OpenJPEG) GCC7.3.0",
  "DerivedVendorReportedEchoSpacing": 0.000560011,
  "DeviceSerialNumber": "167006",
  "DwellTime": 2.1e-06,
  "EchoTime": 0.037,
  "EchoTrainLength": 104,
  "EffectiveEchoSpacing": 0.000560011,
  "FlipAngle": 52,
  "ImageComments": "Unaliased_MB4_PE3_LB",
  "ImageOrientationPatientDICOM": [0.998437, 0.0446922, 0.0335591, -0.0325982, 0.953423, -0.299869],
  "ImageType": [
    "ORIGINAL",
    "PRIMARY",
    "M",
    "MB",
    "ND",
    "MOSAIC"
],
  "ImagingFrequency": 123.259,
  "InPlanePhaseEncodingDirectionDICOM": "COL",
  "InstitutionAddress": "Chemin_Queen-Mary_4565_Montreal_District_CA_H3W_1W5",
  "InstitutionName": "IUGM",
  "InstitutionalDepartmentName": "Department",
  "MRAcquisitionType": "2D",
  "MagneticFieldStrength": 3,
  "Manufacturer": "Siemens",
  "ManufacturersModelName": "Prisma_fit",
  "Modality": "MR",
  "MultibandAccelerationFactor": 4,
  "PartialFourier": 1,
  "PatientPosition": "HFS",
  "PercentPhaseFOV": 100,
  "PhaseEncodingDirection": "j",
  "PhaseEncodingSteps": 104,
  "PhaseResolution": 1,
  "PixelBandwidth": 2290,
  "ProcedureStepDescription": "video_friends",
  "ProtocolName": "func_task-s01e17a",
  "PulseSequenceDetails": "%CustomerSeq%_cmrr_mbep2d_bold",
  "ReceiveCoilActiveElements": "HC1-7;NC1,2",
  "ReceiveCoilName": "HeadNeck_64",
  "ReconMatrixPE": 104,
  "RepetitionTime": 1.49,
  "SAR": 0.035718,
  "ScanOptions": "FS",
  "ScanningSequence": "EP",
  "SequenceName": "epfid2d1_104",
  "SequenceVariant": "SK_SS",
  "SeriesDescription": "func_task-s01e17a",
  "SeriesNumber": 17,
  "ShimSetting": [640, -7201, -8813, 732, 103, -21, 26, -16],
  "SliceThickness": 2,
  "SliceTiming": [0, 0.785, 0.0975, 0.8825, 0.1975, 0.98, 0.295, 1.0775, 0.3925, 1.1775, 0.49, 1.275, 0.5875, 1.3725, 0.6875, 0, 0.785, 0.0975, 0.8825, 0.1975, 0.98, 0.295, 1.0775, 0.3925, 1.1775, 0.49, 1.275, 0.5875, 1.3725, 0.6875, 0, 0.785, 0.0975, 0.8825, 0.1975, 0.98, 0.295, 1.0775, 0.3925, 1.1775, 0.49, 1.275, 0.5875, 1.3725, 0.6875, 0, 0.785, 0.0975, 0.8825, 0.1975, 0.98, 0.295, 1.0775, 0.3925, 1.1775, 0.49, 1.275, 0.5875, 1.3725, 0.6875],
  "SoftwareVersions": "syngo_MR_E11",
  "SpacingBetweenSlices": 2,
  "StationName": "MRC35049",
  "TaskName": "friends",
  "TotalReadoutTime": 0.0576811,
  "TxRefAmp": 242.361,
  "WipMemBlock": "cfced744-3343-4a0e-b696-0f2da941e105||Sequence: R016 ve11c/master r/e634e98; Dec 19 2017 11:00:25 by eja",
  "dcmmeta_affine": [
    [-1.9968739748001099, -0.06519633531570435, 0.09079571813344955, 104.0084228515625],
    [-0.08938437700271606, 1.906846284866333, -0.5966134071350098, -67.76251983642578],
    [0.06711823493242264, 0.5997387170791626, 1.9067796468734741, -56.008522033691406],
    [0.0, 0.0, 0.0, 1.0]
],
  "dcmmeta_reorient_transform": [
    [0.0, -1.0, 0.0, 103.0],
    [1.0, 0.0, 0.0, 0.0],
    [0.0, 0.0, 1.0, 0.0],
    [0.0, 0.0, 0.0, 1.0]
],
  "dcmmeta_shape": [104, 104, 60, 483],
  "dcmmeta_slice_dim": 2,
  "dcmmeta_version": 0.6,
  "global": {
    "const": {
      "AcquisitionMatrix": [104, 0, 0, 104],
      "AngioFlag": "N",
      "BitsAllocated": 16,
      "BitsStored": 16,
      "BodyPartExamined": "BRAIN",
      "Columns": 832,
      "EchoNumbers": 1,
      "EchoTime": 37.0,
      "EchoTrainLength": 104,
      "FlipAngle": 52.0,
      "HighBit": 15,
      "ImageOrientationPatient": [0.99843697530817, 0.04469219004665, 0.03355911927203, -0.0325981692385, 0.95342316192034, -0.299869361016],
      "ImagePositionPatient": [-800.42384917439, -855.27063021568, 199.63842137814],
      "ImageType": [
        "ORIGINAL",
        "PRIMARY",
        "M",
        "MB",
        "ND",
        "MOSAIC"
],
      "ImagedNucleus": "1H",
      "ImagingFrequency": 123.25913,
      "InPlanePhaseEncodingDirection": "COL",
      "MRAcquisitionType": "2D",
      "MagneticFieldStrength": 3.0,
      "Manufacturer": "SIEMENS",
      "ManufacturerModelName": "Prisma_fit",
      "Modality": "MR",
      "NumberOfAverages": 1.0,
      "NumberOfPhaseEncodingSteps": 104,
      "PercentPhaseFieldOfView": 100.0,
      "PercentSampling": 100.0,
      "PerformedProcedureStepStartTime": "170859.098000",
      "PhotometricInterpretation": "MONOCHROME2",
      "PixelBandwidth": 2290.0,
      "PixelRepresentation": 0,
      "PixelSpacing": [2.0, 2.0],
      "ProtocolName": "func_task-s01e17a",
      "RepetitionTime": 1490.0,
      "Rows": 832,
      "SAR": 0.03571796547211,
      "SamplesPerPixel": 1,
      "ScanOptions": "FS",
      "ScanningSequence": "EP",
      "SequenceName": "epfid2d1_104",
      "SequenceVariant": [
        "SK",
        "SS"
],
      "SeriesDescription": "func_task-s01e17a",
      "SeriesNumber": 17,
      "SeriesTime": "183559.146000",
      "SliceLocation": -28.462183580921,
      "SliceThickness": 2.0,
      "SmallestImagePixelValue": 0,
      "SoftwareVersions": "syngo MR E11",
      "SpacingBetweenSlices": 1.9999999964653,
      "SpecificCharacterSet": "ISO_IR 100",
      "StudyID": "1",
      "StudyTime": "170858.981000",
      "TransmitCoilName": "Body",
      "VariableFlipAngleFlag": "N",
      "WindowCenter": 850.0,
      "WindowCenterWidthExplanation": "WINDOW1",
      "WindowWidth": 1100.0,
      "dBdt": 0.0},
    "slices": {}
  },
  "time": {
    "samples": {
      "AcquisitionNumber": [1, 2, 3, 4, 5, 6, 7, 8, 9, 10, 11, 12, 13, 14, 15, 16, 17, 18, 19, 20, 21, 22, 23, 24, 25, 26, 27, 28, 29, 30, 31, 32, 33, 34, 35, 36, 37, 38, 39, 40, 41, 42, 43, 44, 45, 46, 47, 48, 49, 50, 51, 52, 53, 54, 55, 56, 57, 58, 59, 60, 61, 62, 63, 64, 65, 66, 67, 68, 69, 70, 71, 72, 73, 74, 75, 76, 77, 78, 79, 80, 81, 82, 83, 84, 85, 86, 87, 88, 89, 90, 91, 92, 93, 94, 95, 96, 97, 98, 99, 100, 101, 102, 103, 104, 105, 106, 107, 108, 109, 110, 111, 112, 113, 114, 115, 116, 117, 118, 119, 120, 121, 122, 123, 124, 125, 126, 127, 128, 129, 130, 131, 132, 133, 134, 135, 136, 137, 138, 139, 140, 141, 142, 143, 144, 145, 146, 147, 148, 149, 150, 151, 152, 153, 154, 155, 156, 157, 158, 159, 160, 161, 162, 163, 164, 165, 166, 167, 168, 169, 170, 171, 172, 173, 174, 175, 176, 177, 178, 179, 180, 181, 182, 183, 184, 185, 186, 187, 188, 189, 190, 191, 192, 193, 194, 195, 196, 197, 198, 199, 200, 201, 202, 203, 204, 205, 206, 207, 208, 209, 210, 211, 212, 213, 214, 215, 216, 217, 218, 219, 220, 221, 222, 223, 224, 225, 226, 227, 228, 229, 230, 231, 232, 233, 234, 235, 236, 237, 238, 239, 240, 241, 242, 243, 244, 245, 246, 247, 248, 249, 250, 251, 252, 253, 254, 255, 256, 257, 258, 259, 260, 261, 262, 263, 264, 265, 266, 267, 268, 269, 270, 271, 272, 273, 274, 275, 276, 277, 278, 279, 280, 281, 282, 283, 284, 285, 286, 287, 288, 289, 290, 291, 292, 293, 294, 295, 296, 297, 298, 299, 300, 301, 302, 303, 304, 305, 306, 307, 308, 309, 310, 311, 312, 313, 314, 315, 316, 317, 318, 319, 320, 321, 322, 323, 324, 325, 326, 327, 328, 329, 330, 331, 332, 333, 334, 335, 336, 337, 338, 339, 340, 341, 342, 343, 344, 345, 346, 347, 348, 349, 350, 351, 352, 353, 354, 355, 356, 357, 358, 359, 360, 361, 362, 363, 364, 365, 366, 367, 368, 369, 370, 371, 372, 373, 374, 375, 376, 377, 378, 379, 380, 381, 382, 383, 384, 385, 386, 387, 388, 389, 390, 391, 392, 393, 394, 395, 396, 397, 398, 399, 400, 401, 402, 403, 404, 405, 406, 407, 408, 409, 410, 411, 412, 413, 414, 415, 416, 417, 418, 419, 420, 421, 422, 423, 424, 425, 426, 427, 428, 429, 430, 431, 432, 433, 434, 435, 436, 437, 438, 439, 440, 441, 442, 443, 444, 445, 446, 447, 448, 449, 450, 451, 452, 453, 454, 455, 456, 457, 458, 459, 460, 461, 462, 463, 464, 465, 466, 467, 468, 469, 470, 471, 472, 473, 474, 475, 476, 477, 478, 479, 480, 481, 482, 483],
      "AcquisitionTime": ["183427.982500", "183429.472500", "183430.962500", "183432.452500", "183433.942500", "183435.432500", "183436.922500", "183438.412500", "183439.902500", "183441.392500", "183442.882500", "183444.372500", "183445.862500", "183447.352500", "183448.842500", "183450.332500", "183451.822500", "183453.312500", "183454.802500", "183456.292500", "183457.782500", "183459.272500", "183500.762500", "183502.252500", "183503.742500", "183505.232500", "183506.722500", "183508.212500", "183509.702500", "183511.192500", "183512.682500", "183514.172500", "183515.662500", "183517.152500", "183518.642500", "183520.132500", "183521.622500", "183523.112500", "183524.602500", "183526.092500", "183527.582500", "183529.072500", "183530.562500", "183532.052500", "183533.542500", "183535.032500", "183536.522500", "183538.012500", "183539.502500", "183540.992500", "183542.482500", "183543.972500", "183545.462500", "183546.952500", "183548.442500", "183549.932500", "183551.422500", "183552.912500", "183554.402500", "183555.892500", "183557.382500", "183558.872500", "183600.362500", "183601.852500", "183603.342500", "183604.832500", "183606.322500", "183607.812500", "183609.302500", "183610.792500", "183612.282500", "183613.772500", "183615.262500", "183616.752500", "183618.242500", "183619.732500", "183621.222500", "183622.712500", "183624.202500", "183625.692500", "183627.182500", "183628.672500", "183630.162500", "183631.652500", "183633.142500", "183634.632500", "183636.122500", "183637.612500", "183639.102500", "183640.592500", "183642.082500", "183643.572500", "183645.062500", "183646.552500", "183648.042500", "183649.532500", "183651.022500", "183652.512500", "183654.002500", "183655.492500", "183656.982500", "183658.472500", "183659.962500", "183701.452500", "183702.942500", "183704.432500", "183705.922500", "183707.412500", "183708.902500", "183710.392500", "183711.882500", "183713.372500", "183714.862500", "183716.352500", "183717.842500", "183719.332500", "183720.822500", "183722.312500", "183723.802500", "183725.292500", "183726.782500", "183728.272500", "183729.762500", "183731.252500", "183732.742500", "183734.232500", "183735.722500", "183737.212500", "183738.702500", "183740.192500", "183741.682500", "183743.172500", "183744.662500", "183746.152500", "183747.642500", "183749.132500", "183750.622500", "183752.112500", "183753.602500", "183755.092500", "183756.582500", "183758.072500", "183759.562500", "183801.052500", "183802.542500", "183804.032500", "183805.522500", "183807.012500", "183808.502500", "183809.992500", "183811.482500", "183812.972500", "183814.462500", "183815.952500", "183817.442500", "183818.932500", "183820.422500", "183821.912500", "183823.402500", "183824.892500", "183826.382500", "183827.872500", "183829.362500", "183830.852500", "183832.342500", "183833.832500", "183835.322500", "183836.812500", "183838.302500", "183839.792500", "183841.282500", "183842.772500", "183844.262500", "183845.752500", "183847.242500", "183848.732500", "183850.222500", "183851.712500", "183853.202500", "183854.692500", "183856.182500", "183857.672500", "183859.162500", "183900.652500", "183902.142500", "183903.632500", "183905.122500", "183906.612500", "183908.102500", "183909.592500", "183911.082500", "183912.572500", "183914.062500", "183915.552500", "183917.042500", "183918.532500", "183920.022500", "183921.512500", "183923.002500", "183924.492500", "183925.982500", "183927.472500", "183928.962500", "183930.452500", "183931.942500", "183933.432500", "183934.922500", "183936.412500", "183937.902500", "183939.392500", "183940.882500", "183942.372500", "183943.862500", "183945.352500", "183946.842500", "183948.332500", "183949.822500", "183951.312500", "183952.802500", "183954.292500", "183955.782500", "183957.272500", "183958.762500", "184000.252500", "184001.742500", "184003.232500", "184004.722500", "184006.212500", "184007.702500", "184009.192500", "184010.682500", "184012.172500", "184013.662500", "184015.152500", "184016.642500", "184018.132500", "184019.622500", "184021.112500", "184022.602500", "184024.092500", "184025.582500", "184027.072500", "184028.562500", "184030.052500", "184031.542500", "184033.032500", "184034.522500", "184036.012500", "184037.502500", "184038.992500", "184040.482500", "184041.972500", "184043.462500", "184044.952500", "184046.442500", "184047.932500", "184049.422500", "184050.912500", "184052.402500", "184053.892500", "184055.382500", "184056.872500", "184058.362500", "184059.852500", "184101.342500", "184102.832500", "184104.322500", "184105.812500", "184107.302500", "184108.792500", "184110.282500", "184111.772500", "184113.262500", "184114.752500", "184116.242500", "184117.732500", "184119.222500", "184120.712500", "184122.202500", "184123.692500", "184125.182500", "184126.672500", "184128.162500", "184129.652500", "184131.142500", "184132.632500", "184134.122500", "184135.612500", "184137.102500", "184138.592500", "184140.082500", "184141.572500", "184143.062500", "184144.552500", "184146.042500", "184147.532500", "184149.022500", "184150.512500", "184152.002500", "184153.492500", "184154.982500", "184156.472500", "184157.962500", "184159.452500", "184200.942500", "184202.432500", "184203.922500", "184205.412500", "184206.902500", "184208.392500", "184209.882500", "184211.372500", "184212.862500", "184214.352500", "184215.842500", "184217.332500", "184218.822500", "184220.312500", "184221.802500", "184223.292500", "184224.782500", "184226.272500", "184227.762500", "184229.252500", "184230.742500", "184232.232500", "184233.722500", "184235.212500", "184236.702500", "184238.192500", "184239.682500", "184241.172500", "184242.662500", "184244.152500", "184245.642500", "184247.132500", "184248.622500", "184250.112500", "184251.602500", "184253.092500", "184254.582500", "184256.072500", "184257.562500", "184259.052500", "184300.542500", "184302.032500", "184303.522500", "184305.012500", "184306.502500", "184307.992500", "184309.482500", "184310.972500", "184312.462500", "184313.952500", "184315.442500", "184316.932500", "184318.422500", "184319.912500", "184321.402500", "184322.892500", "184324.382500", "184325.872500", "184327.362500", "184328.852500", "184330.342500", "184331.832500", "184333.322500", "184334.812500", "184336.302500", "184337.792500", "184339.282500", "184340.772500", "184342.262500", "184343.752500", "184345.242500", "184346.732500", "184348.222500", "184349.712500", "184351.202500", "184352.692500", "184354.182500", "184355.672500", "184357.162500", "184358.652500", "184400.142500", "184401.632500", "184403.122500", "184404.612500", "184406.102500", "184407.592500", "184409.082500", "184410.572500", "184412.062500", "184413.552500", "184415.042500", "184416.532500", "184418.022500", "184419.512500", "184421.002500", "184422.492500", "184423.982500", "184425.472500", "184426.962500", "184428.452500", "184429.942500", "184431.432500", "184432.922500", "184434.412500", "184435.902500", "184437.392500", "184438.882500", "184440.372500", "184441.862500", "184443.352500", "184444.842500", "184446.332500", "184447.822500", "184449.312500", "184450.802500", "184452.292500", "184453.782500", "184455.272500", "184456.762500", "184458.252500", "184459.742500", "184501.232500", "184502.722500", "184504.212500", "184505.702500", "184507.192500", "184508.682500", "184510.172500", "184511.662500", "184513.152500", "184514.642500", "184516.132500", "184517.622500", "184519.112500", "184520.602500", "184522.092500", "184523.582500", "184525.072500", "184526.562500", "184528.052500", "184529.542500", "184531.032500", "184532.522500", "184534.012500", "184535.502500", "184536.992500", "184538.482500", "184539.972500", "184541.462500", "184542.952500", "184544.442500", "184545.932500", "184547.422500", "184548.912500", "184550.402500", "184551.892500", "184553.382500", "184554.872500", "184556.362500", "184557.852500", "184559.342500", "184600.832500", "184602.322500", "184603.812500", "184605.302500", "184606.792500", "184608.282500", "184609.772500", "184611.262500", "184612.752500", "184614.242500", "184615.732500", "184617.222500", "184618.712500", "184620.202500", "184621.692500", "184623.182500", "184624.672500", "184626.162500"],
      "ContentTime": ["183559.148000", "183559.152000", "183559.155000", "183559.158000", "183559.160000", "183559.163000", "183559.166000", "183559.169000", "183559.172000", "183559.175000", "183559.177000", "183559.180000", "183559.183000", "183559.186000", "183559.189000", "183559.191000", "183559.194000", "183559.197000", "183559.200000", "183559.203000", "183559.213000", "183559.215000", "183559.218000", "183559.221000", "183559.224000", "183559.226000", "183559.229000", "183559.232000", "183559.235000", "183559.238000", "183559.240000", "183559.249000", "183559.252000", "183559.255000", "183619.120000", "183619.123000", "183619.125000", "183619.128000", "183619.131000", "183619.134000", "183619.137000", "183619.140000", "183619.142000", "183619.145000", "183619.148000", "183619.151000", "183619.153000", "183619.156000", "183619.159000", "183619.162000", "183619.164000", "183619.167000", "183619.170000", "183619.173000", "183619.176000", "183639.120000", "183639.123000", "183639.125000", "183639.128000", "183639.131000", "183639.134000", "183639.136000", "183639.139000", "183639.142000", "183639.145000", "183639.148000", "183639.150000", "183639.153000", "183639.156000", "183639.159000", "183639.161000", "183639.164000", "183639.167000", "183639.170000", "183639.173000", "183659.120000", "183659.123000", "183659.125000", "183659.128000", "183659.131000", "183659.134000", "183659.137000", "183659.139000", "183659.142000", "183659.145000", "183659.148000", "183659.151000", "183659.153000", "183659.156000", "183659.159000", "183659.162000", "183659.164000", "183659.167000", "183659.170000", "183659.173000", "183739.121000", "183739.124000", "183739.127000", "183739.129000", "183739.132000", "183739.135000", "183739.138000", "183739.140000", "183739.143000", "183739.146000", "183739.149000", "183739.152000", "183739.154000", "183739.157000", "183739.160000", "183739.163000", "183739.166000", "183739.168000", "183739.171000", "183739.174000", "183739.183000", "183739.186000", "183739.189000", "183739.191000", "183739.194000", "183739.197000", "183739.200000", "183739.203000", "183739.206000", "183739.208000", "183739.211000", "183739.214000", "183739.217000", "183819.120000", "183819.123000", "183819.126000", "183819.129000", "183819.131000", "183819.134000", "183819.137000", "183819.140000", "183819.143000", "183819.145000", "183819.148000", "183819.151000", "183819.154000", "183819.157000", "183819.159000", "183819.162000", "183819.165000", "183819.168000", "183819.171000", "183819.173000", "183819.176000", "183819.179000", "183819.182000", "183819.185000", "183819.188000", "183819.191000", "183859.120000", "183859.123000", "183859.126000", "183859.128000", "183859.131000", "183859.134000", "183859.137000", "183859.140000", "183859.142000", "183859.145000", "183859.148000", "183859.151000", "183859.154000", "183859.156000", "183859.159000", "183859.162000", "183859.165000", "183859.168000", "183859.170000", "183859.173000", "183859.176000", "183859.179000", "183859.182000", "183859.185000", "183859.187000", "183859.190000", "183859.193000", "183939.121000", "183939.124000", "183939.127000", "183939.129000", "183939.132000", "183939.135000", "183939.138000", "183939.141000", "183939.143000", "183939.146000", "183939.149000", "183939.152000", "183939.155000", "183939.157000", "183939.160000", "183939.163000", "183939.166000", "183939.168000", "183939.171000", "183939.174000", "183939.177000", "183939.180000", "183939.183000", "183939.185000", "183939.188000", "183939.191000", "183939.194000", "184019.120000", "184019.123000", "184019.126000", "184019.128000", "184019.131000", "184019.134000", "184019.137000", "184019.140000", "184019.142000", "184019.145000", "184019.148000", "184019.151000", "184019.154000", "184019.157000", "184019.160000", "184019.162000", "184019.165000", "184019.168000", "184019.171000", "184019.174000", "184019.177000", "184019.179000", "184019.182000", "184019.185000", "184019.188000", "184019.191000", "184019.193000", "184059.120000", "184059.123000", "184059.126000", "184059.128000", "184059.131000", "184059.134000", "184059.137000", "184059.140000", "184059.143000", "184059.145000", "184059.148000", "184059.151000", "184059.154000", "184059.157000", "184059.159000", "184059.162000", "184059.165000", "184059.168000", "184059.171000", "184059.173000", "184059.176000", "184059.179000", "184059.182000", "184059.185000", "184059.187000", "184059.190000", "184059.193000", "184139.120000", "184139.123000", "184139.126000", "184139.128000", "184139.131000", "184139.134000", "184139.137000", "184139.140000", "184139.142000", "184139.145000", "184139.148000", "184139.151000", "184139.154000", "184139.157000", "184139.159000", "184139.162000", "184139.165000", "184139.168000", "184139.171000", "184139.174000", "184139.176000", "184139.179000", "184139.182000", "184139.185000", "184139.188000", "184139.190000", "184139.193000", "184219.121000", "184219.124000", "184219.127000", "184219.129000", "184219.132000", "184219.135000", "184219.138000", "184219.141000", "184219.144000", "184219.146000", "184219.149000", "184219.152000", "184219.155000", "184219.158000", "184219.161000", "184219.163000", "184219.166000", "184219.169000", "184219.172000", "184219.175000", "184219.178000", "184219.180000", "184219.183000", "184219.186000", "184219.189000", "184219.191000", "184219.194000", "184259.120000", "184259.123000", "184259.126000", "184259.128000", "184259.131000", "184259.152000", "184259.155000", "184259.158000", "184259.160000", "184259.163000", "184259.166000", "184259.169000", "184259.171000", "184259.175000", "184259.178000", "184259.181000", "184259.184000", "184259.187000", "184259.189000", "184259.192000", "184259.195000", "184259.198000", "184259.201000", "184259.204000", "184259.206000", "184259.209000", "184339.120000", "184339.123000", "184339.126000", "184339.129000", "184339.131000", "184339.134000", "184339.137000", "184339.140000", "184339.143000", "184339.146000", "184339.148000", "184339.151000", "184339.154000", "184339.157000", "184339.160000", "184339.162000", "184339.165000", "184339.168000", "184339.171000", "184339.174000", "184339.176000", "184339.179000", "184339.182000", "184339.185000", "184339.188000", "184339.190000", "184339.193000", "184419.121000", "184419.124000", "184419.127000", "184419.129000", "184419.132000", "184419.135000", "184419.138000", "184419.141000", "184419.143000", "184419.146000", "184419.149000", "184419.152000", "184419.155000", "184419.157000", "184419.160000", "184419.163000", "184419.166000", "184419.169000", "184419.172000", "184419.174000", "184419.177000", "184419.180000", "184419.183000", "184419.186000", "184419.189000", "184419.191000", "184419.194000", "184459.120000", "184459.123000", "184459.126000", "184459.128000", "184459.131000", "184459.134000", "184459.137000", "184459.140000", "184459.143000", "184459.145000", "184459.148000", "184459.151000", "184459.154000", "184459.157000", "184459.159000", "184459.162000", "184459.165000", "184459.168000", "184459.171000", "184459.174000", "184459.177000", "184459.179000", "184459.182000", "184459.185000", "184459.188000", "184459.191000", "184459.194000", "184539.120000", "184539.123000", "184539.126000", "184539.128000", "184539.131000", "184539.134000", "184539.137000", "184539.140000", "184539.143000", "184539.145000", "184539.148000", "184539.151000", "184539.154000", "184539.156000", "184539.159000", "184539.162000", "184539.165000", "184539.168000", "184539.171000", "184539.174000", "184539.176000", "184539.179000", "184539.182000", "184539.185000", "184539.188000", "184539.191000", "184539.193000", "184619.120000", "184619.123000", "184619.126000", "184619.128000", "184619.131000", "184619.134000", "184619.137000", "184619.140000", "184619.142000", "184619.145000", "184619.148000", "184619.151000", "184619.154000", "184619.156000", "184619.159000", "184619.162000", "184619.165000", "184619.168000", "184619.170000", "184619.173000", "184619.176000", "184619.179000", "184619.182000", "184619.185000", "184619.188000", "184619.191000", "184619.193000", "184627.969000", "184627.972000", "184627.975000", "184627.978000", "184627.981000", "184627.984000"],
