{
  "AcquisitionMatrixPE": 104,
  "AcquisitionNumber": 1,
  "AcquisitionTime": "13:28:1.580000",
  "BandwidthPerPixelPhaseEncode": 17.17,
  "BaseResolution": 104,
  "BodyPartExamined": "BRAIN",
  "CoilString": "HC1-7;NC1_2",
  "ConsistencyInfo": "N4_VE11C_LATEST_20160120",
  "ConversionSoftware": "dcm2niix",
  "ConversionSoftwareVersion": "v1.0.20190902",
  "DerivedVendorReportedEchoSpacing": 0.000560011,
  "DeviceSerialNumber": "167006",
  "DwellTime": 2.1e-06,
  "EchoTime": 0.037,
  "EchoTrainLength": 104,
  "EffectiveEchoSpacing": 0.000560011,
  "FlipAngle": 52,
  "ImageComments": "Unaliased_MB4_PE3_LB",
  "ImageOrientationPatientDICOM": [0.999939, 0.000339862, -0.011054, -0.00314141, 0.967084, -0.254437],
  "ImageType": [
    "ORIGINAL",
    "PRIMARY",
    "M",
    "MB",
    "ND",
    "MOSAIC"
],
  "ImagingFrequency": 123.259,
  "InPlanePhaseEncodingDirectionDICOM": "COL",
  "InstitutionAddress": "Chemin_Queen-Mary_4565_Montreal_District_CA_H3W_1W5",
  "InstitutionName": "IUGM",
  "InstitutionalDepartmentName": "Department",
  "MRAcquisitionType": "2D",
  "MagneticFieldStrength": 3,
  "Manufacturer": "Siemens",
  "ManufacturersModelName": "Prisma_fit",
  "Modality": "MR",
  "MultibandAccelerationFactor": 4,
  "PartialFourier": 1,
  "PatientPosition": "HFS",
  "PercentPhaseFOV": 100,
  "PhaseEncodingDirection": "j",
  "PhaseEncodingSteps": 104,
  "PhaseResolution": 1,
  "PixelBandwidth": 2290,
  "ProcedureStepDescription": "video_friends",
  "ProtocolName": "func_task-friends-s04e06b",
  "PulseSequenceDetails": "%CustomerSeq%_cmrr_mbep2d_bold",
  "ReceiveCoilActiveElements": "HC1-7;NC1,2",
  "ReceiveCoilName": "HeadNeck_64",
  "ReconMatrixPE": 104,
  "RepetitionTime": 1.49,
  "SAR": 0.0291849,
  "ScanOptions": "FS",
  "ScanningSequence": "EP",
  "SequenceName": "epfid2d1_104",
  "SequenceVariant": "SK_SS",
  "SeriesDescription": "func_task-friends-s04e06b",
  "SeriesNumber": 11,
  "ShimSetting": [633, -7229, -8794, 713, 65, -32, 123, -5],
  "SliceThickness": 2,
  "SliceTiming": [0, 0.785, 0.1, 0.8825, 0.1975, 0.98, 0.295, 1.08, 0.3925, 1.1775, 0.49, 1.275, 0.59, 1.3725, 0.6875, 0, 0.785, 0.1, 0.8825, 0.1975, 0.98, 0.295, 1.08, 0.3925, 1.1775, 0.49, 1.275, 0.59, 1.3725, 0.6875, 0, 0.785, 0.1, 0.8825, 0.1975, 0.98, 0.295, 1.08, 0.3925, 1.1775, 0.49, 1.275, 0.59, 1.3725, 0.6875, 0, 0.785, 0.1, 0.8825, 0.1975, 0.98, 0.295, 1.08, 0.3925, 1.1775, 0.49, 1.275, 0.59, 1.3725, 0.6875],
  "SoftwareVersions": "syngo_MR_E11",
  "SpacingBetweenSlices": 2,
  "StationName": "MRC35049",
  "TaskName": "s04e06b",
  "TotalReadoutTime": 0.0576811,
  "TxRefAmp": 206.719,
  "WipMemBlock": "f1246c46-5aaa-49a2-80b5-fe29eb16a24b||Sequence: R016 ve11c/master r/e634e98; Dec 19 2017 11:00:25 by eja",
  "dcmmeta_affine": [
    [-1.999877691268921, -0.006282811518758535, -0.021207328885793686, 106.14531707763672],
    [-0.0006797243840992451, 1.9341686964035034, -0.5089114308357239, -84.08248901367188],
    [-0.02210797369480133, 0.5088731050491333, 1.934052586555481, -59.308712005615234],
    [0.0, 0.0, 0.0, 1.0]
],
  "dcmmeta_reorient_transform": [
    [0.0, -1.0, 0.0, 103.0],
    [1.0, 0.0, 0.0, 0.0],
    [0.0, 0.0, 1.0, 0.0],
    [0.0, 0.0, 0.0, 1.0]
],
  "dcmmeta_shape": [104, 104, 60, 465],
  "dcmmeta_slice_dim": 2,
  "dcmmeta_version": 0.6,
  "global": {
    "const": {
      "AcquisitionMatrix": [104, 0, 0, 104],
      "AngioFlag": "N",
      "BitsAllocated": 16,
      "BitsStored": 16,
      "BodyPartExamined": "BRAIN",
      "Columns": 832,
      "EchoNumbers": 1,
      "EchoTime": 37.0,
      "EchoTrainLength": 104,
      "FlipAngle": 52.0,
      "HighBit": 15,
      "ImageOrientationPatient": [0.99993884506282, 0.00033986217777, -0.0110539869795, -0.0031414058094, 0.96708436767429, -0.2544365488085],
      "ImagePositionPatient": [-831.16672167615, -819.42173092728, 186.38232743572],
      "ImageType": [
        "ORIGINAL",
        "PRIMARY",
        "M",
        "MB",
        "ND",
        "MOSAIC"
],
      "ImagedNucleus": "1H",
      "ImagingFrequency": 123.259094,
      "InPlanePhaseEncodingDirection": "COL",
      "MRAcquisitionType": "2D",
      "MagneticFieldStrength": 3.0,
      "Manufacturer": "SIEMENS",
      "ManufacturerModelName": "Prisma_fit",
      "Modality": "MR",
      "NumberOfAverages": 1.0,
      "NumberOfPhaseEncodingSteps": 104,
      "PercentPhaseFieldOfView": 100.0,
      "PercentSampling": 100.0,
      "PerformedProcedureStepStartTime": "125415.533000",
      "PhotometricInterpretation": "MONOCHROME2",
      "PixelBandwidth": 2290.0,
      "PixelRepresentation": 0,
      "PixelSpacing": [2.0, 2.0],
      "ProtocolName": "func_task-friends-s04e06b",
      "RepetitionTime": 1490.0,
      "Rows": 832,
      "SAR": 0.02918485850588,
      "SamplesPerPixel": 1,
      "ScanOptions": "FS",
      "ScanningSequence": "EP",
      "SequenceName": "epfid2d1_104",
      "SequenceVariant": [
        "SK",
        "SS"
],
      "SeriesDescription": "func_task-friends-s04e06b",
      "SeriesNumber": 11,
      "SeriesTime": "132925.772000",
      "SliceLocation": -37.083343400053,
      "SliceThickness": 2.0,
      "SmallestImagePixelValue": 0,
      "SoftwareVersions": "syngo MR E11",
      "SpacingBetweenSlices": 1.9999999619118,
      "SpecificCharacterSet": "ISO_IR 100",
      "StudyID": "1",
      "StudyTime": "125415.317000",
      "TransmitCoilName": "Body",
      "VariableFlipAngleFlag": "N",
      "WindowCenterWidthExplanation": "Algo1",
      "dBdt": 0.0},
    "slices": {}
  },
  "time": {
    "samples": {
      "AcquisitionNumber": [1, 2, 3, 4, 5, 6, 7, 8, 9, 10, 11, 12, 13, 14, 15, 16, 17, 18, 19, 20, 21, 22, 23, 24, 25, 26, 27, 28, 29, 30, 31, 32, 33, 34, 35, 36, 37, 38, 39, 40, 41, 42, 43, 44, 45, 46, 47, 48, 49, 50, 51, 52, 53, 54, 55, 56, 57, 58, 59, 60, 61, 62, 63, 64, 65, 66, 67, 68, 69, 70, 71, 72, 73, 74, 75, 76, 77, 78, 79, 80, 81, 82, 83, 84, 85, 86, 87, 88, 89, 90, 91, 92, 93, 94, 95, 96, 97, 98, 99, 100, 101, 102, 103, 104, 105, 106, 107, 108, 109, 110, 111, 112, 113, 114, 115, 116, 117, 118, 119, 120, 121, 122, 123, 124, 125, 126, 127, 128, 129, 130, 131, 132, 133, 134, 135, 136, 137, 138, 139, 140, 141, 142, 143, 144, 145, 146, 147, 148, 149, 150, 151, 152, 153, 154, 155, 156, 157, 158, 159, 160, 161, 162, 163, 164, 165, 166, 167, 168, 169, 170, 171, 172, 173, 174, 175, 176, 177, 178, 179, 180, 181, 182, 183, 184, 185, 186, 187, 188, 189, 190, 191, 192, 193, 194, 195, 196, 197, 198, 199, 200, 201, 202, 203, 204, 205, 206, 207, 208, 209, 210, 211, 212, 213, 214, 215, 216, 217, 218, 219, 220, 221, 222, 223, 224, 225, 226, 227, 228, 229, 230, 231, 232, 233, 234, 235, 236, 237, 238, 239, 240, 241, 242, 243, 244, 245, 246, 247, 248, 249, 250, 251, 252, 253, 254, 255, 256, 257, 258, 259, 260, 261, 262, 263, 264, 265, 266, 267, 268, 269, 270, 271, 272, 273, 274, 275, 276, 277, 278, 279, 280, 281, 282, 283, 284, 285, 286, 287, 288, 289, 290, 291, 292, 293, 294, 295, 296, 297, 298, 299, 300, 301, 302, 303, 304, 305, 306, 307, 308, 309, 310, 311, 312, 313, 314, 315, 316, 317, 318, 319, 320, 321, 322, 323, 324, 325, 326, 327, 328, 329, 330, 331, 332, 333, 334, 335, 336, 337, 338, 339, 340, 341, 342, 343, 344, 345, 346, 347, 348, 349, 350, 351, 352, 353, 354, 355, 356, 357, 358, 359, 360, 361, 362, 363, 364, 365, 366, 367, 368, 369, 370, 371, 372, 373, 374, 375, 376, 377, 378, 379, 380, 381, 382, 383, 384, 385, 386, 387, 388, 389, 390, 391, 392, 393, 394, 395, 396, 397, 398, 399, 400, 401, 402, 403, 404, 405, 406, 407, 408, 409, 410, 411, 412, 413, 414, 415, 416, 417, 418, 419, 420, 421, 422, 423, 424, 425, 426, 427, 428, 429, 430, 431, 432, 433, 434, 435, 436, 437, 438, 439, 440, 441, 442, 443, 444, 445, 446, 447, 448, 449, 450, 451, 452, 453, 454, 455, 456, 457, 458, 459, 460, 461, 462, 463, 464, 465],
      "AcquisitionTime": ["132801.580000", "132803.070000", "132804.560000", "132806.050000", "132807.540000", "132809.030000", "132810.520000", "132812.010000", "132813.500000", "132814.990000", "132816.480000", "132817.970000", "132819.460000", "132820.950000", "132822.440000", "132823.930000", "132825.420000", "132826.910000", "132828.400000", "132829.890000", "132831.380000", "132832.870000", "132834.360000", "132835.850000", "132837.340000", "132838.830000", "132840.320000", "132841.810000", "132843.300000", "132844.790000", "132846.280000", "132847.770000", "132849.260000", "132850.750000", "132852.240000", "132853.730000", "132855.220000", "132856.710000", "132858.200000", "132859.690000", "132901.180000", "132902.670000", "132904.160000", "132905.650000", "132907.140000", "132908.630000", "132910.120000", "132911.610000", "132913.100000", "132914.590000", "132916.080000", "132917.570000", "132919.060000", "132920.550000", "132922.040000", "132923.530000", "132925.020000", "132926.510000", "132928.000000", "132929.490000", "132930.980000", "132932.470000", "132933.960000", "132935.450000", "132936.940000", "132938.430000", "132939.920000", "132941.410000", "132942.900000", "132944.390000", "132945.880000", "132947.370000", "132948.860000", "132950.350000", "132951.840000", "132953.330000", "132954.820000", "132956.310000", "132957.800000", "132959.290000", "133000.780000", "133002.270000", "133003.760000", "133005.250000", "133006.740000", "133008.230000", "133009.720000", "133011.210000", "133012.700000", "133014.190000", "133015.680000", "133017.170000", "133018.660000", "133020.150000", "133021.640000", "133023.130000", "133024.620000", "133026.110000", "133027.600000", "133029.090000", "133030.580000", "133032.070000", "133033.560000", "133035.050000", "133036.540000", "133038.030000", "133039.520000", "133041.010000", "133042.500000", "133043.990000", "133045.480000", "133046.970000", "133048.460000", "133049.950000", "133051.440000", "133052.930000", "133054.420000", "133055.910000", "133057.400000", "133058.890000", "133100.380000", "133101.870000", "133103.360000", "133104.850000", "133106.340000", "133107.830000", "133109.320000", "133110.810000", "133112.300000", "133113.790000", "133115.280000", "133116.770000", "133118.260000", "133119.750000", "133121.240000", "133122.730000", "133124.220000", "133125.710000", "133127.200000", "133128.690000", "133130.180000", "133131.670000", "133133.160000", "133134.650000", "133136.140000", "133137.630000", "133139.120000", "133140.610000", "133142.100000", "133143.590000", "133145.080000", "133146.570000", "133148.060000", "133149.550000", "133151.040000", "133152.530000", "133154.020000", "133155.510000", "133157.000000", "133158.490000", "133159.980000", "133201.470000", "133202.960000", "133204.450000", "133205.940000", "133207.430000", "133208.920000", "133210.410000", "133211.900000", "133213.390000", "133214.880000", "133216.370000", "133217.860000", "133219.350000", "133220.840000", "133222.330000", "133223.820000", "133225.310000", "133226.800000", "133228.290000", "133229.780000", "133231.270000", "133232.760000", "133234.250000", "133235.740000", "133237.230000", "133238.720000", "133240.210000", "133241.700000", "133243.190000", "133244.680000", "133246.170000", "133247.660000", "133249.150000", "133250.640000", "133252.130000", "133253.620000", "133255.110000", "133256.600000", "133258.090000", "133259.580000", "133301.070000", "133302.560000", "133304.050000", "133305.540000", "133307.030000", "133308.520000", "133310.010000", "133311.500000", "133312.990000", "133314.480000", "133315.970000", "133317.460000", "133318.950000", "133320.440000", "133321.930000", "133323.420000", "133324.910000", "133326.400000", "133327.890000", "133329.380000", "133330.870000", "133332.360000", "133333.850000", "133335.340000", "133336.830000", "133338.320000", "133339.810000", "133341.300000", "133342.790000", "133344.280000", "133345.770000", "133347.260000", "133348.750000", "133350.240000", "133351.730000", "133353.220000", "133354.710000", "133356.200000", "133357.690000", "133359.180000", "133400.670000", "133402.160000", "133403.650000", "133405.140000", "133406.630000", "133408.120000", "133409.610000", "133411.100000", "133412.590000", "133414.080000", "133415.570000", "133417.060000", "133418.550000", "133420.040000", "133421.530000", "133423.020000", "133424.510000", "133426.000000", "133427.490000", "133428.980000", "133430.470000", "133431.960000", "133433.450000", "133434.940000", "133436.430000", "133437.920000", "133439.410000", "133440.900000", "133442.390000", "133443.880000", "133445.370000", "133446.860000", "133448.350000", "133449.840000", "133451.330000", "133452.820000", "133454.310000", "133455.800000", "133457.290000", "133458.780000", "133500.270000", "133501.760000", "133503.250000", "133504.740000", "133506.230000", "133507.720000", "133509.210000", "133510.700000", "133512.190000", "133513.680000", "133515.170000", "133516.660000", "133518.150000", "133519.640000", "133521.130000", "133522.620000", "133524.110000", "133525.600000", "133527.090000", "133528.580000", "133530.070000", "133531.560000", "133533.050000", "133534.540000", "133536.030000", "133537.520000", "133539.010000", "133540.500000", "133541.990000", "133543.480000", "133544.970000", "133546.460000", "133547.950000", "133549.440000", "133550.930000", "133552.420000", "133553.910000", "133555.400000", "133556.890000", "133558.380000", "133559.870000", "133601.360000", "133602.850000", "133604.340000", "133605.830000", "133607.320000", "133608.810000", "133610.300000", "133611.790000", "133613.280000", "133614.770000", "133616.260000", "133617.750000", "133619.240000", "133620.730000", "133622.220000", "133623.710000", "133625.200000", "133626.690000", "133628.180000", "133629.670000", "133631.160000", "133632.650000", "133634.140000", "133635.630000", "133637.120000", "133638.610000", "133640.100000", "133641.590000", "133643.080000", "133644.570000", "133646.060000", "133647.550000", "133649.040000", "133650.530000", "133652.020000", "133653.510000", "133655.000000", "133656.490000", "133657.980000", "133659.470000", "133700.960000", "133702.450000", "133703.940000", "133705.430000", "133706.920000", "133708.410000", "133709.900000", "133711.390000", "133712.880000", "133714.370000", "133715.860000", "133717.350000", "133718.840000", "133720.330000", "133721.820000", "133723.310000", "133724.800000", "133726.290000", "133727.780000", "133729.270000", "133730.760000", "133732.250000", "133733.740000", "133735.230000", "133736.720000", "133738.210000", "133739.700000", "133741.190000", "133742.680000", "133744.170000", "133745.660000", "133747.150000", "133748.640000", "133750.130000", "133751.620000", "133753.110000", "133754.600000", "133756.090000", "133757.580000", "133759.070000", "133800.560000", "133802.050000", "133803.540000", "133805.030000", "133806.520000", "133808.010000", "133809.500000", "133810.990000", "133812.480000", "133813.970000", "133815.460000", "133816.950000", "133818.440000", "133819.930000", "133821.420000", "133822.910000", "133824.400000", "133825.890000", "133827.380000", "133828.870000", "133830.360000", "133831.850000", "133833.340000", "133834.830000", "133836.320000", "133837.810000", "133839.300000", "133840.790000", "133842.280000", "133843.770000", "133845.260000", "133846.750000", "133848.240000", "133849.730000", "133851.220000", "133852.710000", "133854.200000", "133855.690000", "133857.180000", "133858.670000", "133900.160000", "133901.650000", "133903.140000", "133904.630000", "133906.120000", "133907.610000", "133909.100000", "133910.590000", "133912.080000", "133913.570000", "133915.060000", "133916.550000", "133918.040000", "133919.530000", "133921.020000", "133922.510000", "133924.000000", "133925.490000", "133926.980000", "133928.470000", "133929.960000", "133931.450000", "133932.940000"],
      "ContentTime": ["132925.774000", "132925.778000", "132925.781000", "132925.784000", "132925.787000", "132925.790000", "132925.793000", "132925.796000", "132925.798000", "132925.801000", "132925.804000", "132925.807000", "132925.810000", "132925.813000", "132925.816000", "132925.819000", "132925.822000", "132925.825000", "132925.827000", "132925.830000", "132925.833000", "132925.836000", "132925.839000", "132925.842000", "132925.845000", "132925.848000", "132925.850000", "132925.853000", "132925.856000", "132925.859000", "132945.743000", "132945.746000", "132945.749000", "132945.752000", "132945.755000", "132945.758000", "132945.760000", "132945.763000", "132945.766000", "132945.769000", "132945.772000", "132945.775000", "132945.778000", "132945.781000", "132945.784000", "132945.787000", "132945.789000", "132945.792000", "132945.795000", "132945.798000", "133005.743000", "133005.746000", "133005.749000", "133005.752000", "133005.755000", "133005.758000", "133005.760000", "133005.763000", "133005.766000", "133005.769000", "133005.772000", "133005.775000", "133005.778000", "133005.781000", "133005.783000", "133005.786000", "133005.800000", "133005.803000", "133005.806000", "133005.809000", "133025.743000", "133025.746000", "133025.749000", "133025.752000", "133025.755000", "133025.758000", "133025.760000", "133025.763000", "133025.766000", "133025.769000", "133025.772000", "133025.775000", "133025.788000", "133025.791000", "133025.794000", "133025.797000", "133025.800000", "133025.803000", "133025.806000", "133025.809000", "133105.744000", "133105.747000", "133105.750000", "133105.753000", "133105.756000", "133105.759000", "133105.762000", "133105.764000", "133105.767000", "133105.770000", "133105.773000", "133105.776000", "133105.779000", "133105.782000", "133105.785000", "133105.788000", "133105.791000", "133105.794000", "133105.797000", "133105.799000", "133105.802000", "133105.805000", "133105.808000", "133105.811000", "133105.814000", "133105.817000", "133105.820000", "133105.823000", "133105.825000", "133105.828000", "133105.831000", "133105.834000", "133105.837000", "133145.743000", "133145.746000", "133145.749000", "133145.752000", "133145.755000", "133145.758000", "133145.761000", "133145.763000", "133145.766000", "133145.769000", "133145.772000", "133145.775000", "133145.778000", "133145.781000", "133145.784000", "133145.787000", "133145.790000", "133145.792000", "133145.795000", "133145.798000", "133145.801000", "133145.804000", "133145.807000", "133145.810000", "133145.813000", "133145.816000", "133145.819000", "133225.743000", "133225.746000", "133225.749000", "133225.752000", "133225.755000", "133225.758000", "133225.761000", "133225.764000", "133225.766000", "133225.769000", "133225.772000", "133225.775000", "133225.778000", "133225.781000", "133225.784000", "133225.787000", "133225.790000", "133225.792000", "133225.795000", "133225.798000", "133225.801000", "133225.804000", "133225.807000", "133225.810000", "133225.813000", "133225.816000", "133225.819000", "133305.744000", "133305.747000", "133305.750000", "133305.753000", "133305.756000", "133305.759000", "133305.762000", "133305.765000", "133305.768000", "133305.771000", "133305.774000", "133305.777000", "133305.780000", "133305.783000", "133305.786000", "133305.789000", "133305.792000", "133305.795000", "133305.798000", "133305.801000", "133305.804000", "133305.807000", "133305.810000", "133305.812000", "133305.815000", "133305.818000", "133345.744000", "133345.747000", "133345.750000", "133345.753000", "133345.756000", "133345.759000", "133345.762000", "133345.765000", "133345.767000", "133345.770000", "133345.774000", "133345.776000", "133345.779000", "133345.782000", "133345.792000", "133345.795000", "133345.798000", "133345.800000", "133345.804000", "133345.806000", "133345.809000", "133345.812000", "133345.815000", "133345.818000", "133345.821000", "133345.824000", "133345.827000", "133425.743000", "133425.746000", "133425.749000", "133425.752000", "133425.755000", "133425.758000", "133425.761000", "133425.764000", "133425.767000", "133425.770000", "133425.773000", "133425.776000", "133425.779000", "133425.782000", "133425.785000", "133425.787000", "133425.790000", "133425.793000", "133425.796000", "133425.799000", "133425.802000", "133425.805000", "133425.808000", "133425.810000", "133425.813000", "133425.817000", "133425.819000", "133505.743000", "133505.746000", "133505.749000", "133505.752000", "133505.755000", "133505.758000", "133505.761000", "133505.764000", "133505.767000", "133505.770000", "133505.782000", "133505.785000", "133505.788000", "133505.791000", "133505.794000", "133505.797000", "133505.800000", "133505.803000", "133505.806000", "133505.809000", "133505.812000", "133505.815000", "133505.818000", "133505.821000", "133505.824000", "133505.827000", "133505.830000", "133525.744000", "133525.747000", "133525.750000", "133525.753000", "133525.756000", "133525.759000", "133525.762000", "133525.765000", "133525.768000", "133525.771000", "133525.775000", "133525.778000", "133525.781000", "133605.744000", "133605.747000", "133605.750000", "133605.753000", "133605.756000", "133605.759000", "133605.762000", "133605.765000", "133605.768000", "133605.771000", "133605.774000", "133605.777000", "133605.780000", "133605.783000", "133605.786000", "133605.788000", "133605.792000", "133605.794000", "133605.797000", "133605.800000", "133605.803000", "133605.806000", "133605.809000", "133605.812000", "133605.815000", "133605.818000", "133605.821000", "133645.743000", "133645.746000", "133645.749000", "133645.752000", "133645.755000", "133645.758000", "133645.761000", "133645.764000", "133645.767000", "133645.770000", "133645.773000", "133645.776000", "133645.779000", "133645.782000", "133645.785000", "133645.788000", "133645.791000", "133645.794000", "133645.797000", "133645.800000", "133645.803000", "133645.806000", "133645.809000", "133645.812000", "133645.815000", "133645.818000", "133645.821000", "133725.743000", "133725.746000", "133725.749000", "133725.752000", "133725.755000", "133725.758000", "133725.761000", "133725.764000", "133725.767000", "133725.770000", "133725.773000", "133725.776000", "133725.779000", "133725.782000", "133725.785000", "133725.788000", "133725.791000", "133725.793000", "133725.797000", "133725.799000", "133725.802000", "133725.805000", "133725.808000", "133725.811000", "133725.814000", "133725.817000", "133725.820000", "133805.744000", "133805.747000", "133805.750000", "133805.753000", "133805.756000", "133805.759000", "133805.762000", "133805.765000", "133805.768000", "133805.771000", "133805.774000", "133805.777000", "133805.779000", "133805.783000", "133805.785000", "133805.788000", "133805.791000", "133805.794000", "133805.797000", "133805.800000", "133805.803000", "133805.806000", "133805.809000", "133805.812000", "133805.815000", "133805.818000", "133805.821000", "133845.743000", "133845.746000", "133845.749000", "133845.752000", "133845.755000", "133845.758000", "133845.761000", "133845.764000", "133845.767000", "133845.770000", "133845.773000", "133845.776000", "133845.779000", "133845.782000", "133845.785000", "133845.788000", "133845.791000", "133845.794000", "133845.797000", "133845.800000", "133845.803000", "133845.806000", "133845.808000", "133845.811000", "133845.814000", "133845.817000", "133845.820000", "133925.743000", "133925.746000", "133925.749000", "133925.752000", "133925.755000", "133925.758000", "133925.761000", "133925.764000", "133925.767000", "133925.770000", "133925.786000", "133925.790000", "133925.793000", "133925.796000", "133925.799000", "133925.802000", "133925.805000", "133925.808000", "133925.811000", "133925.814000", "133925.817000", "133925.820000", "133925.823000", "133925.826000", "133925.829000", "133925.832000", "133934.775000", "133934.909000", "133934.912000", "133934.915000", "133934.918000", "133934.921000", "133934.924000"],
