{
  "AcquisitionMatrixPE": 104,
  "AcquisitionNumber": 1,
  "AcquisitionTime": "10:31:48.890000",
  "BandwidthPerPixelPhaseEncode": 17.17,
  "BaseResolution": 104,
  "BodyPartExamined": "BRAIN",
  "CoilString": "HC1-7;NC1_2",
  "ConsistencyInfo": "N4_VE11C_LATEST_20160120",
  "ConversionSoftware": "dcm2niix",
  "ConversionSoftwareVersion": "v1.0.20190902",
  "DerivedVendorReportedEchoSpacing": 0.000560011,
  "DeviceSerialNumber": "167006",
  "DwellTime": 2.1e-06,
  "EchoTime": 0.037,
  "EchoTrainLength": 104,
  "EffectiveEchoSpacing": 0.000560011,
  "FlipAngle": 52,
  "ImageComments": "Unaliased_MB4_PE3_LB",
  "ImageOrientationPatientDICOM": [0.999473, -0.0176149, 0.027277, 0.0266958, 0.923989, -0.381487],
  "ImageType": [
    "ORIGINAL",
    "PRIMARY",
    "M",
    "MB",
    "ND",
    "MOSAIC"
],
  "ImagingFrequency": 123.259,
  "InPlanePhaseEncodingDirectionDICOM": "COL",
  "InstitutionAddress": "Chemin_Queen-Mary_4565_Montreal_District_CA_H3W_1W5",
  "InstitutionName": "IUGM",
  "InstitutionalDepartmentName": "Department",
  "MRAcquisitionType": "2D",
  "MagneticFieldStrength": 3,
  "Manufacturer": "Siemens",
  "ManufacturersModelName": "Prisma_fit",
  "Modality": "MR",
  "MultibandAccelerationFactor": 4,
  "PartialFourier": 1,
  "PatientPosition": "HFS",
  "PercentPhaseFOV": 100,
  "PhaseEncodingDirection": "j",
  "PhaseEncodingSteps": 104,
  "PhaseResolution": 1,
  "PixelBandwidth": 2290,
  "ProcedureStepDescription": "video_friends",
  "ProtocolName": "func_task-friends-s04e10b",
  "PulseSequenceDetails": "%CustomerSeq%_cmrr_mbep2d_bold",
  "ReceiveCoilActiveElements": "HC1-7;NC1,2",
  "ReceiveCoilName": "HeadNeck_64",
  "ReconMatrixPE": 104,
  "RepetitionTime": 1.49,
  "SAR": 0.0383553,
  "ScanOptions": "FS",
  "ScanningSequence": "EP",
  "SequenceName": "epfid2d1_104",
  "SequenceVariant": "SK_SS",
  "SeriesDescription": "func_task-friends-s04e10b",
  "SeriesNumber": 21,
  "ShimSetting": [627, -7178, -8832, 626, 45, 34, 18, -2],
  "SliceThickness": 2,
  "SliceTiming": [0, 0.785, 0.0975, 0.8825, 0.195, 0.98, 0.295, 1.0775, 0.3925, 1.175, 0.49, 1.275, 0.5875, 1.3725, 0.685, 0, 0.785, 0.0975, 0.8825, 0.195, 0.98, 0.295, 1.0775, 0.3925, 1.175, 0.49, 1.275, 0.5875, 1.3725, 0.685, 0, 0.785, 0.0975, 0.8825, 0.195, 0.98, 0.295, 1.0775, 0.3925, 1.175, 0.49, 1.275, 0.5875, 1.3725, 0.685, 0, 0.785, 0.0975, 0.8825, 0.195, 0.98, 0.295, 1.0775, 0.3925, 1.175, 0.49, 1.275, 0.5875, 1.3725, 0.685],
  "SoftwareVersions": "syngo_MR_E11",
  "SpacingBetweenSlices": 2,
  "StationName": "MRC35049",
  "TaskName": "s04e10b",
  "TotalReadoutTime": 0.0576811,
  "TxRefAmp": 246.019,
  "WipMemBlock": "9c7b3d8a-29e0-41a8-907d-6a4a0f5293b5||Sequence: R016 ve11c/master r/e634e98; Dec 19 2017 11:00:25 by eja",
  "dcmmeta_affine": [
    [-1.9989453554153442, 0.053391698747873306, 0.03696761652827263, 100.43898010253906],
    [0.03522977605462074, 1.847977638244629, -0.7640270590782166, -68.79910278320312],
    [0.05455401912331581, 0.7629730701446533, 1.847943663597107, -64.5680923461914],
    [0.0, 0.0, 0.0, 1.0]
],
  "dcmmeta_reorient_transform": [
    [0.0, -1.0, 0.0, 103.0],
    [1.0, 0.0, 0.0, 0.0],
    [0.0, 0.0, 1.0, 0.0],
    [0.0, 0.0, 0.0, 1.0]
],
  "dcmmeta_shape": [104, 104, 60, 449],
  "dcmmeta_slice_dim": 2,
  "dcmmeta_version": 0.6,
  "global": {
    "const": {
      "AcquisitionMatrix": [104, 0, 0, 104],
      "AngioFlag": "N",
      "BitsAllocated": 16,
      "BitsStored": 16,
      "BodyPartExamined": "BRAIN",
      "Columns": 832,
      "EchoNumbers": 1,
      "EchoTime": 37.0,
      "EchoTrainLength": 104,
      "FlipAngle": 52.0,
      "HighBit": 15,
      "ImageOrientationPatient": [0.99947270120325, -0.0176148885363, 0.02727700957458, 0.02669584851143, 0.92398883409889, -0.3814865215612],
      "ImagePositionPatient": [-852.98903172773, -781.38282584834, 271.88265378606],
      "ImageType": [
        "ORIGINAL",
        "PRIMARY",
        "M",
        "MB",
        "ND",
        "MOSAIC"
],
      "ImagedNucleus": "1H",
      "ImagingFrequency": 123.259019,
      "InPlanePhaseEncodingDirection": "COL",
      "MRAcquisitionType": "2D",
      "MagneticFieldStrength": 3.0,
      "Manufacturer": "SIEMENS",
      "ManufacturerModelName": "Prisma_fit",
      "Modality": "MR",
      "NumberOfAverages": 1.0,
      "NumberOfPhaseEncodingSteps": 104,
      "PercentPhaseFieldOfView": 100.0,
      "PercentSampling": 100.0,
      "PerformedProcedureStepStartTime": "085046.315000",
      "PhotometricInterpretation": "MONOCHROME2",
      "PixelBandwidth": 2290.0,
      "PixelRepresentation": 0,
      "PixelSpacing": [2.0, 2.0],
      "ProtocolName": "func_task-friends-s04e10b",
      "RepetitionTime": 1490.0,
      "Rows": 832,
      "SAR": 0.03835534200768,
      "SamplesPerPixel": 1,
      "ScanOptions": "FS",
      "ScanningSequence": "EP",
      "SequenceName": "epfid2d1_104",
      "SequenceVariant": [
        "SK",
        "SS"
],
      "SeriesDescription": "func_task-friends-s04e10b",
      "SeriesNumber": 21,
      "SeriesTime": "103253.027000",
      "SliceLocation": -31.520416584293,
      "SliceThickness": 2.0,
      "SmallestImagePixelValue": 0,
      "SoftwareVersions": "syngo MR E11",
      "SpacingBetweenSlices": 1.9999999304591,
      "SpecificCharacterSet": "ISO_IR 100",
      "StudyID": "1",
      "StudyTime": "085046.193000",
      "TransmitCoilName": "Body",
      "VariableFlipAngleFlag": "N",
      "WindowCenterWidthExplanation": "Algo1",
      "dBdt": 0.0},
    "slices": {}
  },
  "time": {
    "samples": {
      "AcquisitionNumber": [1, 2, 3, 4, 5, 6, 7, 8, 9, 10, 11, 12, 13, 14, 15, 16, 17, 18, 19, 20, 21, 22, 23, 24, 25, 26, 27, 28, 29, 30, 31, 32, 33, 34, 35, 36, 37, 38, 39, 40, 41, 42, 43, 44, 45, 46, 47, 48, 49, 50, 51, 52, 53, 54, 55, 56, 57, 58, 59, 60, 61, 62, 63, 64, 65, 66, 67, 68, 69, 70, 71, 72, 73, 74, 75, 76, 77, 78, 79, 80, 81, 82, 83, 84, 85, 86, 87, 88, 89, 90, 91, 92, 93, 94, 95, 96, 97, 98, 99, 100, 101, 102, 103, 104, 105, 106, 107, 108, 109, 110, 111, 112, 113, 114, 115, 116, 117, 118, 119, 120, 121, 122, 123, 124, 125, 126, 127, 128, 129, 130, 131, 132, 133, 134, 135, 136, 137, 138, 139, 140, 141, 142, 143, 144, 145, 146, 147, 148, 149, 150, 151, 152, 153, 154, 155, 156, 157, 158, 159, 160, 161, 162, 163, 164, 165, 166, 167, 168, 169, 170, 171, 172, 173, 174, 175, 176, 177, 178, 179, 180, 181, 182, 183, 184, 185, 186, 187, 188, 189, 190, 191, 192, 193, 194, 195, 196, 197, 198, 199, 200, 201, 202, 203, 204, 205, 206, 207, 208, 209, 210, 211, 212, 213, 214, 215, 216, 217, 218, 219, 220, 221, 222, 223, 224, 225, 226, 227, 228, 229, 230, 231, 232, 233, 234, 235, 236, 237, 238, 239, 240, 241, 242, 243, 244, 245, 246, 247, 248, 249, 250, 251, 252, 253, 254, 255, 256, 257, 258, 259, 260, 261, 262, 263, 264, 265, 266, 267, 268, 269, 270, 271, 272, 273, 274, 275, 276, 277, 278, 279, 280, 281, 282, 283, 284, 285, 286, 287, 288, 289, 290, 291, 292, 293, 294, 295, 296, 297, 298, 299, 300, 301, 302, 303, 304, 305, 306, 307, 308, 309, 310, 311, 312, 313, 314, 315, 316, 317, 318, 319, 320, 321, 322, 323, 324, 325, 326, 327, 328, 329, 330, 331, 332, 333, 334, 335, 336, 337, 338, 339, 340, 341, 342, 343, 344, 345, 346, 347, 348, 349, 350, 351, 352, 353, 354, 355, 356, 357, 358, 359, 360, 361, 362, 363, 364, 365, 366, 367, 368, 369, 370, 371, 372, 373, 374, 375, 376, 377, 378, 379, 380, 381, 382, 383, 384, 385, 386, 387, 388, 389, 390, 391, 392, 393, 394, 395, 396, 397, 398, 399, 400, 401, 402, 403, 404, 405, 406, 407, 408, 409, 410, 411, 412, 413, 414, 415, 416, 417, 418, 419, 420, 421, 422, 423, 424, 425, 426, 427, 428, 429, 430, 431, 432, 433, 434, 435, 436, 437, 438, 439, 440, 441, 442, 443, 444, 445, 446, 447, 448, 449],
      "AcquisitionTime": ["103148.890000", "103150.380000", "103151.870000", "103153.360000", "103154.850000", "103156.340000", "103157.830000", "103159.320000", "103200.810000", "103202.300000", "103203.790000", "103205.280000", "103206.770000", "103208.260000", "103209.750000", "103211.240000", "103212.730000", "103214.220000", "103215.710000", "103217.200000", "103218.690000", "103220.180000", "103221.670000", "103223.160000", "103224.650000", "103226.140000", "103227.630000", "103229.120000", "103230.610000", "103232.100000", "103233.590000", "103235.080000", "103236.570000", "103238.060000", "103239.550000", "103241.040000", "103242.530000", "103244.020000", "103245.510000", "103247.000000", "103248.490000", "103249.980000", "103251.470000", "103252.960000", "103254.450000", "103255.940000", "103257.430000", "103258.920000", "103300.410000", "103301.900000", "103303.390000", "103304.880000", "103306.370000", "103307.860000", "103309.350000", "103310.840000", "103312.330000", "103313.820000", "103315.310000", "103316.800000", "103318.290000", "103319.780000", "103321.270000", "103322.760000", "103324.250000", "103325.740000", "103327.230000", "103328.720000", "103330.210000", "103331.700000", "103333.190000", "103334.680000", "103336.170000", "103337.660000", "103339.150000", "103340.640000", "103342.130000", "103343.620000", "103345.110000", "103346.600000", "103348.090000", "103349.580000", "103351.070000", "103352.560000", "103354.050000", "103355.540000", "103357.030000", "103358.520000", "103400.010000", "103401.500000", "103402.990000", "103404.480000", "103405.970000", "103407.460000", "103408.950000", "103410.440000", "103411.930000", "103413.420000", "103414.910000", "103416.400000", "103417.890000", "103419.380000", "103420.870000", "103422.360000", "103423.850000", "103425.340000", "103426.830000", "103428.320000", "103429.810000", "103431.300000", "103432.790000", "103434.280000", "103435.770000", "103437.260000", "103438.750000", "103440.240000", "103441.730000", "103443.220000", "103444.710000", "103446.200000", "103447.690000", "103449.180000", "103450.670000", "103452.160000", "103453.650000", "103455.140000", "103456.630000", "103458.120000", "103459.610000", "103501.100000", "103502.590000", "103504.080000", "103505.570000", "103507.060000", "103508.550000", "103510.040000", "103511.530000", "103513.020000", "103514.510000", "103516.000000", "103517.490000", "103518.980000", "103520.470000", "103521.960000", "103523.450000", "103524.940000", "103526.430000", "103527.920000", "103529.410000", "103530.900000", "103532.390000", "103533.880000", "103535.370000", "103536.860000", "103538.350000", "103539.840000", "103541.330000", "103542.820000", "103544.310000", "103545.800000", "103547.290000", "103548.780000", "103550.270000", "103551.760000", "103553.250000", "103554.740000", "103556.230000", "103557.720000", "103559.210000", "103600.700000", "103602.190000", "103603.680000", "103605.170000", "103606.660000", "103608.150000", "103609.640000", "103611.130000", "103612.620000", "103614.110000", "103615.600000", "103617.090000", "103618.580000", "103620.070000", "103621.560000", "103623.050000", "103624.540000", "103626.030000", "103627.520000", "103629.010000", "103630.500000", "103631.990000", "103633.480000", "103634.970000", "103636.460000", "103637.950000", "103639.440000", "103640.930000", "103642.420000", "103643.910000", "103645.400000", "103646.890000", "103648.380000", "103649.870000", "103651.360000", "103652.850000", "103654.340000", "103655.830000", "103657.320000", "103658.810000", "103700.300000", "103701.790000", "103703.280000", "103704.770000", "103706.260000", "103707.750000", "103709.240000", "103710.730000", "103712.220000", "103713.710000", "103715.200000", "103716.690000", "103718.180000", "103719.670000", "103721.160000", "103722.650000", "103724.140000", "103725.630000", "103727.120000", "103728.610000", "103730.100000", "103731.590000", "103733.080000", "103734.570000", "103736.060000", "103737.550000", "103739.040000", "103740.530000", "103742.020000", "103743.510000", "103745.000000", "103746.490000", "103747.980000", "103749.470000", "103750.960000", "103752.450000", "103753.940000", "103755.430000", "103756.920000", "103758.410000", "103759.900000", "103801.390000", "103802.880000", "103804.370000", "103805.860000", "103807.350000", "103808.840000", "103810.330000", "103811.820000", "103813.310000", "103814.800000", "103816.290000", "103817.780000", "103819.270000", "103820.760000", "103822.250000", "103823.740000", "103825.230000", "103826.720000", "103828.210000", "103829.700000", "103831.190000", "103832.680000", "103834.170000", "103835.660000", "103837.150000", "103838.640000", "103840.130000", "103841.620000", "103843.110000", "103844.600000", "103846.090000", "103847.580000", "103849.070000", "103850.560000", "103852.050000", "103853.540000", "103855.030000", "103856.520000", "103858.010000", "103859.500000", "103900.990000", "103902.480000", "103903.970000", "103905.460000", "103906.950000", "103908.440000", "103909.930000", "103911.420000", "103912.910000", "103914.400000", "103915.890000", "103917.380000", "103918.870000", "103920.360000", "103921.850000", "103923.340000", "103924.830000", "103926.320000", "103927.810000", "103929.300000", "103930.790000", "103932.280000", "103933.770000", "103935.260000", "103936.750000", "103938.240000", "103939.730000", "103941.220000", "103942.710000", "103944.200000", "103945.690000", "103947.180000", "103948.670000", "103950.160000", "103951.650000", "103953.140000", "103954.630000", "103956.120000", "103957.610000", "103959.100000", "104000.590000", "104002.080000", "104003.570000", "104005.060000", "104006.550000", "104008.040000", "104009.530000", "104011.020000", "104012.510000", "104014.000000", "104015.490000", "104016.980000", "104018.470000", "104019.960000", "104021.450000", "104022.940000", "104024.430000", "104025.920000", "104027.410000", "104028.900000", "104030.390000", "104031.880000", "104033.370000", "104034.860000", "104036.350000", "104037.840000", "104039.330000", "104040.820000", "104042.310000", "104043.800000", "104045.290000", "104046.780000", "104048.270000", "104049.760000", "104051.250000", "104052.740000", "104054.230000", "104055.720000", "104057.210000", "104058.700000", "104100.190000", "104101.680000", "104103.170000", "104104.660000", "104106.150000", "104107.640000", "104109.130000", "104110.620000", "104112.110000", "104113.600000", "104115.090000", "104116.580000", "104118.070000", "104119.560000", "104121.050000", "104122.540000", "104124.030000", "104125.520000", "104127.010000", "104128.500000", "104129.990000", "104131.480000", "104132.970000", "104134.460000", "104135.950000", "104137.440000", "104138.930000", "104140.420000", "104141.910000", "104143.400000", "104144.890000", "104146.380000", "104147.870000", "104149.360000", "104150.850000", "104152.340000", "104153.830000", "104155.320000", "104156.810000", "104158.300000", "104159.790000", "104201.280000", "104202.770000", "104204.260000", "104205.750000", "104207.240000", "104208.730000", "104210.220000", "104211.710000", "104213.200000", "104214.690000", "104216.180000", "104217.670000", "104219.160000", "104220.650000", "104222.140000", "104223.630000", "104225.120000", "104226.610000", "104228.100000", "104229.590000", "104231.080000", "104232.570000", "104234.060000", "104235.550000", "104237.040000", "104238.530000", "104240.020000", "104241.510000", "104243.000000", "104244.490000", "104245.980000", "104247.470000", "104248.960000", "104250.450000", "104251.940000", "104253.430000", "104254.920000", "104256.410000"],
      "ContentTime": ["103253.029000", "103253.038000", "103253.041000", "103253.044000", "103253.054000", "103253.057000", "103253.060000", "103253.063000", "103253.066000", "103253.069000", "103312.994000", "103312.997000", "103313.000000", "103313.003000", "103313.006000", "103313.009000", "103313.013000", "103313.016000", "103313.019000", "103313.022000", "103313.025000", "103313.028000", "103313.030000", "103313.033000", "103313.042000", "103313.045000", "103313.048000", "103313.051000", "103313.054000", "103313.057000", "103332.994000", "103332.997000", "103333.001000", "103333.004000", "103333.007000", "103333.009000", "103333.013000", "103333.015000", "103333.018000", "103333.021000", "103333.024000", "103333.027000", "103333.030000", "103333.033000", "103333.036000", "103333.039000", "103333.042000", "103333.044000", "103333.048000", "103333.050000", "103352.994000", "103352.997000", "103353.001000", "103353.008000", "103353.011000", "103353.014000", "103353.017000", "103353.020000", "103353.022000", "103353.025000", "103353.028000", "103353.031000", "103353.034000", "103353.037000", "103353.040000", "103353.043000", "103353.046000", "103353.049000", "103353.052000", "103353.055000", "103412.994000", "103413.003000", "103413.006000", "103413.009000", "103413.011000", "103413.014000", "103413.017000", "103413.020000", "103413.023000", "103413.026000", "103413.029000", "103413.032000", "103413.035000", "103413.038000", "103413.041000", "103413.044000", "103413.046000", "103413.049000", "103413.052000", "103413.055000", "103452.993000", "103452.996000", "103453.000000", "103453.009000", "103453.012000", "103453.014000", "103453.018000", "103453.020000", "103453.023000", "103453.026000", "103453.029000", "103453.032000", "103453.035000", "103453.038000", "103453.041000", "103453.044000", "103453.047000", "103453.050000", "103453.053000", "103453.055000", "103453.058000", "103453.061000", "103453.064000", "103453.067000", "103453.070000", "103453.073000", "103453.076000", "103453.079000", "103453.082000", "103453.098000", "103453.101000", "103453.104000", "103532.994000", "103532.997000", "103533.000000", "103533.003000", "103533.006000", "103533.009000", "103533.012000", "103533.015000", "103533.018000", "103533.021000", "103533.024000", "103533.026000", "103533.030000", "103533.032000", "103533.035000", "103533.038000", "103533.041000", "103533.044000", "103533.047000", "103533.050000", "103533.053000", "103533.056000", "103533.059000", "103533.062000", "103533.065000", "103533.068000", "103533.071000", "103612.994000", "103612.997000", "103613.001000", "103613.004000", "103613.007000", "103613.010000", "103613.013000", "103613.016000", "103613.019000", "103613.022000", "103613.024000", "103613.038000", "103613.041000", "103613.044000", "103613.047000", "103613.050000", "103613.053000", "103613.056000", "103613.059000", "103613.062000", "103613.065000", "103613.067000", "103613.070000", "103613.073000", "103613.076000", "103613.079000", "103613.082000", "103652.993000", "103652.997000", "103653.001000", "103653.004000", "103653.007000", "103653.010000", "103653.014000", "103653.017000", "103653.020000", "103653.023000", "103653.026000", "103653.029000", "103653.032000", "103653.035000", "103653.038000", "103653.041000", "103653.043000", "103653.046000", "103653.050000", "103653.052000", "103653.055000", "103653.058000", "103653.061000", "103653.064000", "103653.067000", "103653.070000", "103653.073000", "103732.993000", "103732.996000", "103733.000000", "103733.003000", "103733.006000", "103733.009000", "103733.012000", "103733.015000", "103733.018000", "103733.021000", "103733.024000", "103733.027000", "103733.030000", "103733.033000", "103733.036000", "103733.039000", "103733.042000", "103733.045000", "103733.048000", "103733.051000", "103733.054000", "103733.057000", "103733.060000", "103733.062000", "103733.065000", "103733.068000", "103733.071000", "103812.994000", "103812.997000", "103813.001000", "103813.004000", "103813.007000", "103813.010000", "103813.013000", "103813.016000", "103813.019000", "103813.029000", "103813.032000", "103813.035000", "103813.038000", "103813.041000", "103813.043000", "103813.046000", "103813.049000", "103813.052000", "103813.055000", "103813.058000", "103813.061000", "103813.064000", "103813.067000", "103813.070000", "103813.073000", "103813.076000", "103813.079000", "103852.994000", "103852.997000", "103853.001000", "103853.004000", "103853.007000", "103853.010000", "103853.013000", "103853.016000", "103853.019000", "103853.022000", "103853.025000", "103853.028000", "103853.031000", "103853.034000", "103853.037000", "103853.040000", "103853.042000", "103853.045000", "103853.048000", "103853.051000", "103853.054000", "103853.057000", "103853.060000", "103853.063000", "103853.066000", "103853.069000", "103932.993000", "103932.996000", "103933.000000", "103933.003000", "103933.006000", "103933.009000", "103933.012000", "103933.015000", "103933.018000", "103933.021000", "103933.024000", "103933.027000", "103933.030000", "103933.033000", "103933.036000", "103933.039000", "103933.042000", "103933.045000", "103933.048000", "103933.050000", "103933.053000", "103933.056000", "103933.059000", "103933.062000", "103933.065000", "103933.080000", "103933.083000", "104012.994000", "104012.997000", "104013.000000", "104013.003000", "104013.014000", "104013.017000", "104013.020000", "104013.023000", "104013.026000", "104013.029000", "104013.045000", "104013.048000", "104013.051000", "104013.054000", "104013.057000", "104013.060000", "104013.063000", "104013.066000", "104013.069000", "104013.072000", "104013.075000", "104013.077000", "104013.080000", "104013.083000", "104013.086000", "104013.089000", "104013.092000", "104052.994000", "104052.997000", "104053.001000", "104053.004000", "104053.007000", "104053.010000", "104053.013000", "104053.016000", "104053.019000", "104053.022000", "104053.024000", "104053.028000", "104053.030000", "104053.033000", "104053.036000", "104053.039000", "104053.042000", "104053.045000", "104053.048000", "104053.051000", "104053.054000", "104053.057000", "104053.060000", "104053.063000", "104053.066000", "104053.068000", "104053.071000", "104132.993000", "104132.996000", "104133.000000", "104133.003000", "104133.006000", "104133.009000", "104133.012000", "104133.015000", "104133.018000", "104133.021000", "104133.024000", "104133.027000", "104133.030000", "104133.033000", "104133.036000", "104133.039000", "104133.042000", "104133.044000", "104133.048000", "104133.051000", "104133.053000", "104133.056000", "104133.059000", "104133.062000", "104133.065000", "104133.068000", "104133.071000", "104212.993000", "104212.996000", "104213.000000", "104213.003000", "104213.006000", "104213.009000", "104213.012000", "104213.015000", "104213.018000", "104213.021000", "104213.024000", "104213.027000", "104213.030000", "104213.033000", "104213.036000", "104213.039000", "104213.042000", "104213.045000", "104213.048000", "104213.050000", "104213.053000", "104213.056000", "104213.059000", "104213.062000", "104213.065000", "104213.068000", "104213.071000", "104232.994000", "104232.997000", "104233.001000", "104233.004000", "104233.007000", "104233.010000", "104233.013000", "104233.016000", "104233.019000", "104233.022000", "104233.025000", "104233.028000", "104233.031000", "104259.015000", "104259.019000", "104259.021000", "104259.025000", "104259.027000", "104259.030000", "104259.033000", "104259.036000", "104259.039000", "104259.042000", "104259.045000", "104259.048000", "104259.051000", "104259.054000", "104259.057000", "104259.060000", "104259.063000", "104259.066000"],
