{
  "AcquisitionMatrixPE": 104,
  "AcquisitionNumber": 1,
  "AcquisitionTime": "09:42:53.845000",
  "BandwidthPerPixelPhaseEncode": 17.17,
  "BaseResolution": 104,
  "BodyPartExamined": "BRAIN",
  "CoilString": "HC1-7;NC1_2",
  "ConsistencyInfo": "N4_VE11C_LATEST_20160120",
  "ConversionSoftware": "dcm2niix",
  "ConversionSoftwareVersion": "v1.0.20190902",
  "DerivedVendorReportedEchoSpacing": 0.000560011,
  "DeviceSerialNumber": "167006",
  "DwellTime": 2.1e-06,
  "EchoTime": 0.037,
  "EchoTrainLength": 104,
  "EffectiveEchoSpacing": 0.000560011,
  "FlipAngle": 52,
  "ImageComments": "Unaliased_MB4_PE3_LB",
  "ImageOrientationPatientDICOM": [0.999473, -0.0176149, 0.027277, 0.0266958, 0.923989, -0.381487],
  "ImageType": [
    "ORIGINAL",
    "PRIMARY",
    "M",
    "MB",
    "ND",
    "MOSAIC"
],
  "ImagingFrequency": 123.259,
  "InPlanePhaseEncodingDirectionDICOM": "COL",
  "InstitutionAddress": "Chemin_Queen-Mary_4565_Montreal_District_CA_H3W_1W5",
  "InstitutionName": "IUGM",
  "InstitutionalDepartmentName": "Department",
  "MRAcquisitionType": "2D",
  "MagneticFieldStrength": 3,
  "Manufacturer": "Siemens",
  "ManufacturersModelName": "Prisma_fit",
  "Modality": "MR",
  "MultibandAccelerationFactor": 4,
  "PartialFourier": 1,
  "PatientPosition": "HFS",
  "PercentPhaseFOV": 100,
  "PhaseEncodingDirection": "j",
  "PhaseEncodingSteps": 104,
  "PhaseResolution": 1,
  "PixelBandwidth": 2290,
  "ProcedureStepDescription": "video_friends",
  "ProtocolName": "func_task-friends-s04e08b",
  "PulseSequenceDetails": "%CustomerSeq%_cmrr_mbep2d_bold",
  "ReceiveCoilActiveElements": "HC1-7;NC1,2",
  "ReceiveCoilName": "HeadNeck_64",
  "ReconMatrixPE": 104,
  "RepetitionTime": 1.49,
  "SAR": 0.0383735,
  "ScanOptions": "FS",
  "ScanningSequence": "EP",
  "SequenceName": "epfid2d1_104",
  "SequenceVariant": "SK_SS",
  "SeriesDescription": "func_task-friends-s04e08b",
  "SeriesNumber": 13,
  "ShimSetting": [627, -7178, -8832, 626, 45, 34, 18, -2],
  "SliceThickness": 2,
  "SliceTiming": [0, 0.785, 0.0975, 0.8825, 0.1975, 0.98, 0.295, 1.0775, 0.3925, 1.1775, 0.49, 1.275, 0.5875, 1.3725, 0.6875, 0, 0.785, 0.0975, 0.8825, 0.1975, 0.98, 0.295, 1.0775, 0.3925, 1.1775, 0.49, 1.275, 0.5875, 1.3725, 0.6875, 0, 0.785, 0.0975, 0.8825, 0.1975, 0.98, 0.295, 1.0775, 0.3925, 1.1775, 0.49, 1.275, 0.5875, 1.3725, 0.6875, 0, 0.785, 0.0975, 0.8825, 0.1975, 0.98, 0.295, 1.0775, 0.3925, 1.1775, 0.49, 1.275, 0.5875, 1.3725, 0.6875],
  "SoftwareVersions": "syngo_MR_E11",
  "SpacingBetweenSlices": 2,
  "StationName": "MRC35049",
  "TaskName": "s04e08b",
  "TotalReadoutTime": 0.0576811,
  "TxRefAmp": 246.019,
  "WipMemBlock": "7e15616a-6e96-4746-8345-b0ca9a97d588||Sequence: R016 ve11c/master r/e634e98; Dec 19 2017 11:00:25 by eja",
  "dcmmeta_affine": [
    [-1.9989453554153442, 0.053391698747873306, 0.03696761652827263, 100.43898010253906],
    [0.03522977605462074, 1.847977638244629, -0.7640270590782166, -68.79910278320312],
    [0.05455401912331581, 0.7629730701446533, 1.847943663597107, -64.5680923461914],
    [0.0, 0.0, 0.0, 1.0]
],
  "dcmmeta_reorient_transform": [
    [0.0, -1.0, 0.0, 103.0],
    [1.0, 0.0, 0.0, 0.0],
    [0.0, 0.0, 1.0, 0.0],
    [0.0, 0.0, 0.0, 1.0]
],
  "dcmmeta_shape": [104, 104, 60, 503],
  "dcmmeta_slice_dim": 2,
  "dcmmeta_version": 0.6,
  "global": {
    "const": {
      "AcquisitionMatrix": [104, 0, 0, 104],
      "AngioFlag": "N",
      "BitsAllocated": 16,
      "BitsStored": 16,
      "BodyPartExamined": "BRAIN",
      "Columns": 832,
      "EchoNumbers": 1,
      "EchoTime": 37.0,
      "EchoTrainLength": 104,
      "FlipAngle": 52.0,
      "HighBit": 15,
      "ImageOrientationPatient": [0.99947270120325, -0.0176148885363, 0.02727700957458, 0.02669584851143, 0.92398883409889, -0.3814865215612],
      "ImagePositionPatient": [-852.98903172773, -781.38282584834, 271.88265378606],
      "ImageType": [
        "ORIGINAL",
        "PRIMARY",
        "M",
        "MB",
        "ND",
        "MOSAIC"
],
      "ImagedNucleus": "1H",
      "ImagingFrequency": 123.25901,
      "InPlanePhaseEncodingDirection": "COL",
      "MRAcquisitionType": "2D",
      "MagneticFieldStrength": 3.0,
      "Manufacturer": "SIEMENS",
      "ManufacturerModelName": "Prisma_fit",
      "Modality": "MR",
      "NumberOfAverages": 1.0,
      "NumberOfPhaseEncodingSteps": 104,
      "PercentPhaseFieldOfView": 100.0,
      "PercentSampling": 100.0,
      "PerformedProcedureStepStartTime": "085046.315000",
      "PhotometricInterpretation": "MONOCHROME2",
      "PixelBandwidth": 2290.0,
      "PixelRepresentation": 0,
      "PixelSpacing": [2.0, 2.0],
      "ProtocolName": "func_task-friends-s04e08b",
      "RepetitionTime": 1490.0,
      "Rows": 832,
      "SAR": 0.03837347098361,
      "SamplesPerPixel": 1,
      "ScanOptions": "FS",
      "ScanningSequence": "EP",
      "SequenceName": "epfid2d1_104",
      "SequenceVariant": [
        "SK",
        "SS"
],
      "SeriesDescription": "func_task-friends-s04e08b",
      "SeriesNumber": 13,
      "SeriesTime": "094402.822000",
      "SliceLocation": -31.520416584293,
      "SliceThickness": 2.0,
      "SmallestImagePixelValue": 0,
      "SoftwareVersions": "syngo MR E11",
      "SpacingBetweenSlices": 1.9999999304591,
      "SpecificCharacterSet": "ISO_IR 100",
      "StudyID": "1",
      "StudyTime": "085046.193000",
      "TransmitCoilName": "Body",
      "VariableFlipAngleFlag": "N",
      "WindowCenterWidthExplanation": "Algo1",
      "dBdt": 0.0},
    "slices": {}
  },
  "time": {
    "samples": {
      "AcquisitionNumber": [1, 2, 3, 4, 5, 6, 7, 8, 9, 10, 11, 12, 13, 14, 15, 16, 17, 18, 19, 20, 21, 22, 23, 24, 25, 26, 27, 28, 29, 30, 31, 32, 33, 34, 35, 36, 37, 38, 39, 40, 41, 42, 43, 44, 45, 46, 47, 48, 49, 50, 51, 52, 53, 54, 55, 56, 57, 58, 59, 60, 61, 62, 63, 64, 65, 66, 67, 68, 69, 70, 71, 72, 73, 74, 75, 76, 77, 78, 79, 80, 81, 82, 83, 84, 85, 86, 87, 88, 89, 90, 91, 92, 93, 94, 95, 96, 97, 98, 99, 100, 101, 102, 103, 104, 105, 106, 107, 108, 109, 110, 111, 112, 113, 114, 115, 116, 117, 118, 119, 120, 121, 122, 123, 124, 125, 126, 127, 128, 129, 130, 131, 132, 133, 134, 135, 136, 137, 138, 139, 140, 141, 142, 143, 144, 145, 146, 147, 148, 149, 150, 151, 152, 153, 154, 155, 156, 157, 158, 159, 160, 161, 162, 163, 164, 165, 166, 167, 168, 169, 170, 171, 172, 173, 174, 175, 176, 177, 178, 179, 180, 181, 182, 183, 184, 185, 186, 187, 188, 189, 190, 191, 192, 193, 194, 195, 196, 197, 198, 199, 200, 201, 202, 203, 204, 205, 206, 207, 208, 209, 210, 211, 212, 213, 214, 215, 216, 217, 218, 219, 220, 221, 222, 223, 224, 225, 226, 227, 228, 229, 230, 231, 232, 233, 234, 235, 236, 237, 238, 239, 240, 241, 242, 243, 244, 245, 246, 247, 248, 249, 250, 251, 252, 253, 254, 255, 256, 257, 258, 259, 260, 261, 262, 263, 264, 265, 266, 267, 268, 269, 270, 271, 272, 273, 274, 275, 276, 277, 278, 279, 280, 281, 282, 283, 284, 285, 286, 287, 288, 289, 290, 291, 292, 293, 294, 295, 296, 297, 298, 299, 300, 301, 302, 303, 304, 305, 306, 307, 308, 309, 310, 311, 312, 313, 314, 315, 316, 317, 318, 319, 320, 321, 322, 323, 324, 325, 326, 327, 328, 329, 330, 331, 332, 333, 334, 335, 336, 337, 338, 339, 340, 341, 342, 343, 344, 345, 346, 347, 348, 349, 350, 351, 352, 353, 354, 355, 356, 357, 358, 359, 360, 361, 362, 363, 364, 365, 366, 367, 368, 369, 370, 371, 372, 373, 374, 375, 376, 377, 378, 379, 380, 381, 382, 383, 384, 385, 386, 387, 388, 389, 390, 391, 392, 393, 394, 395, 396, 397, 398, 399, 400, 401, 402, 403, 404, 405, 406, 407, 408, 409, 410, 411, 412, 413, 414, 415, 416, 417, 418, 419, 420, 421, 422, 423, 424, 425, 426, 427, 428, 429, 430, 431, 432, 433, 434, 435, 436, 437, 438, 439, 440, 441, 442, 443, 444, 445, 446, 447, 448, 449, 450, 451, 452, 453, 454, 455, 456, 457, 458, 459, 460, 461, 462, 463, 464, 465, 466, 467, 468, 469, 470, 471, 472, 473, 474, 475, 476, 477, 478, 479, 480, 481, 482, 483, 484, 485, 486, 487, 488, 489, 490, 491, 492, 493, 494, 495, 496, 497, 498, 499, 500, 501, 502, 503],
      "AcquisitionTime": ["094253.845000", "094255.335000", "094256.825000", "094258.315000", "094259.805000", "094301.295000", "094302.785000", "094304.275000", "094305.765000", "094307.255000", "094308.745000", "094310.235000", "094311.725000", "094313.215000", "094314.705000", "094316.195000", "094317.685000", "094319.175000", "094320.665000", "094322.155000", "094323.645000", "094325.135000", "094326.625000", "094328.115000", "094329.605000", "094331.095000", "094332.585000", "094334.075000", "094335.565000", "094337.055000", "094338.545000", "094340.035000", "094341.525000", "094343.015000", "094344.505000", "094345.995000", "094347.485000", "094348.975000", "094350.465000", "094351.955000", "094353.445000", "094354.935000", "094356.425000", "094357.915000", "094359.405000", "094400.895000", "094402.385000", "094403.875000", "094405.365000", "094406.855000", "094408.345000", "094409.835000", "094411.325000", "094412.815000", "094414.305000", "094415.795000", "094417.285000", "094418.775000", "094420.265000", "094421.755000", "094423.245000", "094424.735000", "094426.225000", "094427.715000", "094429.205000", "094430.695000", "094432.185000", "094433.675000", "094435.165000", "094436.655000", "094438.145000", "094439.635000", "094441.125000", "094442.615000", "094444.105000", "094445.595000", "094447.085000", "094448.575000", "094450.065000", "094451.555000", "094453.045000", "094454.535000", "094456.025000", "094457.515000", "094459.005000", "094500.495000", "094501.985000", "094503.475000", "094504.965000", "094506.455000", "094507.945000", "094509.435000", "094510.925000", "094512.415000", "094513.905000", "094515.395000", "094516.885000", "094518.375000", "094519.865000", "094521.355000", "094522.845000", "094524.335000", "094525.825000", "094527.315000", "094528.805000", "094530.295000", "094531.785000", "094533.275000", "094534.765000", "094536.255000", "094537.745000", "094539.235000", "094540.725000", "094542.215000", "094543.705000", "094545.195000", "094546.685000", "094548.175000", "094549.665000", "094551.155000", "094552.645000", "094554.135000", "094555.625000", "094557.115000", "094558.605000", "094600.095000", "094601.585000", "094603.075000", "094604.565000", "094606.055000", "094607.545000", "094609.035000", "094610.525000", "094612.015000", "094613.505000", "094614.995000", "094616.485000", "094617.975000", "094619.465000", "094620.955000", "094622.445000", "094623.935000", "094625.425000", "094626.915000", "094628.405000", "094629.895000", "094631.385000", "094632.875000", "094634.365000", "094635.855000", "094637.345000", "094638.835000", "094640.325000", "094641.815000", "094643.305000", "094644.795000", "094646.285000", "094647.775000", "094649.265000", "094650.755000", "094652.245000", "094653.735000", "094655.225000", "094656.715000", "094658.205000", "094659.695000", "094701.185000", "094702.675000", "094704.165000", "094705.655000", "094707.145000", "094708.635000", "094710.125000", "094711.615000", "094713.105000", "094714.595000", "094716.085000", "094717.575000", "094719.065000", "094720.555000", "094722.045000", "094723.535000", "094725.025000", "094726.515000", "094728.005000", "094729.495000", "094730.985000", "094732.475000", "094733.965000", "094735.455000", "094736.945000", "094738.435000", "094739.925000", "094741.415000", "094742.905000", "094744.395000", "094745.885000", "094747.375000", "094748.865000", "094750.355000", "094751.845000", "094753.335000", "094754.825000", "094756.315000", "094757.805000", "094759.295000", "094800.785000", "094802.275000", "094803.765000", "094805.255000", "094806.745000", "094808.235000", "094809.725000", "094811.215000", "094812.705000", "094814.195000", "094815.685000", "094817.175000", "094818.665000", "094820.155000", "094821.645000", "094823.135000", "094824.625000", "094826.115000", "094827.605000", "094829.095000", "094830.585000", "094832.075000", "094833.565000", "094835.055000", "094836.545000", "094838.035000", "094839.525000", "094841.015000", "094842.505000", "094843.995000", "094845.485000", "094846.975000", "094848.465000", "094849.955000", "094851.445000", "094852.935000", "094854.425000", "094855.915000", "094857.405000", "094858.895000", "094900.385000", "094901.875000", "094903.365000", "094904.855000", "094906.345000", "094907.835000", "094909.325000", "094910.815000", "094912.305000", "094913.795000", "094915.285000", "094916.775000", "094918.265000", "094919.755000", "094921.245000", "094922.735000", "094924.225000", "094925.715000", "094927.205000", "094928.695000", "094930.185000", "094931.675000", "094933.165000", "094934.655000", "094936.145000", "094937.635000", "094939.125000", "094940.615000", "094942.105000", "094943.595000", "094945.085000", "094946.575000", "094948.065000", "094949.555000", "094951.045000", "094952.535000", "094954.025000", "094955.515000", "094957.005000", "094958.495000", "094959.985000", "095001.475000", "095002.965000", "095004.455000", "095005.945000", "095007.435000", "095008.925000", "095010.415000", "095011.905000", "095013.395000", "095014.885000", "095016.375000", "095017.865000", "095019.355000", "095020.845000", "095022.335000", "095023.825000", "095025.315000", "095026.805000", "095028.295000", "095029.785000", "095031.275000", "095032.765000", "095034.255000", "095035.745000", "095037.235000", "095038.725000", "095040.215000", "095041.705000", "095043.195000", "095044.685000", "095046.175000", "095047.665000", "095049.155000", "095050.645000", "095052.135000", "095053.625000", "095055.115000", "095056.605000", "095058.095000", "095059.585000", "095101.075000", "095102.565000", "095104.055000", "095105.545000", "095107.035000", "095108.525000", "095110.015000", "095111.505000", "095112.995000", "095114.485000", "095115.975000", "095117.465000", "095118.955000", "095120.445000", "095121.935000", "095123.425000", "095124.915000", "095126.405000", "095127.895000", "095129.385000", "095130.875000", "095132.365000", "095133.855000", "095135.345000", "095136.835000", "095138.325000", "095139.815000", "095141.305000", "095142.795000", "095144.285000", "095145.775000", "095147.265000", "095148.755000", "095150.245000", "095151.735000", "095153.225000", "095154.715000", "095156.205000", "095157.695000", "095159.185000", "095200.675000", "095202.165000", "095203.655000", "095205.145000", "095206.635000", "095208.125000", "095209.615000", "095211.105000", "095212.595000", "095214.085000", "095215.575000", "095217.065000", "095218.555000", "095220.045000", "095221.535000", "095223.025000", "095224.515000", "095226.005000", "095227.495000", "095228.985000", "095230.475000", "095231.965000", "095233.455000", "095234.945000", "095236.435000", "095237.925000", "095239.415000", "095240.905000", "095242.395000", "095243.885000", "095245.375000", "095246.865000", "095248.355000", "095249.845000", "095251.335000", "095252.825000", "095254.315000", "095255.805000", "095257.295000", "095258.785000", "095300.275000", "095301.765000", "095303.255000", "095304.745000", "095306.235000", "095307.725000", "095309.215000", "095310.705000", "095312.195000", "095313.685000", "095315.175000", "095316.665000", "095318.155000", "095319.645000", "095321.135000", "095322.625000", "095324.115000", "095325.605000", "095327.095000", "095328.585000", "095330.075000", "095331.565000", "095333.055000", "095334.545000", "095336.035000", "095337.525000", "095339.015000", "095340.505000", "095341.995000", "095343.485000", "095344.975000", "095346.465000", "095347.955000", "095349.445000", "095350.935000", "095352.425000", "095353.915000", "095355.405000", "095356.895000", "095358.385000", "095359.875000", "095401.365000", "095402.855000", "095404.345000", "095405.835000", "095407.325000", "095408.815000", "095410.305000", "095411.795000", "095413.285000", "095414.775000", "095416.265000", "095417.755000", "095419.245000", "095420.735000", "095422.225000", "095423.715000", "095425.205000", "095426.695000", "095428.185000", "095429.675000", "095431.165000", "095432.655000", "095434.145000", "095435.635000", "095437.125000", "095438.615000", "095440.105000", "095441.595000", "095443.085000", "095444.575000", "095446.065000", "095447.555000", "095449.045000", "095450.535000", "095452.025000", "095453.515000", "095455.005000", "095456.495000", "095457.985000", "095459.475000", "095500.965000", "095502.455000", "095503.945000", "095505.435000", "095506.925000", "095508.415000", "095509.905000", "095511.395000", "095512.885000", "095514.375000", "095515.865000", "095517.355000", "095518.845000", "095520.335000", "095521.825000"],
      "ContentTime": ["094402.825000", "094402.828000", "094402.831000", "094402.835000", "094402.837000", "094402.840000", "094402.843000", "094402.846000", "094402.857000", "094402.860000", "094402.863000", "094402.867000", "094402.871000", "094402.875000", "094422.792000", "094422.795000", "094422.804000", "094422.807000", "094422.810000", "094422.813000", "094422.816000", "094422.819000", "094422.822000", "094422.825000", "094422.832000", "094422.835000", "094422.838000", "094422.840000", "094422.844000", "094422.846000", "094422.849000", "094422.852000", "094422.855000", "094422.858000", "094422.861000", "094442.792000", "094442.795000", "094442.798000", "094442.801000", "094442.804000", "094442.807000", "094442.810000", "094442.813000", "094442.816000", "094442.819000", "094442.822000", "094442.825000", "094442.828000", "094442.831000", "094442.834000", "094442.842000", "094442.845000", "094442.848000", "094442.851000", "094442.853000", "094502.791000", "094502.794000", "094502.797000", "094502.800000", "094502.803000", "094502.806000", "094502.809000", "094502.812000", "094502.815000", "094502.818000", "094502.820000", "094502.823000", "094502.826000", "094502.829000", "094502.832000", "094502.835000", "094502.838000", "094502.841000", "094502.844000", "094502.847000", "094522.791000", "094522.794000", "094522.808000", "094522.811000", "094522.813000", "094522.816000", "094522.819000", "094522.822000", "094522.825000", "094522.828000", "094522.831000", "094522.834000", "094522.837000", "094522.840000", "094522.843000", "094522.846000", "094522.849000", "094522.852000", "094522.855000", "094522.858000", "094602.792000", "094602.795000", "094602.798000", "094602.801000", "094602.804000", "094602.807000", "094602.810000", "094602.813000", "094602.816000", "094602.819000", "094602.821000", "094602.825000", "094602.827000", "094602.830000", "094602.833000", "094602.836000", "094602.839000", "094602.842000", "094602.845000", "094602.849000", "094602.851000", "094602.854000", "094602.857000", "094602.860000", "094602.863000", "094602.866000", "094602.869000", "094602.872000", "094602.875000", "094602.878000", "094602.881000", "094642.792000", "094642.795000", "094642.798000", "094642.801000", "094642.804000", "094642.807000", "094642.810000", "094642.813000", "094642.816000", "094642.819000", "094642.822000", "094642.825000", "094642.828000", "094642.831000", "094642.834000", "094642.837000", "094642.839000", "094642.842000", "094642.845000", "094642.848000", "094642.851000", "094642.854000", "094642.857000", "094642.860000", "094642.863000", "094642.866000", "094642.869000", "094722.791000", "094722.794000", "094722.797000", "094722.800000", "094722.803000", "094722.806000", "094722.809000", "094722.812000", "094722.815000", "094722.818000", "094722.821000", "094722.824000", "094722.827000", "094722.830000", "094722.833000", "094722.835000", "094722.839000", "094722.842000", "094722.845000", "094722.847000", "094722.850000", "094722.853000", "094722.856000", "094722.859000", "094722.862000", "094722.865000", "094722.868000", "094802.792000", "094802.795000", "094802.798000", "094802.801000", "094802.804000", "094802.807000", "094802.810000", "094802.813000", "094802.816000", "094802.819000", "094802.822000", "094802.825000", "094802.828000", "094802.831000", "094802.833000", "094802.836000", "094802.839000", "094802.842000", "094802.845000", "094802.848000", "094802.851000", "094802.854000", "094802.857000", "094802.860000", "094802.863000", "094802.866000", "094802.869000", "094842.792000", "094842.795000", "094842.798000", "094842.801000", "094842.804000", "094842.815000", "094842.818000", "094842.821000", "094842.824000", "094842.828000", "094842.832000", "094842.835000", "094842.838000", "094842.841000", "094842.845000", "094842.876000", "094842.879000", "094842.882000", "094842.885000", "094842.888000", "094842.891000", "094842.894000", "094842.897000", "094842.900000", "094842.903000", "094842.906000", "094922.792000", "094922.795000", "094922.798000", "094922.801000", "094922.804000", "094922.807000", "094922.810000", "094922.813000", "094922.816000", "094922.819000", "094922.822000", "094922.825000", "094922.837000", "094922.840000", "094922.843000", "094922.846000", "094922.849000", "094922.852000", "094922.855000", "094922.858000", "094922.861000", "094922.864000", "094922.867000", "094922.870000", "094922.873000", "094922.876000", "094922.879000", "095002.791000", "095002.794000", "095002.797000", "095002.800000", "095002.803000", "095002.806000", "095002.809000", "095002.812000", "095002.815000", "095002.818000", "095002.821000", "095002.824000", "095002.827000", "095002.830000", "095002.833000", "095002.836000", "095002.839000", "095002.842000", "095002.845000", "095002.848000", "095002.851000", "095002.854000", "095002.857000", "095002.859000", "095002.863000", "095002.865000", "095002.868000", "095042.792000", "095042.795000", "095042.798000", "095042.801000", "095042.804000", "095042.807000", "095042.810000", "095042.813000", "095042.816000", "095042.819000", "095042.822000", "095042.825000", "095042.828000", "095042.831000", "095042.834000", "095042.837000", "095042.840000", "095042.843000", "095042.846000", "095042.849000", "095042.852000", "095042.855000", "095042.858000", "095042.861000", "095042.864000", "095042.866000", "095042.869000", "095122.792000", "095122.795000", "095122.798000", "095122.801000", "095122.804000", "095122.807000", "095122.810000", "095122.813000", "095122.816000", "095122.819000", "095122.822000", "095122.825000", "095122.828000", "095122.831000", "095122.834000", "095122.837000", "095122.840000", "095122.842000", "095122.845000", "095122.848000", "095122.851000", "095122.854000", "095122.857000", "095122.860000", "095122.863000", "095122.866000", "095122.869000", "095202.791000", "095202.794000", "095202.797000", "095202.800000", "095202.803000", "095202.806000", "095202.809000", "095202.812000", "095202.815000", "095202.818000", "095202.821000", "095202.824000", "095202.827000", "095202.830000", "095202.833000", "095202.836000", "095202.839000", "095202.842000", "095202.844000", "095202.847000", "095202.850000", "095202.853000", "095202.856000", "095202.859000", "095202.862000", "095202.865000", "095202.868000", "095222.791000", "095222.794000", "095222.797000", "095222.800000", "095222.804000", "095222.807000", "095222.810000", "095222.812000", "095222.816000", "095222.818000", "095222.821000", "095222.824000", "095222.827000", "095302.792000", "095302.796000", "095302.799000", "095302.801000", "095302.804000", "095302.807000", "095302.810000", "095302.813000", "095302.816000", "095302.819000", "095302.822000", "095302.825000", "095302.828000", "095302.831000", "095302.834000", "095302.837000", "095302.840000", "095302.843000", "095302.846000", "095302.849000", "095302.852000", "095302.855000", "095302.858000", "095302.861000", "095302.864000", "095302.867000", "095302.870000", "095342.792000", "095342.795000", "095342.798000", "095342.801000", "095342.805000", "095342.808000", "095342.811000", "095342.814000", "095342.817000", "095342.820000", "095342.823000", "095342.826000", "095342.829000", "095342.832000", "095342.835000", "095342.838000", "095342.841000", "095342.844000", "095342.847000", "095342.850000", "095342.853000", "095342.856000", "095342.859000", "095342.862000", "095342.865000", "095342.868000", "095342.871000", "095422.791000", "095422.794000", "095422.797000", "095422.800000", "095422.803000", "095422.806000", "095422.809000", "095422.812000", "095422.815000", "095422.818000", "095422.821000", "095422.824000", "095422.827000", "095422.830000", "095422.833000", "095422.836000", "095422.839000", "095422.842000", "095422.844000", "095422.847000", "095422.850000", "095422.853000", "095422.866000", "095422.874000", "095422.877000", "095422.880000", "095422.883000", "095502.792000", "095502.795000", "095502.798000", "095502.802000", "095502.805000", "095502.808000", "095502.811000", "095502.814000", "095502.817000", "095502.820000", "095502.823000", "095502.826000", "095502.829000", "095502.832000", "095502.835000", "095502.838000", "095502.841000", "095502.844000", "095502.847000", "095502.850000", "095502.853000", "095502.856000", "095502.859000", "095502.862000", "095502.865000", "095502.868000", "095523.702000", "095523.705000", "095523.708000", "095523.711000", "095523.730000", "095523.734000", "095523.737000", "095523.741000", "095523.744000", "095523.747000", "095523.750000", "095523.753000", "095523.756000", "095523.759000", "095523.762000"],
