{
  "AcquisitionMatrixPE": 104,
  "AcquisitionNumber": 1,
  "AcquisitionTime": "09:56:49.842500",
  "BandwidthPerPixelPhaseEncode": 17.17,
  "BaseResolution": 104,
  "BodyPartExamined": "BRAIN",
  "CoilString": "HC1-7;NC1_2",
  "ConsistencyInfo": "N4_VE11C_LATEST_20160120",
  "ConversionSoftware": "dcm2niix",
  "ConversionSoftwareVersion": "v1.0.20190902",
  "DerivedVendorReportedEchoSpacing": 0.000560011,
  "DeviceSerialNumber": "167006",
  "DwellTime": 2.1e-06,
  "EchoTime": 0.037,
  "EchoTrainLength": 104,
  "EffectiveEchoSpacing": 0.000560011,
  "FlipAngle": 52,
  "ImageComments": "Unaliased_MB4_PE3_LB",
  "ImageOrientationPatientDICOM": [0.999473, -0.0176149, 0.027277, 0.0266958, 0.923989, -0.381487],
  "ImageType": [
    "ORIGINAL",
    "PRIMARY",
    "M",
    "MB",
    "ND",
    "MOSAIC"
],
  "ImagingFrequency": 123.259,
  "InPlanePhaseEncodingDirectionDICOM": "COL",
  "InstitutionAddress": "Chemin_Queen-Mary_4565_Montreal_District_CA_H3W_1W5",
  "InstitutionName": "IUGM",
  "InstitutionalDepartmentName": "Department",
  "MRAcquisitionType": "2D",
  "MagneticFieldStrength": 3,
  "Manufacturer": "Siemens",
  "ManufacturersModelName": "Prisma_fit",
  "Modality": "MR",
  "MultibandAccelerationFactor": 4,
  "PartialFourier": 1,
  "PatientPosition": "HFS",
  "PercentPhaseFOV": 100,
  "PhaseEncodingDirection": "j",
  "PhaseEncodingSteps": 104,
  "PhaseResolution": 1,
  "PixelBandwidth": 2290,
  "ProcedureStepDescription": "video_friends",
  "ProtocolName": "func_task-friends-s04e09a",
  "PulseSequenceDetails": "%CustomerSeq%_cmrr_mbep2d_bold",
  "ReceiveCoilActiveElements": "HC1-7;NC1,2",
  "ReceiveCoilName": "HeadNeck_64",
  "ReconMatrixPE": 104,
  "RepetitionTime": 1.49,
  "SAR": 0.0383523,
  "ScanOptions": "FS",
  "ScanningSequence": "EP",
  "SequenceName": "epfid2d1_104",
  "SequenceVariant": "SK_SS",
  "SeriesDescription": "func_task-friends-s04e09a",
  "SeriesNumber": 15,
  "ShimSetting": [627, -7178, -8832, 626, 45, 34, 18, -2],
  "SliceThickness": 2,
  "SliceTiming": [0, 0.785, 0.1, 0.8825, 0.1975, 0.98, 0.295, 1.08, 0.3925, 1.1775, 0.49, 1.275, 0.59, 1.3725, 0.6875, 0, 0.785, 0.1, 0.8825, 0.1975, 0.98, 0.295, 1.08, 0.3925, 1.1775, 0.49, 1.275, 0.59, 1.3725, 0.6875, 0, 0.785, 0.1, 0.8825, 0.1975, 0.98, 0.295, 1.08, 0.3925, 1.1775, 0.49, 1.275, 0.59, 1.3725, 0.6875, 0, 0.785, 0.1, 0.8825, 0.1975, 0.98, 0.295, 1.08, 0.3925, 1.1775, 0.49, 1.275, 0.59, 1.3725, 0.6875],
  "SoftwareVersions": "syngo_MR_E11",
  "SpacingBetweenSlices": 2,
  "StationName": "MRC35049",
  "TaskName": "s04e09a",
  "TotalReadoutTime": 0.0576811,
  "TxRefAmp": 246.019,
  "WipMemBlock": "ac64f9d7-d6c2-4698-a50a-31ac6967484d||Sequence: R016 ve11c/master r/e634e98; Dec 19 2017 11:00:25 by eja",
  "dcmmeta_affine": [
    [-1.9989453554153442, 0.053391698747873306, 0.03696761652827263, 100.43898010253906],
    [0.03522977605462074, 1.847977638244629, -0.7640270590782166, -68.79910278320312],
    [0.05455401912331581, 0.7629730701446533, 1.847943663597107, -64.5680923461914],
    [0.0, 0.0, 0.0, 1.0]
],
  "dcmmeta_reorient_transform": [
    [0.0, -1.0, 0.0, 103.0],
    [1.0, 0.0, 0.0, 0.0],
    [0.0, 0.0, 1.0, 0.0],
    [0.0, 0.0, 0.0, 1.0]
],
  "dcmmeta_shape": [104, 104, 60, 441],
  "dcmmeta_slice_dim": 2,
  "dcmmeta_version": 0.6,
  "global": {
    "const": {
      "AcquisitionMatrix": [104, 0, 0, 104],
      "AngioFlag": "N",
      "BitsAllocated": 16,
      "BitsStored": 16,
      "BodyPartExamined": "BRAIN",
      "Columns": 832,
      "EchoNumbers": 1,
      "EchoTime": 37.0,
      "EchoTrainLength": 104,
      "FlipAngle": 52.0,
      "HighBit": 15,
      "ImageOrientationPatient": [0.99947270120325, -0.0176148885363, 0.02727700957458, 0.02669584851143, 0.92398883409889, -0.3814865215612],
      "ImagePositionPatient": [-852.98903172773, -781.38282584834, 271.88265378606],
      "ImageType": [
        "ORIGINAL",
        "PRIMARY",
        "M",
        "MB",
        "ND",
        "MOSAIC"
],
      "ImagedNucleus": "1H",
      "ImagingFrequency": 123.259013,
      "InPlanePhaseEncodingDirection": "COL",
      "MRAcquisitionType": "2D",
      "MagneticFieldStrength": 3.0,
      "Manufacturer": "SIEMENS",
      "ManufacturerModelName": "Prisma_fit",
      "Modality": "MR",
      "NumberOfAverages": 1.0,
      "NumberOfPhaseEncodingSteps": 104,
      "PercentPhaseFieldOfView": 100.0,
      "PercentSampling": 100.0,
      "PerformedProcedureStepStartTime": "085046.315000",
      "PhotometricInterpretation": "MONOCHROME2",
      "PixelBandwidth": 2290.0,
      "PixelRepresentation": 0,
      "PixelSpacing": [2.0, 2.0],
      "ProtocolName": "func_task-friends-s04e09a",
      "RepetitionTime": 1490.0,
      "Rows": 832,
      "SAR": 0.03835228499106,
      "SamplesPerPixel": 1,
      "ScanOptions": "FS",
      "ScanningSequence": "EP",
      "SequenceName": "epfid2d1_104",
      "SequenceVariant": [
        "SK",
        "SS"
],
      "SeriesDescription": "func_task-friends-s04e09a",
      "SeriesNumber": 15,
      "SeriesTime": "095813.024000",
      "SliceLocation": -31.520416584293,
      "SliceThickness": 2.0,
      "SmallestImagePixelValue": 0,
      "SoftwareVersions": "syngo MR E11",
      "SpacingBetweenSlices": 1.9999999304591,
      "SpecificCharacterSet": "ISO_IR 100",
      "StudyID": "1",
      "StudyTime": "085046.193000",
      "TransmitCoilName": "Body",
      "VariableFlipAngleFlag": "N",
      "WindowCenterWidthExplanation": "Algo1",
      "dBdt": 0.0},
    "slices": {}
  },
  "time": {
    "samples": {
      "AcquisitionNumber": [1, 2, 3, 4, 5, 6, 7, 8, 9, 10, 11, 12, 13, 14, 15, 16, 17, 18, 19, 20, 21, 22, 23, 24, 25, 26, 27, 28, 29, 30, 31, 32, 33, 34, 35, 36, 37, 38, 39, 40, 41, 42, 43, 44, 45, 46, 47, 48, 49, 50, 51, 52, 53, 54, 55, 56, 57, 58, 59, 60, 61, 62, 63, 64, 65, 66, 67, 68, 69, 70, 71, 72, 73, 74, 75, 76, 77, 78, 79, 80, 81, 82, 83, 84, 85, 86, 87, 88, 89, 90, 91, 92, 93, 94, 95, 96, 97, 98, 99, 100, 101, 102, 103, 104, 105, 106, 107, 108, 109, 110, 111, 112, 113, 114, 115, 116, 117, 118, 119, 120, 121, 122, 123, 124, 125, 126, 127, 128, 129, 130, 131, 132, 133, 134, 135, 136, 137, 138, 139, 140, 141, 142, 143, 144, 145, 146, 147, 148, 149, 150, 151, 152, 153, 154, 155, 156, 157, 158, 159, 160, 161, 162, 163, 164, 165, 166, 167, 168, 169, 170, 171, 172, 173, 174, 175, 176, 177, 178, 179, 180, 181, 182, 183, 184, 185, 186, 187, 188, 189, 190, 191, 192, 193, 194, 195, 196, 197, 198, 199, 200, 201, 202, 203, 204, 205, 206, 207, 208, 209, 210, 211, 212, 213, 214, 215, 216, 217, 218, 219, 220, 221, 222, 223, 224, 225, 226, 227, 228, 229, 230, 231, 232, 233, 234, 235, 236, 237, 238, 239, 240, 241, 242, 243, 244, 245, 246, 247, 248, 249, 250, 251, 252, 253, 254, 255, 256, 257, 258, 259, 260, 261, 262, 263, 264, 265, 266, 267, 268, 269, 270, 271, 272, 273, 274, 275, 276, 277, 278, 279, 280, 281, 282, 283, 284, 285, 286, 287, 288, 289, 290, 291, 292, 293, 294, 295, 296, 297, 298, 299, 300, 301, 302, 303, 304, 305, 306, 307, 308, 309, 310, 311, 312, 313, 314, 315, 316, 317, 318, 319, 320, 321, 322, 323, 324, 325, 326, 327, 328, 329, 330, 331, 332, 333, 334, 335, 336, 337, 338, 339, 340, 341, 342, 343, 344, 345, 346, 347, 348, 349, 350, 351, 352, 353, 354, 355, 356, 357, 358, 359, 360, 361, 362, 363, 364, 365, 366, 367, 368, 369, 370, 371, 372, 373, 374, 375, 376, 377, 378, 379, 380, 381, 382, 383, 384, 385, 386, 387, 388, 389, 390, 391, 392, 393, 394, 395, 396, 397, 398, 399, 400, 401, 402, 403, 404, 405, 406, 407, 408, 409, 410, 411, 412, 413, 414, 415, 416, 417, 418, 419, 420, 421, 422, 423, 424, 425, 426, 427, 428, 429, 430, 431, 432, 433, 434, 435, 436, 437, 438, 439, 440, 441],
      "AcquisitionTime": ["095649.842500", "095651.332500", "095652.822500", "095654.312500", "095655.802500", "095657.292500", "095658.782500", "095700.272500", "095701.762500", "095703.252500", "095704.742500", "095706.232500", "095707.722500", "095709.212500", "095710.702500", "095712.192500", "095713.682500", "095715.172500", "095716.662500", "095718.152500", "095719.642500", "095721.132500", "095722.622500", "095724.112500", "095725.602500", "095727.092500", "095728.582500", "095730.072500", "095731.562500", "095733.052500", "095734.542500", "095736.032500", "095737.522500", "095739.012500", "095740.502500", "095741.992500", "095743.482500", "095744.972500", "095746.462500", "095747.952500", "095749.442500", "095750.932500", "095752.422500", "095753.912500", "095755.402500", "095756.892500", "095758.382500", "095759.872500", "095801.362500", "095802.852500", "095804.342500", "095805.832500", "095807.322500", "095808.812500", "095810.302500", "095811.792500", "095813.282500", "095814.772500", "095816.262500", "095817.752500", "095819.242500", "095820.732500", "095822.222500", "095823.712500", "095825.202500", "095826.692500", "095828.182500", "095829.672500", "095831.162500", "095832.652500", "095834.142500", "095835.632500", "095837.122500", "095838.612500", "095840.102500", "095841.592500", "095843.082500", "095844.572500", "095846.062500", "095847.552500", "095849.042500", "095850.532500", "095852.022500", "095853.512500", "095855.002500", "095856.492500", "095857.982500", "095859.472500", "095900.962500", "095902.452500", "095903.942500", "095905.432500", "095906.922500", "095908.412500", "095909.902500", "095911.392500", "095912.882500", "095914.372500", "095915.862500", "095917.352500", "095918.842500", "095920.332500", "095921.822500", "095923.312500", "095924.802500", "095926.292500", "095927.782500", "095929.272500", "095930.762500", "095932.252500", "095933.742500", "095935.232500", "095936.722500", "095938.212500", "095939.702500", "095941.192500", "095942.682500", "095944.172500", "095945.662500", "095947.152500", "095948.642500", "095950.132500", "095951.622500", "095953.112500", "095954.602500", "095956.092500", "095957.582500", "095959.072500", "100000.562500", "100002.052500", "100003.542500", "100005.032500", "100006.522500", "100008.012500", "100009.502500", "100010.992500", "100012.482500", "100013.972500", "100015.462500", "100016.952500", "100018.442500", "100019.932500", "100021.422500", "100022.912500", "100024.402500", "100025.892500", "100027.382500", "100028.872500", "100030.362500", "100031.852500", "100033.342500", "100034.832500", "100036.322500", "100037.812500", "100039.302500", "100040.792500", "100042.282500", "100043.772500", "100045.262500", "100046.752500", "100048.242500", "100049.732500", "100051.222500", "100052.712500", "100054.202500", "100055.692500", "100057.182500", "100058.672500", "100100.162500", "100101.652500", "100103.142500", "100104.632500", "100106.122500", "100107.612500", "100109.102500", "100110.592500", "100112.082500", "100113.572500", "100115.062500", "100116.552500", "100118.042500", "100119.532500", "100121.022500", "100122.512500", "100124.002500", "100125.492500", "100126.982500", "100128.472500", "100129.962500", "100131.452500", "100132.942500", "100134.432500", "100135.922500", "100137.412500", "100138.902500", "100140.392500", "100141.882500", "100143.372500", "100144.862500", "100146.352500", "100147.842500", "100149.332500", "100150.822500", "100152.312500", "100153.802500", "100155.292500", "100156.782500", "100158.272500", "100159.762500", "100201.252500", "100202.742500", "100204.232500", "100205.722500", "100207.212500", "100208.702500", "100210.192500", "100211.682500", "100213.172500", "100214.662500", "100216.152500", "100217.642500", "100219.132500", "100220.622500", "100222.112500", "100223.602500", "100225.092500", "100226.582500", "100228.072500", "100229.562500", "100231.052500", "100232.542500", "100234.032500", "100235.522500", "100237.012500", "100238.502500", "100239.992500", "100241.482500", "100242.972500", "100244.462500", "100245.952500", "100247.442500", "100248.932500", "100250.422500", "100251.912500", "100253.402500", "100254.892500", "100256.382500", "100257.872500", "100259.362500", "100300.852500", "100302.342500", "100303.832500", "100305.322500", "100306.812500", "100308.302500", "100309.792500", "100311.282500", "100312.772500", "100314.262500", "100315.752500", "100317.242500", "100318.732500", "100320.222500", "100321.712500", "100323.202500", "100324.692500", "100326.182500", "100327.672500", "100329.162500", "100330.652500", "100332.142500", "100333.632500", "100335.122500", "100336.612500", "100338.102500", "100339.592500", "100341.082500", "100342.572500", "100344.062500", "100345.552500", "100347.042500", "100348.532500", "100350.022500", "100351.512500", "100353.002500", "100354.492500", "100355.982500", "100357.472500", "100358.962500", "100400.452500", "100401.942500", "100403.432500", "100404.922500", "100406.412500", "100407.902500", "100409.392500", "100410.882500", "100412.372500", "100413.862500", "100415.352500", "100416.842500", "100418.332500", "100419.822500", "100421.312500", "100422.802500", "100424.292500", "100425.782500", "100427.272500", "100428.762500", "100430.252500", "100431.742500", "100433.232500", "100434.722500", "100436.212500", "100437.702500", "100439.192500", "100440.682500", "100442.172500", "100443.662500", "100445.152500", "100446.642500", "100448.132500", "100449.622500", "100451.112500", "100452.602500", "100454.092500", "100455.582500", "100457.072500", "100458.562500", "100500.052500", "100501.542500", "100503.032500", "100504.522500", "100506.012500", "100507.502500", "100508.992500", "100510.482500", "100511.972500", "100513.462500", "100514.952500", "100516.442500", "100517.932500", "100519.422500", "100520.912500", "100522.402500", "100523.892500", "100525.382500", "100526.872500", "100528.362500", "100529.852500", "100531.342500", "100532.832500", "100534.322500", "100535.812500", "100537.302500", "100538.792500", "100540.282500", "100541.772500", "100543.262500", "100544.752500", "100546.242500", "100547.732500", "100549.222500", "100550.712500", "100552.202500", "100553.692500", "100555.182500", "100556.672500", "100558.162500", "100559.652500", "100601.142500", "100602.632500", "100604.122500", "100605.612500", "100607.102500", "100608.592500", "100610.082500", "100611.572500", "100613.062500", "100614.552500", "100616.042500", "100617.532500", "100619.022500", "100620.512500", "100622.002500", "100623.492500", "100624.982500", "100626.472500", "100627.962500", "100629.452500", "100630.942500", "100632.432500", "100633.922500", "100635.412500", "100636.902500", "100638.392500", "100639.882500", "100641.372500", "100642.862500", "100644.352500", "100645.842500", "100647.332500", "100648.822500", "100650.312500", "100651.802500", "100653.292500", "100654.782500", "100656.272500", "100657.762500", "100659.252500", "100700.742500", "100702.232500", "100703.722500", "100705.212500", "100706.702500", "100708.192500", "100709.682500", "100711.172500", "100712.662500", "100714.152500", "100715.642500", "100717.132500", "100718.622500", "100720.112500", "100721.602500", "100723.092500", "100724.582500", "100726.072500", "100727.562500", "100729.052500", "100730.542500", "100732.032500", "100733.522500", "100735.012500", "100736.502500", "100737.992500", "100739.482500", "100740.972500", "100742.462500", "100743.952500", "100745.442500"],
      "ContentTime": ["095813.027000", "095813.030000", "095813.033000", "095813.043000", "095813.046000", "095813.048000", "095813.052000", "095813.054000", "095813.057000", "095813.060000", "095813.063000", "095813.066000", "095813.069000", "095813.072000", "095813.075000", "095813.078000", "095813.081000", "095813.083000", "095813.087000", "095813.090000", "095813.092000", "095813.095000", "095813.098000", "095813.101000", "095813.104000", "095813.107000", "095813.110000", "095813.113000", "095813.116000", "095813.123000", "095813.126000", "095832.994000", "095832.997000", "095833.001000", "095833.004000", "095833.007000", "095833.010000", "095833.013000", "095833.016000", "095833.019000", "095833.021000", "095833.024000", "095833.027000", "095833.030000", "095833.033000", "095833.036000", "095833.039000", "095833.042000", "095833.045000", "095833.048000", "095833.051000", "095852.994000", "095852.997000", "095853.001000", "095853.004000", "095853.007000", "095853.010000", "095853.013000", "095853.016000", "095853.018000", "095853.021000", "095853.024000", "095853.027000", "095853.030000", "095853.033000", "095853.036000", "095853.039000", "095853.042000", "095853.045000", "095853.048000", "095853.051000", "095912.994000", "095912.998000", "095913.002000", "095913.029000", "095913.032000", "095913.035000", "095913.038000", "095913.041000", "095913.044000", "095913.047000", "095913.050000", "095913.053000", "095913.056000", "095913.059000", "095913.062000", "095913.064000", "095913.067000", "095913.070000", "095913.073000", "095913.076000", "095952.993000", "095952.996000", "095953.000000", "095953.003000", "095953.006000", "095953.009000", "095953.012000", "095953.015000", "095953.018000", "095953.021000", "095953.023000", "095953.026000", "095953.029000", "095953.032000", "095953.035000", "095953.038000", "095953.041000", "095953.044000", "095953.047000", "095953.050000", "095953.053000", "095953.056000", "095953.059000", "095953.061000", "095953.064000", "095953.067000", "095953.070000", "095953.073000", "095953.077000", "095953.080000", "095953.083000", "100032.993000", "100032.996000", "100033.000000", "100033.003000", "100033.006000", "100033.009000", "100033.012000", "100033.015000", "100033.017000", "100033.020000", "100033.023000", "100033.042000", "100033.045000", "100033.048000", "100033.051000", "100033.054000", "100033.057000", "100033.060000", "100033.063000", "100033.066000", "100033.069000", "100033.072000", "100033.074000", "100033.077000", "100033.080000", "100033.083000", "100033.086000", "100112.994000", "100112.997000", "100113.001000", "100113.004000", "100113.007000", "100113.010000", "100113.013000", "100113.016000", "100113.019000", "100113.022000", "100113.025000", "100113.028000", "100113.031000", "100113.033000", "100113.037000", "100113.039000", "100113.042000", "100113.045000", "100113.048000", "100113.051000", "100113.054000", "100113.057000", "100113.060000", "100113.063000", "100113.066000", "100113.069000", "100113.072000", "100152.994000", "100152.997000", "100153.001000", "100153.004000", "100153.007000", "100153.010000", "100153.013000", "100153.016000", "100153.018000", "100153.021000", "100153.024000", "100153.027000", "100153.030000", "100153.033000", "100153.036000", "100153.039000", "100153.042000", "100153.045000", "100153.048000", "100153.051000", "100153.054000", "100153.057000", "100153.061000", "100153.064000", "100153.067000", "100153.070000", "100232.994000", "100232.997000", "100233.001000", "100233.004000", "100233.007000", "100233.010000", "100233.013000", "100233.016000", "100233.019000", "100233.022000", "100233.025000", "100233.028000", "100233.031000", "100233.034000", "100233.037000", "100233.040000", "100233.043000", "100233.045000", "100233.048000", "100233.051000", "100233.054000", "100233.057000", "100233.060000", "100233.063000", "100233.066000", "100233.069000", "100233.072000", "100312.994000", "100312.997000", "100313.001000", "100313.004000", "100313.007000", "100313.010000", "100313.013000", "100313.016000", "100313.019000", "100313.021000", "100313.025000", "100313.027000", "100313.030000", "100313.033000", "100313.036000", "100313.039000", "100313.042000", "100313.045000", "100313.048000", "100313.051000", "100313.054000", "100313.057000", "100313.060000", "100313.062000", "100313.065000", "100313.068000", "100313.071000", "100352.994000", "100352.997000", "100353.001000", "100353.004000", "100353.007000", "100353.010000", "100353.013000", "100353.016000", "100353.019000", "100353.022000", "100353.024000", "100353.027000", "100353.030000", "100353.034000", "100353.036000", "100353.039000", "100353.042000", "100353.045000", "100353.048000", "100353.051000", "100353.054000", "100353.057000", "100353.060000", "100353.063000", "100353.066000", "100353.069000", "100353.071000", "100432.993000", "100432.996000", "100433.000000", "100433.003000", "100433.006000", "100433.009000", "100433.012000", "100433.015000", "100433.018000", "100433.021000", "100433.024000", "100433.027000", "100433.030000", "100433.033000", "100433.036000", "100433.039000", "100433.042000", "100433.045000", "100433.047000", "100433.050000", "100433.053000", "100433.056000", "100433.059000", "100433.062000", "100433.065000", "100433.068000", "100433.071000", "100512.993000", "100512.996000", "100513.000000", "100513.003000", "100513.006000", "100513.009000", "100513.012000", "100513.015000", "100513.018000", "100513.020000", "100513.023000", "100513.042000", "100513.045000", "100513.048000", "100513.050000", "100513.054000", "100513.056000", "100513.059000", "100513.062000", "100513.065000", "100513.068000", "100513.071000", "100513.074000", "100513.077000", "100513.080000", "100513.083000", "100513.086000", "100552.994000", "100552.997000", "100553.001000", "100553.004000", "100553.007000", "100553.010000", "100553.013000", "100553.016000", "100553.019000", "100553.022000", "100553.025000", "100553.028000", "100553.031000", "100553.034000", "100553.037000", "100553.040000", "100553.043000", "100553.046000", "100553.049000", "100553.051000", "100553.054000", "100553.057000", "100553.060000", "100553.063000", "100553.066000", "100553.069000", "100632.994000", "100632.997000", "100633.001000", "100633.004000", "100633.007000", "100633.010000", "100633.013000", "100633.016000", "100633.019000", "100633.022000", "100633.024000", "100633.027000", "100633.031000", "100633.033000", "100633.036000", "100633.039000", "100633.042000", "100633.045000", "100633.048000", "100633.051000", "100633.054000", "100633.057000", "100633.060000", "100633.062000", "100633.065000", "100633.069000", "100633.072000", "100712.993000", "100712.996000", "100713.000000", "100713.003000", "100713.006000", "100713.009000", "100713.012000", "100713.015000", "100713.018000", "100713.020000", "100713.023000", "100713.026000", "100713.029000", "100713.032000", "100713.035000", "100713.038000", "100713.041000", "100713.044000", "100713.047000", "100713.050000", "100713.053000", "100713.056000", "100713.059000", "100713.062000", "100713.065000", "100713.068000", "100713.070000", "100747.861000", "100747.864000", "100747.867000", "100747.870000", "100747.873000", "100747.876000", "100747.879000", "100747.882000", "100747.885000", "100747.889000", "100747.892000", "100747.895000", "100747.899000", "100747.902000", "100747.905000", "100747.908000", "100747.911000", "100747.914000", "100747.917000", "100747.920000", "100747.923000", "100747.926000", "100747.929000", "100747.932000"],
