{
  "AcquisitionMatrixPE": 104,
  "AcquisitionNumber": 1,
  "AcquisitionTime": "15:23:59.145000",
  "BandwidthPerPixelPhaseEncode": 17.17,
  "BaseResolution": 104,
  "BodyPartExamined": "BRAIN",
  "CoilCombinationMethod": "Sum of Squares",
  "ConsistencyInfo": "N4_VE11C_LATEST_20160120",
  "ConversionSoftware": "dcm2niix",
  "ConversionSoftwareVersion": "v1.0.20230411",
  "DerivedVendorReportedEchoSpacing": 0.000560011,
  "DeviceSerialNumber": "167006",
  "DwellTime": 2.1e-06,
  "EchoTime": 0.037,
  "EchoTrainLength": 104,
  "EffectiveEchoSpacing": 0.000560011,
  "FlipAngle": 52,
  "HeudiconvVersion": "0.5.3.post861+ge7d3c7f",
  "ImageComments": "Unaliased MB4/PE3/LB",
  "ImageOrientationPatientDICOM": [0.998137, -0.0608904, 0.00388814, 0.0591255, 0.949535, -0.308037],
  "ImageOrientationText": "Tra>Cor(-17.9)>Sag(-0.9)",
  "ImageType": [
    "ORIGINAL",
    "PRIMARY",
    "M",
    "MB",
    "ND",
    "MOSAIC"
],
  "ImagingFrequency": 123.250047,
  "InPlanePhaseEncodingDirectionDICOM": "COL",
  "InstitutionAddress": "Chemin Queen-Mary 4565,Montreal,District,CA,H3W 1W5",
  "InstitutionName": "IUGM",
  "InstitutionalDepartmentName": "Department",
  "MRAcquisitionType": "2D",
  "MagneticFieldStrength": 3,
  "Manufacturer": "Siemens",
  "ManufacturersModelName": "Prisma_fit",
  "MatrixCoilMode": "SENSE",
  "Modality": "MR",
  "MultibandAccelerationFactor": 4,
  "NonlinearGradientCorrection": false,
  "PartialFourier": 1,
  "PatientPosition": "HFS",
  "PercentPhaseFOV": 100,
  "PercentSampling": 100,
  "PhaseEncodingDirection": "j",
  "PhaseEncodingSteps": 104,
  "PhaseResolution": 1,
  "PixelBandwidth": 2290,
  "ProcedureStepDescription": "video^friends",
  "ProtocolName": "func_task-friends-s07e10b",
  "PulseSequenceDetails": "%CustomerSeq%\\cmrr_mbep2d_bold",
  "ReceiveCoilActiveElements": "HC1-7;NC1,2",
  "ReceiveCoilName": "HeadNeck_64",
  "ReconMatrixPE": 104,
  "RepetitionTime": 1.49,
  "SAR": 0.0425708,
  "ScanOptions": "FS",
  "ScanningSequence": "EP",
  "SequenceName": "epfid2d1_104",
  "SequenceVariant": "SK\\SS",
  "SeriesDescription": "func_task-friends-s07e10b",
  "SeriesNumber": 16,
  "ShimSetting": [608, -7286, -8819, 525, 52, -258, -92, 45],
  "SliceThickness": 2,
  "SliceTiming": [0, 0.7825, 0.0975, 0.8825, 0.195, 0.98, 0.295, 1.0775, 0.3925, 1.175, 0.49, 1.2725, 0.5875, 1.3725, 0.685, 0, 0.7825, 0.0975, 0.8825, 0.195, 0.98, 0.295, 1.0775, 0.3925, 1.175, 0.49, 1.2725, 0.5875, 1.3725, 0.685, 0, 0.7825, 0.0975, 0.8825, 0.195, 0.98, 0.295, 1.0775, 0.3925, 1.175, 0.49, 1.2725, 0.5875, 1.3725, 0.685, 0, 0.7825, 0.0975, 0.8825, 0.195, 0.98, 0.295, 1.0775, 0.3925, 1.175, 0.49, 1.2725, 0.5875, 1.3725, 0.685],
  "SoftwareVersions": "syngo MR E11",
  "SpacingBetweenSlices": 2,
  "StationName": "MRC35049",
  "TaskName": "s07e10b",
  "TotalReadoutTime": 0.0576811,
  "TxRefAmp": 230.341,
  "WipMemBlock": "f47af9a0-4ba2-47e8-8690-d599270e3979||Sequence: R017 ve11c/master r/75a17815+; Jun 28 2022 16:32:11 by eja",
  "dcmmeta_affine": [
    [-1.9962737560272217, 0.11825090646743774, -0.030129089951515198, 97.3974838256836],
    [0.12178082019090652, 1.8990709781646729, -0.6153850555419922, -81.99698638916016],
    [0.007776280865073204, 0.6160731315612793, 1.9027330875396729, -63.37046813964844],
    [0.0, 0.0, 0.0, 1.0]
],
  "dcmmeta_reorient_transform": [
    [0.0, -1.0, 0.0, 103.0],
    [1.0, 0.0, 0.0, 0.0],
    [0.0, 0.0, 1.0, 0.0],
    [0.0, 0.0, 0.0, 1.0]
],
  "dcmmeta_shape": [104, 104, 60, 493],
  "dcmmeta_slice_dim": 2,
  "dcmmeta_version": 0.6,
  "global": {
    "const": {
      "AcquisitionMatrix": [104, 0, 0, 104],
      "AngioFlag": "N",
      "BitsAllocated": 16,
      "BitsStored": 16,
      "BodyPartExamined": "BRAIN",
      "Columns": 832,
      "EchoNumbers": 1,
      "EchoTime": 37.0,
      "EchoTrainLength": 104,
      "FlipAngle": 52.0,
      "HighBit": 15,
      "ImageOrientationPatient": [0.99813688452127, -0.060890410751, 0.00388814052507, 0.05912545343194, 0.94953549756122, -0.3080365556677],
      "ImagePositionPatient": [-879.26430786282, -760.54094655532, 221.50510803137],
      "ImageType": [
        "ORIGINAL",
        "PRIMARY",
        "M",
        "MB",
        "ND",
        "MOSAIC"
],
      "ImagedNucleus": "1H",
      "ImagingFrequency": 123.250047,
      "InPlanePhaseEncodingDirection": "COL",
      "MRAcquisitionType": "2D",
      "MagneticFieldStrength": 3.0,
      "Manufacturer": "SIEMENS",
      "ManufacturerModelName": "Prisma_fit",
      "Modality": "MR",
      "NumberOfAverages": 1.0,
      "NumberOfPhaseEncodingSteps": 104,
      "PercentPhaseFieldOfView": 100.0,
      "PercentSampling": 100.0,
      "PerformedProcedureStepStartTime": "142352.127000",
      "PhotometricInterpretation": "MONOCHROME2",
      "PixelBandwidth": 2290.0,
      "PixelRepresentation": 0,
      "PixelSpacing": [2.0, 2.0],
      "ProtocolName": "func_task-friends-s07e10b",
      "RepetitionTime": 1490.0,
      "Rows": 832,
      "SAR": 0.04257078331828,
      "SamplesPerPixel": 1,
      "ScanOptions": "FS",
      "ScanningSequence": "EP",
      "SequenceName": "epfid2d1_104",
      "SequenceVariant": [
        "SK",
        "SS"
],
      "SeriesDescription": "func_task-friends-s07e10b",
      "SeriesNumber": 16,
      "SeriesTime": "152508.782000",
      "SliceLocation": -36.525933029567,
      "SliceThickness": 2.0,
      "SmallestImagePixelValue": 0,
      "SoftwareVersions": "syngo MR E11",
      "SpacingBetweenSlices": 1.9999999927482,
      "SpecificCharacterSet": "ISO_IR 100",
      "StudyID": "1",
      "StudyTime": "142351.970000",
      "TransmitCoilName": "Body",
      "VariableFlipAngleFlag": "N",
      "WindowCenterWidthExplanation": "Algo1",
      "dBdt": 0.0},
    "slices": {}
  },
  "time": {
    "samples": {
      "AcquisitionNumber": [1, 2, 3, 4, 5, 6, 7, 8, 9, 10, 11, 12, 13, 14, 15, 16, 17, 18, 19, 20, 21, 22, 23, 24, 25, 26, 27, 28, 29, 30, 31, 32, 33, 34, 35, 36, 37, 38, 39, 40, 41, 42, 43, 44, 45, 46, 47, 48, 49, 50, 51, 52, 53, 54, 55, 56, 57, 58, 59, 60, 61, 62, 63, 64, 65, 66, 67, 68, 69, 70, 71, 72, 73, 74, 75, 76, 77, 78, 79, 80, 81, 82, 83, 84, 85, 86, 87, 88, 89, 90, 91, 92, 93, 94, 95, 96, 97, 98, 99, 100, 101, 102, 103, 104, 105, 106, 107, 108, 109, 110, 111, 112, 113, 114, 115, 116, 117, 118, 119, 120, 121, 122, 123, 124, 125, 126, 127, 128, 129, 130, 131, 132, 133, 134, 135, 136, 137, 138, 139, 140, 141, 142, 143, 144, 145, 146, 147, 148, 149, 150, 151, 152, 153, 154, 155, 156, 157, 158, 159, 160, 161, 162, 163, 164, 165, 166, 167, 168, 169, 170, 171, 172, 173, 174, 175, 176, 177, 178, 179, 180, 181, 182, 183, 184, 185, 186, 187, 188, 189, 190, 191, 192, 193, 194, 195, 196, 197, 198, 199, 200, 201, 202, 203, 204, 205, 206, 207, 208, 209, 210, 211, 212, 213, 214, 215, 216, 217, 218, 219, 220, 221, 222, 223, 224, 225, 226, 227, 228, 229, 230, 231, 232, 233, 234, 235, 236, 237, 238, 239, 240, 241, 242, 243, 244, 245, 246, 247, 248, 249, 250, 251, 252, 253, 254, 255, 256, 257, 258, 259, 260, 261, 262, 263, 264, 265, 266, 267, 268, 269, 270, 271, 272, 273, 274, 275, 276, 277, 278, 279, 280, 281, 282, 283, 284, 285, 286, 287, 288, 289, 290, 291, 292, 293, 294, 295, 296, 297, 298, 299, 300, 301, 302, 303, 304, 305, 306, 307, 308, 309, 310, 311, 312, 313, 314, 315, 316, 317, 318, 319, 320, 321, 322, 323, 324, 325, 326, 327, 328, 329, 330, 331, 332, 333, 334, 335, 336, 337, 338, 339, 340, 341, 342, 343, 344, 345, 346, 347, 348, 349, 350, 351, 352, 353, 354, 355, 356, 357, 358, 359, 360, 361, 362, 363, 364, 365, 366, 367, 368, 369, 370, 371, 372, 373, 374, 375, 376, 377, 378, 379, 380, 381, 382, 383, 384, 385, 386, 387, 388, 389, 390, 391, 392, 393, 394, 395, 396, 397, 398, 399, 400, 401, 402, 403, 404, 405, 406, 407, 408, 409, 410, 411, 412, 413, 414, 415, 416, 417, 418, 419, 420, 421, 422, 423, 424, 425, 426, 427, 428, 429, 430, 431, 432, 433, 434, 435, 436, 437, 438, 439, 440, 441, 442, 443, 444, 445, 446, 447, 448, 449, 450, 451, 452, 453, 454, 455, 456, 457, 458, 459, 460, 461, 462, 463, 464, 465, 466, 467, 468, 469, 470, 471, 472, 473, 474, 475, 476, 477, 478, 479, 480, 481, 482, 483, 484, 485, 486, 487, 488, 489, 490, 491, 492, 493],
      "AcquisitionTime": ["152359.145000", "152400.635000", "152402.125000", "152403.615000", "152405.105000", "152406.595000", "152408.085000", "152409.575000", "152411.065000", "152412.555000", "152414.045000", "152415.535000", "152417.025000", "152418.515000", "152420.005000", "152421.495000", "152422.985000", "152424.475000", "152425.965000", "152427.455000", "152428.945000", "152430.435000", "152431.925000", "152433.415000", "152434.905000", "152436.395000", "152437.885000", "152439.375000", "152440.865000", "152442.355000", "152443.845000", "152445.335000", "152446.825000", "152448.315000", "152449.805000", "152451.295000", "152452.785000", "152454.275000", "152455.765000", "152457.255000", "152458.745000", "152500.235000", "152501.725000", "152503.215000", "152504.705000", "152506.195000", "152507.685000", "152509.175000", "152510.665000", "152512.155000", "152513.645000", "152515.135000", "152516.625000", "152518.115000", "152519.605000", "152521.095000", "152522.585000", "152524.075000", "152525.565000", "152527.055000", "152528.545000", "152530.035000", "152531.525000", "152533.015000", "152534.505000", "152535.995000", "152537.485000", "152538.975000", "152540.465000", "152541.955000", "152543.445000", "152544.935000", "152546.425000", "152547.915000", "152549.405000", "152550.895000", "152552.385000", "152553.875000", "152555.365000", "152556.855000", "152558.345000", "152559.835000", "152601.325000", "152602.815000", "152604.305000", "152605.795000", "152607.285000", "152608.775000", "152610.265000", "152611.755000", "152613.245000", "152614.735000", "152616.225000", "152617.715000", "152619.205000", "152620.695000", "152622.185000", "152623.675000", "152625.165000", "152626.655000", "152628.145000", "152629.635000", "152631.125000", "152632.615000", "152634.105000", "152635.595000", "152637.085000", "152638.575000", "152640.065000", "152641.555000", "152643.045000", "152644.535000", "152646.025000", "152647.515000", "152649.005000", "152650.495000", "152651.985000", "152653.475000", "152654.965000", "152656.455000", "152657.945000", "152659.435000", "152700.925000", "152702.415000", "152703.905000", "152705.395000", "152706.885000", "152708.375000", "152709.865000", "152711.355000", "152712.845000", "152714.335000", "152715.825000", "152717.315000", "152718.805000", "152720.295000", "152721.785000", "152723.275000", "152724.765000", "152726.255000", "152727.745000", "152729.235000", "152730.725000", "152732.215000", "152733.705000", "152735.195000", "152736.685000", "152738.175000", "152739.665000", "152741.155000", "152742.645000", "152744.135000", "152745.625000", "152747.115000", "152748.605000", "152750.095000", "152751.585000", "152753.075000", "152754.565000", "152756.055000", "152757.545000", "152759.035000", "152800.525000", "152802.015000", "152803.505000", "152804.995000", "152806.485000", "152807.975000", "152809.465000", "152810.955000", "152812.445000", "152813.935000", "152815.425000", "152816.915000", "152818.405000", "152819.895000", "152821.385000", "152822.875000", "152824.365000", "152825.855000", "152827.345000", "152828.835000", "152830.325000", "152831.815000", "152833.305000", "152834.795000", "152836.285000", "152837.775000", "152839.265000", "152840.755000", "152842.245000", "152843.735000", "152845.225000", "152846.715000", "152848.205000", "152849.695000", "152851.185000", "152852.675000", "152854.165000", "152855.655000", "152857.145000", "152858.635000", "152900.125000", "152901.615000", "152903.105000", "152904.595000", "152906.085000", "152907.575000", "152909.065000", "152910.555000", "152912.045000", "152913.535000", "152915.025000", "152916.515000", "152918.005000", "152919.495000", "152920.985000", "152922.475000", "152923.965000", "152925.455000", "152926.945000", "152928.435000", "152929.925000", "152931.415000", "152932.905000", "152934.395000", "152935.885000", "152937.375000", "152938.865000", "152940.355000", "152941.845000", "152943.335000", "152944.825000", "152946.315000", "152947.805000", "152949.295000", "152950.785000", "152952.275000", "152953.765000", "152955.255000", "152956.745000", "152958.235000", "152959.725000", "153001.215000", "153002.705000", "153004.195000", "153005.685000", "153007.175000", "153008.665000", "153010.155000", "153011.645000", "153013.135000", "153014.625000", "153016.115000", "153017.605000", "153019.095000", "153020.585000", "153022.075000", "153023.565000", "153025.055000", "153026.545000", "153028.035000", "153029.525000", "153031.015000", "153032.505000", "153033.995000", "153035.485000", "153036.975000", "153038.465000", "153039.955000", "153041.445000", "153042.935000", "153044.425000", "153045.915000", "153047.405000", "153048.895000", "153050.385000", "153051.875000", "153053.365000", "153054.855000", "153056.345000", "153057.835000", "153059.325000", "153100.815000", "153102.305000", "153103.795000", "153105.285000", "153106.775000", "153108.265000", "153109.755000", "153111.245000", "153112.735000", "153114.225000", "153115.715000", "153117.205000", "153118.695000", "153120.185000", "153121.675000", "153123.165000", "153124.655000", "153126.145000", "153127.635000", "153129.125000", "153130.615000", "153132.105000", "153133.595000", "153135.085000", "153136.575000", "153138.065000", "153139.555000", "153141.045000", "153142.535000", "153144.025000", "153145.515000", "153147.005000", "153148.495000", "153149.985000", "153151.475000", "153152.965000", "153154.455000", "153155.945000", "153157.435000", "153158.925000", "153200.415000", "153201.905000", "153203.395000", "153204.885000", "153206.375000", "153207.865000", "153209.355000", "153210.845000", "153212.335000", "153213.825000", "153215.315000", "153216.805000", "153218.295000", "153219.785000", "153221.275000", "153222.765000", "153224.255000", "153225.745000", "153227.235000", "153228.725000", "153230.215000", "153231.705000", "153233.195000", "153234.685000", "153236.175000", "153237.665000", "153239.155000", "153240.645000", "153242.135000", "153243.625000", "153245.115000", "153246.605000", "153248.095000", "153249.585000", "153251.075000", "153252.565000", "153254.055000", "153255.545000", "153257.035000", "153258.525000", "153300.015000", "153301.505000", "153302.995000", "153304.485000", "153305.975000", "153307.465000", "153308.955000", "153310.445000", "153311.935000", "153313.425000", "153314.915000", "153316.405000", "153317.895000", "153319.385000", "153320.875000", "153322.365000", "153323.855000", "153325.345000", "153326.835000", "153328.325000", "153329.815000", "153331.305000", "153332.795000", "153334.285000", "153335.775000", "153337.265000", "153338.755000", "153340.245000", "153341.735000", "153343.225000", "153344.715000", "153346.205000", "153347.695000", "153349.185000", "153350.675000", "153352.165000", "153353.655000", "153355.145000", "153356.635000", "153358.125000", "153359.615000", "153401.105000", "153402.595000", "153404.085000", "153405.575000", "153407.065000", "153408.555000", "153410.045000", "153411.535000", "153413.025000", "153414.515000", "153416.005000", "153417.495000", "153418.985000", "153420.475000", "153421.965000", "153423.455000", "153424.945000", "153426.435000", "153427.925000", "153429.415000", "153430.905000", "153432.395000", "153433.885000", "153435.375000", "153436.865000", "153438.355000", "153439.845000", "153441.335000", "153442.825000", "153444.315000", "153445.805000", "153447.295000", "153448.785000", "153450.275000", "153451.765000", "153453.255000", "153454.745000", "153456.235000", "153457.725000", "153459.215000", "153500.705000", "153502.195000", "153503.685000", "153505.175000", "153506.665000", "153508.155000", "153509.645000", "153511.135000", "153512.625000", "153514.115000", "153515.605000", "153517.095000", "153518.585000", "153520.075000", "153521.565000", "153523.055000", "153524.545000", "153526.035000", "153527.525000", "153529.015000", "153530.505000", "153531.995000", "153533.485000", "153534.975000", "153536.465000", "153537.955000", "153539.445000", "153540.935000", "153542.425000", "153543.915000", "153545.405000", "153546.895000", "153548.385000", "153549.875000", "153551.365000", "153552.855000", "153554.345000", "153555.835000", "153557.325000", "153558.815000", "153600.305000", "153601.795000", "153603.285000", "153604.775000", "153606.265000", "153607.755000", "153609.245000", "153610.735000", "153612.225000"],
      "ContentTime": ["152508.785000", "152508.788000", "152508.791000", "152508.794000", "152508.797000", "152508.799000", "152508.802000", "152508.805000", "152508.809000", "152508.813000", "152508.817000", "152508.821000", "152508.824000", "152508.828000", "152508.832000", "152508.835000", "152508.849000", "152508.852000", "152508.861000", "152508.864000", "152528.782000", "152528.785000", "152528.788000", "152528.792000", "152528.795000", "152528.798000", "152528.801000", "152528.803000", "152528.806000", "152528.809000", "152528.812000", "152528.815000", "152528.818000", "152528.820000", "152528.823000", "152528.826000", "152528.829000", "152528.832000", "152528.835000", "152528.838000", "152548.782000", "152548.785000", "152548.788000", "152548.791000", "152548.794000", "152548.797000", "152548.800000", "152548.802000", "152548.805000", "152548.808000", "152548.811000", "152548.814000", "152548.827000", "152548.830000", "152548.833000", "152548.843000", "152548.846000", "152548.848000", "152548.851000", "152548.854000", "152608.782000", "152608.785000", "152608.788000", "152608.791000", "152608.794000", "152608.797000", "152608.800000", "152608.802000", "152608.805000", "152608.808000", "152608.811000", "152608.814000", "152608.817000", "152608.819000", "152608.822000", "152608.825000", "152608.828000", "152608.831000", "152608.834000", "152608.837000", "152648.782000", "152648.785000", "152648.788000", "152648.791000", "152648.794000", "152648.797000", "152648.800000", "152648.803000", "152648.806000", "152648.808000", "152648.811000", "152648.814000", "152648.817000", "152648.820000", "152648.823000", "152648.826000", "152648.829000", "152648.832000", "152648.834000", "152648.837000", "152648.840000", "152648.843000", "152648.846000", "152648.849000", "152648.852000", "152648.854000", "152648.857000", "152648.860000", "152648.863000", "152648.866000", "152648.868000", "152648.871000", "152648.874000", "152728.782000", "152728.811000", "152728.814000", "152728.824000", "152728.827000", "152728.830000", "152728.833000", "152728.835000", "152728.838000", "152728.841000", "152728.844000", "152728.847000", "152728.850000", "152728.853000", "152728.856000", "152728.858000", "152728.861000", "152728.864000", "152728.867000", "152728.870000", "152728.873000", "152728.876000", "152728.879000", "152728.881000", "152728.884000", "152728.887000", "152728.890000", "152808.783000", "152808.787000", "152808.790000", "152808.793000", "152808.796000", "152808.799000", "152808.802000", "152808.805000", "152808.808000", "152808.810000", "152808.813000", "152808.816000", "152808.819000", "152808.822000", "152808.825000", "152808.828000", "152808.831000", "152808.834000", "152808.836000", "152808.839000", "152808.842000", "152808.845000", "152808.848000", "152808.851000", "152808.854000", "152808.857000", "152848.782000", "152848.785000", "152848.788000", "152848.791000", "152848.794000", "152848.797000", "152848.800000", "152848.803000", "152848.806000", "152848.809000", "152848.811000", "152848.814000", "152848.817000", "152848.820000", "152848.823000", "152848.826000", "152848.829000", "152848.831000", "152848.834000", "152848.837000", "152848.840000", "152848.843000", "152848.847000", "152848.851000", "152848.855000", "152848.858000", "152848.862000", "152928.782000", "152928.785000", "152928.788000", "152928.791000", "152928.794000", "152928.797000", "152928.800000", "152928.803000", "152928.806000", "152928.809000", "152928.811000", "152928.814000", "152928.817000", "152928.820000", "152928.823000", "152928.829000", "152928.832000", "152928.835000", "152928.839000", "152928.841000", "152928.844000", "152928.847000", "152928.850000", "152928.853000", "152928.856000", "152928.859000", "152928.862000", "153008.782000", "153008.785000", "153008.788000", "153008.791000", "153008.794000", "153008.797000", "153008.800000", "153008.803000", "153008.806000", "153008.808000", "153008.811000", "153008.814000", "153008.817000", "153008.820000", "153008.823000", "153008.826000", "153008.829000", "153008.832000", "153008.835000", "153008.837000", "153008.841000", "153008.843000", "153008.846000", "153008.849000", "153008.852000", "153008.855000", "153008.858000", "153048.782000", "153048.785000", "153048.788000", "153048.791000", "153048.794000", "153048.797000", "153048.799000", "153048.817000", "153048.820000", "153048.823000", "153048.825000", "153048.829000", "153048.831000", "153048.834000", "153048.837000", "153048.840000", "153048.843000", "153048.846000", "153048.848000", "153048.851000", "153048.854000", "153048.857000", "153048.860000", "153048.870000", "153048.873000", "153048.875000", "153048.878000", "153128.782000", "153128.785000", "153128.788000", "153128.791000", "153128.794000", "153128.797000", "153128.800000", "153128.802000", "153128.805000", "153128.808000", "153128.811000", "153128.814000", "153128.817000", "153128.820000", "153128.822000", "153128.825000", "153128.828000", "153128.831000", "153128.834000", "153128.837000", "153128.840000", "153128.843000", "153128.846000", "153128.848000", "153128.851000", "153128.854000", "153128.857000", "153208.782000", "153208.785000", "153208.788000", "153208.791000", "153208.794000", "153208.797000", "153208.800000", "153208.803000", "153208.805000", "153208.808000", "153208.811000", "153208.814000", "153208.817000", "153208.820000", "153208.823000", "153208.825000", "153208.828000", "153208.831000", "153208.834000", "153208.837000", "153208.840000", "153208.843000", "153208.846000", "153208.848000", "153208.851000", "153208.854000", "153208.857000", "153248.782000", "153248.785000", "153248.788000", "153248.791000", "153248.794000", "153248.797000", "153248.800000", "153248.803000", "153248.805000", "153248.808000", "153248.811000", "153248.814000", "153248.817000", "153248.820000", "153248.823000", "153248.825000", "153248.828000", "153248.831000", "153248.834000", "153248.837000", "153248.840000", "153248.843000", "153248.845000", "153248.848000", "153248.851000", "153248.854000", "153328.782000", "153328.914000", "153328.917000", "153328.920000", "153328.923000", "153328.925000", "153328.928000", "153328.931000", "153328.934000", "153328.937000", "153328.940000", "153328.943000", "153328.946000", "153328.948000", "153328.951000", "153328.954000", "153328.957000", "153328.960000", "153328.963000", "153328.966000", "153328.969000", "153328.971000", "153328.974000", "153328.977000", "153328.980000", "153328.983000", "153328.986000", "153348.782000", "153348.785000", "153348.788000", "153348.791000", "153348.794000", "153348.797000", "153348.800000", "153348.803000", "153348.806000", "153348.808000", "153348.811000", "153348.814000", "153348.817000", "153348.820000", "153428.782000", "153428.785000", "153428.788000", "153428.795000", "153428.798000", "153428.801000", "153428.804000", "153428.807000", "153428.810000", "153428.812000", "153428.815000", "153428.818000", "153428.821000", "153428.824000", "153428.827000", "153428.830000", "153428.833000", "153428.835000", "153428.838000", "153428.841000", "153428.844000", "153428.847000", "153428.850000", "153428.853000", "153428.856000", "153428.859000", "153428.861000", "153508.782000", "153508.785000", "153508.788000", "153508.791000", "153508.794000", "153508.796000", "153508.799000", "153508.816000", "153508.819000", "153508.822000", "153508.825000", "153508.828000", "153508.831000", "153508.834000", "153508.837000", "153508.840000", "153508.843000", "153508.845000", "153508.848000", "153508.851000", "153508.854000", "153508.857000", "153508.860000", "153508.863000", "153508.865000", "153508.868000", "153548.782000", "153548.785000", "153548.788000", "153548.791000", "153548.794000", "153548.797000", "153548.799000", "153548.802000", "153548.805000", "153548.808000", "153548.811000", "153548.814000", "153548.817000", "153548.820000", "153548.831000", "153548.833000", "153548.836000", "153548.839000", "153548.842000", "153548.845000", "153548.848000", "153548.851000", "153548.853000", "153548.856000", "153548.859000", "153548.862000", "153548.865000", "153614.572000", "153614.576000", "153614.579000", "153614.582000", "153614.584000", "153614.588000", "153614.591000", "153614.594000", "153614.596000", "153614.599000", "153614.602000", "153614.605000", "153614.608000", "153614.611000", "153614.614000", "153614.617000", "153614.621000", "153614.623000"],
