{
  "AcquisitionMatrixPE": 104,
  "AcquisitionNumber": 1,
  "AcquisitionTime": "10:14:47.740000",
  "BandwidthPerPixelPhaseEncode": 17.17,
  "BaseResolution": 104,
  "BodyPartExamined": "BRAIN",
  "CoilString": "HC1-7;NC1_2",
  "ConsistencyInfo": "N4_VE11C_LATEST_20160120",
  "ConversionSoftware": "dcm2niix",
  "ConversionSoftwareVersion": "v1.0.20190720  (JP2:OpenJPEG) GCC7.3.0",
  "DerivedVendorReportedEchoSpacing": 0.000560011,
  "DeviceSerialNumber": "167006",
  "DwellTime": 2.1e-06,
  "EchoTime": 0.037,
  "EchoTrainLength": 104,
  "EffectiveEchoSpacing": 0.000560011,
  "FlipAngle": 52,
  "ImageComments": "Unaliased_MB4_PE3_LB",
  "ImageOrientationPatientDICOM": [0.998374, -0.0181375, -0.0540417, 0.00836418, 0.98438, -0.175857],
  "ImageType": [
    "ORIGINAL",
    "PRIMARY",
    "M",
    "MB",
    "ND",
    "MOSAIC"
],
  "ImagingFrequency": 123.259,
  "InPlanePhaseEncodingDirectionDICOM": "COL",
  "InstitutionAddress": "Chemin_Queen-Mary_4565_Montreal_District_CA_H3W_1W5",
  "InstitutionName": "IUGM",
  "InstitutionalDepartmentName": "Department",
  "MRAcquisitionType": "2D",
  "MagneticFieldStrength": 3,
  "Manufacturer": "Siemens",
  "ManufacturersModelName": "Prisma_fit",
  "Modality": "MR",
  "MultibandAccelerationFactor": 4,
  "PartialFourier": 1,
  "PatientPosition": "HFS",
  "PercentPhaseFOV": 100,
  "PhaseEncodingDirection": "j",
  "PhaseEncodingSteps": 104,
  "PhaseResolution": 1,
  "PixelBandwidth": 2290,
  "ProcedureStepDescription": "video_friends",
  "ProtocolName": "func_task-s01e17a",
  "PulseSequenceDetails": "%CustomerSeq%_cmrr_mbep2d_bold",
  "ReceiveCoilActiveElements": "HC1-7;NC1,2",
  "ReceiveCoilName": "HeadNeck_64",
  "ReconMatrixPE": 104,
  "RepetitionTime": 1.49,
  "SAR": 0.0341946,
  "ScanOptions": "FS",
  "ScanningSequence": "EP",
  "SequenceName": "epfid2d1_104",
  "SequenceVariant": "SK_SS",
  "SeriesDescription": "func_task-s01e17a",
  "SeriesNumber": 13,
  "ShimSetting": [606, -7263, -8848, 555, -27, -373, 20, 37],
  "SliceThickness": 2,
  "SliceTiming": [0, 0.785, 0.1, 0.8825, 0.1975, 0.98, 0.295, 1.08, 0.3925, 1.1775, 0.49, 1.275, 0.59, 1.3725, 0.6875, 0, 0.785, 0.1, 0.8825, 0.1975, 0.98, 0.295, 1.08, 0.3925, 1.1775, 0.49, 1.275, 0.59, 1.3725, 0.6875, 0, 0.785, 0.1, 0.8825, 0.1975, 0.98, 0.295, 1.08, 0.3925, 1.1775, 0.49, 1.275, 0.59, 1.3725, 0.6875, 0, 0.785, 0.1, 0.8825, 0.1975, 0.98, 0.295, 1.08, 0.3925, 1.1775, 0.49, 1.275, 0.59, 1.3725, 0.6875],
  "SoftwareVersions": "syngo_MR_E11",
  "SpacingBetweenSlices": 2,
  "StationName": "MRC35049",
  "TaskName": "friends",
  "TotalReadoutTime": 0.0576811,
  "TxRefAmp": 218.996,
  "WipMemBlock": "38808a23-d238-4f86-96b5-e748c71dbeee||Sequence: R016 ve11c/master r/e634e98; Dec 19 2017 11:00:25 by eja",
  "dcmmeta_affine": [
    [-1.9967478513717651, 0.016728367656469345, -0.1127743199467659, 99.57508850097656],
    [0.03627495467662811, 1.9687604904174805, -0.3502374291419983, -86.92195892333984],
    [-0.10808335989713669, 0.3517133593559265, 1.9658626317977905, -51.02448272705078],
    [0.0, 0.0, 0.0, 1.0]
],
  "dcmmeta_reorient_transform": [
    [0.0, -1.0, 0.0, 103.0],
    [1.0, 0.0, 0.0, 0.0],
    [0.0, 0.0, 1.0, 0.0],
    [0.0, 0.0, 0.0, 1.0]
],
  "dcmmeta_shape": [104, 104, 60, 483],
  "dcmmeta_slice_dim": 2,
  "dcmmeta_version": 0.6,
  "global": {
    "const": {
      "AcquisitionMatrix": [104, 0, 0, 104],
      "AngioFlag": "N",
      "BitsAllocated": 16,
      "BitsStored": 16,
      "BodyPartExamined": "BRAIN",
      "Columns": 832,
      "EchoNumbers": 1,
      "EchoTime": 37.0,
      "EchoTrainLength": 104,
      "FlipAngle": 52.0,
      "HighBit": 15,
      "ImageOrientationPatient": [0.99837394232696, -0.0181374767269, -0.0540416804006, 0.00836418409494, 0.98438024635701, -0.1758566774579],
      "ImagePositionPatient": [-834.20346748886, -819.28510955353, 152.56799813032],
      "ImageType": [
        "ORIGINAL",
        "PRIMARY",
        "M",
        "MB",
        "ND",
        "MOSAIC"
],
      "ImagedNucleus": "1H",
      "ImagingFrequency": 123.259119,
      "InPlanePhaseEncodingDirection": "COL",
      "MRAcquisitionType": "2D",
      "MagneticFieldStrength": 3.0,
      "Manufacturer": "SIEMENS",
      "ManufacturerModelName": "Prisma_fit",
      "Modality": "MR",
      "NumberOfAverages": 1.0,
      "NumberOfPhaseEncodingSteps": 104,
      "PercentPhaseFieldOfView": 100.0,
      "PercentSampling": 100.0,
      "PerformedProcedureStepStartTime": "092213.464000",
      "PhotometricInterpretation": "MONOCHROME2",
      "PixelBandwidth": 2290.0,
      "PixelRepresentation": 0,
      "PixelSpacing": [2.0, 2.0],
      "ProtocolName": "func_task-s01e17a",
      "RepetitionTime": 1490.0,
      "Rows": 832,
      "SAR": 0.03419455279754,
      "SamplesPerPixel": 1,
      "ScanOptions": "FS",
      "ScanningSequence": "EP",
      "SequenceName": "epfid2d1_104",
      "SequenceVariant": [
        "SK",
        "SS"
],
      "SeriesDescription": "func_task-s01e17a",
      "SeriesNumber": 13,
      "SeriesTime": "101615.444000",
      "SliceLocation": -40.546655353143,
      "SliceThickness": 2.0,
      "SmallestImagePixelValue": 0,
      "SoftwareVersions": "syngo MR E11",
      "SpacingBetweenSlices": 2.0000000132355,
      "SpecificCharacterSet": "ISO_IR 100",
      "StudyID": "1",
      "StudyTime": "092213.384000",
      "TransmitCoilName": "Body",
      "VariableFlipAngleFlag": "N",
      "WindowCenterWidthExplanation": "Algo1",
      "dBdt": 0.0},
    "slices": {}
  },
  "time": {
    "samples": {
      "AcquisitionNumber": [1, 2, 3, 4, 5, 6, 7, 8, 9, 10, 11, 12, 13, 14, 15, 16, 17, 18, 19, 20, 21, 22, 23, 24, 25, 26, 27, 28, 29, 30, 31, 32, 33, 34, 35, 36, 37, 38, 39, 40, 41, 42, 43, 44, 45, 46, 47, 48, 49, 50, 51, 52, 53, 54, 55, 56, 57, 58, 59, 60, 61, 62, 63, 64, 65, 66, 67, 68, 69, 70, 71, 72, 73, 74, 75, 76, 77, 78, 79, 80, 81, 82, 83, 84, 85, 86, 87, 88, 89, 90, 91, 92, 93, 94, 95, 96, 97, 98, 99, 100, 101, 102, 103, 104, 105, 106, 107, 108, 109, 110, 111, 112, 113, 114, 115, 116, 117, 118, 119, 120, 121, 122, 123, 124, 125, 126, 127, 128, 129, 130, 131, 132, 133, 134, 135, 136, 137, 138, 139, 140, 141, 142, 143, 144, 145, 146, 147, 148, 149, 150, 151, 152, 153, 154, 155, 156, 157, 158, 159, 160, 161, 162, 163, 164, 165, 166, 167, 168, 169, 170, 171, 172, 173, 174, 175, 176, 177, 178, 179, 180, 181, 182, 183, 184, 185, 186, 187, 188, 189, 190, 191, 192, 193, 194, 195, 196, 197, 198, 199, 200, 201, 202, 203, 204, 205, 206, 207, 208, 209, 210, 211, 212, 213, 214, 215, 216, 217, 218, 219, 220, 221, 222, 223, 224, 225, 226, 227, 228, 229, 230, 231, 232, 233, 234, 235, 236, 237, 238, 239, 240, 241, 242, 243, 244, 245, 246, 247, 248, 249, 250, 251, 252, 253, 254, 255, 256, 257, 258, 259, 260, 261, 262, 263, 264, 265, 266, 267, 268, 269, 270, 271, 272, 273, 274, 275, 276, 277, 278, 279, 280, 281, 282, 283, 284, 285, 286, 287, 288, 289, 290, 291, 292, 293, 294, 295, 296, 297, 298, 299, 300, 301, 302, 303, 304, 305, 306, 307, 308, 309, 310, 311, 312, 313, 314, 315, 316, 317, 318, 319, 320, 321, 322, 323, 324, 325, 326, 327, 328, 329, 330, 331, 332, 333, 334, 335, 336, 337, 338, 339, 340, 341, 342, 343, 344, 345, 346, 347, 348, 349, 350, 351, 352, 353, 354, 355, 356, 357, 358, 359, 360, 361, 362, 363, 364, 365, 366, 367, 368, 369, 370, 371, 372, 373, 374, 375, 376, 377, 378, 379, 380, 381, 382, 383, 384, 385, 386, 387, 388, 389, 390, 391, 392, 393, 394, 395, 396, 397, 398, 399, 400, 401, 402, 403, 404, 405, 406, 407, 408, 409, 410, 411, 412, 413, 414, 415, 416, 417, 418, 419, 420, 421, 422, 423, 424, 425, 426, 427, 428, 429, 430, 431, 432, 433, 434, 435, 436, 437, 438, 439, 440, 441, 442, 443, 444, 445, 446, 447, 448, 449, 450, 451, 452, 453, 454, 455, 456, 457, 458, 459, 460, 461, 462, 463, 464, 465, 466, 467, 468, 469, 470, 471, 472, 473, 474, 475, 476, 477, 478, 479, 480, 481, 482, 483],
      "AcquisitionTime": ["101447.740000", "101449.230000", "101450.720000", "101452.210000", "101453.700000", "101455.190000", "101456.680000", "101458.170000", "101459.660000", "101501.150000", "101502.640000", "101504.130000", "101505.620000", "101507.110000", "101508.600000", "101510.090000", "101511.580000", "101513.070000", "101514.560000", "101516.050000", "101517.540000", "101519.030000", "101520.520000", "101522.010000", "101523.500000", "101524.990000", "101526.480000", "101527.970000", "101529.460000", "101530.950000", "101532.440000", "101533.930000", "101535.420000", "101536.910000", "101538.400000", "101539.890000", "101541.380000", "101542.870000", "101544.360000", "101545.850000", "101547.340000", "101548.830000", "101550.320000", "101551.810000", "101553.300000", "101554.790000", "101556.280000", "101557.770000", "101559.260000", "101600.750000", "101602.240000", "101603.730000", "101605.220000", "101606.710000", "101608.200000", "101609.690000", "101611.180000", "101612.670000", "101614.160000", "101615.650000", "101617.140000", "101618.630000", "101620.120000", "101621.610000", "101623.100000", "101624.590000", "101626.080000", "101627.570000", "101629.060000", "101630.550000", "101632.040000", "101633.530000", "101635.020000", "101636.510000", "101638.000000", "101639.490000", "101640.980000", "101642.470000", "101643.960000", "101645.450000", "101646.940000", "101648.430000", "101649.920000", "101651.410000", "101652.900000", "101654.390000", "101655.880000", "101657.370000", "101658.860000", "101700.350000", "101701.840000", "101703.330000", "101704.820000", "101706.310000", "101707.800000", "101709.290000", "101710.780000", "101712.270000", "101713.760000", "101715.250000", "101716.740000", "101718.230000", "101719.720000", "101721.210000", "101722.700000", "101724.190000", "101725.680000", "101727.170000", "101728.660000", "101730.150000", "101731.640000", "101733.130000", "101734.620000", "101736.110000", "101737.600000", "101739.090000", "101740.580000", "101742.070000", "101743.560000", "101745.050000", "101746.540000", "101748.030000", "101749.520000", "101751.010000", "101752.500000", "101753.990000", "101755.480000", "101756.970000", "101758.460000", "101759.950000", "101801.440000", "101802.930000", "101804.420000", "101805.910000", "101807.400000", "101808.890000", "101810.380000", "101811.870000", "101813.360000", "101814.850000", "101816.340000", "101817.830000", "101819.320000", "101820.810000", "101822.300000", "101823.790000", "101825.280000", "101826.770000", "101828.260000", "101829.750000", "101831.240000", "101832.730000", "101834.220000", "101835.710000", "101837.200000", "101838.690000", "101840.180000", "101841.670000", "101843.160000", "101844.650000", "101846.140000", "101847.630000", "101849.120000", "101850.610000", "101852.100000", "101853.590000", "101855.080000", "101856.570000", "101858.060000", "101859.550000", "101901.040000", "101902.530000", "101904.020000", "101905.510000", "101907.000000", "101908.490000", "101909.980000", "101911.470000", "101912.960000", "101914.450000", "101915.940000", "101917.430000", "101918.920000", "101920.410000", "101921.900000", "101923.390000", "101924.880000", "101926.370000", "101927.860000", "101929.350000", "101930.840000", "101932.330000", "101933.820000", "101935.310000", "101936.800000", "101938.290000", "101939.780000", "101941.270000", "101942.760000", "101944.250000", "101945.740000", "101947.230000", "101948.720000", "101950.210000", "101951.700000", "101953.190000", "101954.680000", "101956.170000", "101957.660000", "101959.150000", "102000.640000", "102002.130000", "102003.620000", "102005.110000", "102006.600000", "102008.090000", "102009.580000", "102011.070000", "102012.560000", "102014.050000", "102015.540000", "102017.030000", "102018.520000", "102020.010000", "102021.500000", "102022.990000", "102024.480000", "102025.970000", "102027.460000", "102028.950000", "102030.440000", "102031.930000", "102033.420000", "102034.910000", "102036.400000", "102037.890000", "102039.380000", "102040.870000", "102042.360000", "102043.850000", "102045.340000", "102046.830000", "102048.320000", "102049.810000", "102051.300000", "102052.790000", "102054.280000", "102055.770000", "102057.260000", "102058.750000", "102100.240000", "102101.730000", "102103.220000", "102104.710000", "102106.200000", "102107.690000", "102109.180000", "102110.670000", "102112.160000", "102113.650000", "102115.140000", "102116.630000", "102118.120000", "102119.610000", "102121.100000", "102122.590000", "102124.080000", "102125.570000", "102127.060000", "102128.550000", "102130.040000", "102131.530000", "102133.020000", "102134.510000", "102136.000000", "102137.490000", "102138.980000", "102140.470000", "102141.960000", "102143.450000", "102144.940000", "102146.430000", "102147.920000", "102149.410000", "102150.900000", "102152.390000", "102153.880000", "102155.370000", "102156.860000", "102158.350000", "102159.840000", "102201.330000", "102202.820000", "102204.310000", "102205.800000", "102207.290000", "102208.780000", "102210.270000", "102211.760000", "102213.250000", "102214.740000", "102216.230000", "102217.720000", "102219.210000", "102220.700000", "102222.190000", "102223.680000", "102225.170000", "102226.660000", "102228.150000", "102229.640000", "102231.130000", "102232.620000", "102234.110000", "102235.600000", "102237.090000", "102238.580000", "102240.070000", "102241.560000", "102243.050000", "102244.540000", "102246.030000", "102247.520000", "102249.010000", "102250.500000", "102251.990000", "102253.480000", "102254.970000", "102256.460000", "102257.950000", "102259.440000", "102300.930000", "102302.420000", "102303.910000", "102305.400000", "102306.890000", "102308.380000", "102309.870000", "102311.360000", "102312.850000", "102314.340000", "102315.830000", "102317.320000", "102318.810000", "102320.300000", "102321.790000", "102323.280000", "102324.770000", "102326.260000", "102327.750000", "102329.240000", "102330.730000", "102332.220000", "102333.710000", "102335.200000", "102336.690000", "102338.180000", "102339.670000", "102341.160000", "102342.650000", "102344.140000", "102345.630000", "102347.120000", "102348.610000", "102350.100000", "102351.590000", "102353.080000", "102354.570000", "102356.060000", "102357.550000", "102359.040000", "102400.530000", "102402.020000", "102403.510000", "102405.000000", "102406.490000", "102407.980000", "102409.470000", "102410.960000", "102412.450000", "102413.940000", "102415.430000", "102416.920000", "102418.410000", "102419.900000", "102421.390000", "102422.880000", "102424.370000", "102425.860000", "102427.350000", "102428.840000", "102430.330000", "102431.820000", "102433.310000", "102434.800000", "102436.290000", "102437.780000", "102439.270000", "102440.760000", "102442.250000", "102443.740000", "102445.230000", "102446.720000", "102448.210000", "102449.700000", "102451.190000", "102452.680000", "102454.170000", "102455.660000", "102457.150000", "102458.640000", "102500.130000", "102501.620000", "102503.110000", "102504.600000", "102506.090000", "102507.580000", "102509.070000", "102510.560000", "102512.050000", "102513.540000", "102515.030000", "102516.520000", "102518.010000", "102519.500000", "102520.990000", "102522.480000", "102523.970000", "102525.460000", "102526.950000", "102528.440000", "102529.930000", "102531.420000", "102532.910000", "102534.400000", "102535.890000", "102537.380000", "102538.870000", "102540.360000", "102541.850000", "102543.340000", "102544.830000", "102546.320000", "102547.810000", "102549.300000", "102550.790000", "102552.280000", "102553.770000", "102555.260000", "102556.750000", "102558.240000", "102559.730000", "102601.220000", "102602.710000", "102604.200000", "102605.690000", "102607.180000", "102608.670000", "102610.160000", "102611.650000", "102613.140000", "102614.630000", "102616.120000", "102617.610000", "102619.100000", "102620.590000", "102622.080000", "102623.570000", "102625.060000", "102626.550000", "102628.040000", "102629.530000", "102631.020000", "102632.510000", "102634.000000", "102635.490000", "102636.980000", "102638.470000", "102639.960000", "102641.450000", "102642.940000", "102644.430000", "102645.920000"],
      "ContentTime": ["101615.447000", "101615.450000", "101615.453000", "101615.456000", "101615.459000", "101615.462000", "101615.465000", "101615.468000", "101615.471000", "101615.474000", "101615.486000", "101615.489000", "101615.492000", "101615.495000", "101615.497000", "101615.500000", "101615.503000", "101615.506000", "101615.509000", "101615.512000", "101615.515000", "101615.518000", "101615.520000", "101615.523000", "101615.526000", "101615.529000", "101615.532000", "101615.535000", "101615.547000", "101615.550000", "101615.553000", "101615.555000", "101615.558000", "101615.561000", "101615.564000", "101635.416000", "101635.419000", "101635.422000", "101635.425000", "101635.428000", "101635.431000", "101635.433000", "101635.436000", "101635.439000", "101635.442000", "101635.445000", "101635.448000", "101635.451000", "101635.454000", "101635.457000", "101635.459000", "101635.473000", "101635.476000", "101635.479000", "101635.482000", "101655.416000", "101655.419000", "101655.422000", "101655.425000", "101655.428000", "101655.431000", "101655.433000", "101655.436000", "101655.439000", "101655.442000", "101655.445000", "101655.448000", "101655.451000", "101655.454000", "101655.457000", "101655.460000", "101655.462000", "101655.465000", "101655.468000", "101655.471000", "101715.416000", "101715.420000", "101715.423000", "101715.426000", "101715.429000", "101715.432000", "101715.435000", "101715.437000", "101715.440000", "101715.443000", "101715.446000", "101715.449000", "101715.452000", "101715.455000", "101715.458000", "101715.460000", "101715.463000", "101715.466000", "101715.469000", "101715.472000", "101755.416000", "101755.419000", "101755.422000", "101755.425000", "101755.428000", "101755.431000", "101755.434000", "101755.436000", "101755.439000", "101755.442000", "101755.445000", "101755.448000", "101755.451000", "101755.454000", "101755.457000", "101755.460000", "101755.463000", "101755.466000", "101755.468000", "101755.471000", "101755.474000", "101755.477000", "101755.480000", "101755.483000", "101755.486000", "101755.489000", "101755.492000", "101755.495000", "101755.498000", "101755.501000", "101835.416000", "101835.419000", "101835.422000", "101835.425000", "101835.428000", "101835.431000", "101835.434000", "101835.436000", "101835.440000", "101835.443000", "101835.446000", "101835.449000", "101835.452000", "101835.454000", "101835.457000", "101835.460000", "101835.463000", "101835.466000", "101835.469000", "101835.472000", "101835.475000", "101835.478000", "101835.481000", "101835.484000", "101835.486000", "101835.489000", "101835.492000", "101915.416000", "101915.419000", "101915.422000", "101915.425000", "101915.428000", "101915.431000", "101915.434000", "101915.437000", "101915.439000", "101915.443000", "101915.445000", "101915.448000", "101915.451000", "101915.454000", "101915.457000", "101915.460000", "101915.463000", "101915.466000", "101915.469000", "101915.472000", "101915.475000", "101915.478000", "101915.481000", "101915.484000", "101915.486000", "101915.489000", "101915.492000", "101955.416000", "101955.419000", "101955.422000", "101955.425000", "101955.428000", "101955.431000", "101955.434000", "101955.437000", "101955.440000", "101955.443000", "101955.446000", "101955.449000", "101955.452000", "101955.455000", "101955.458000", "101955.460000", "101955.463000", "101955.466000", "101955.469000", "101955.472000", "101955.475000", "101955.491000", "101955.494000", "101955.497000", "101955.500000", "101955.503000", "101955.506000", "102035.416000", "102035.419000", "102035.422000", "102035.425000", "102035.428000", "102035.430000", "102035.433000", "102035.436000", "102035.439000", "102035.442000", "102035.445000", "102035.448000", "102035.451000", "102035.454000", "102035.457000", "102035.460000", "102035.463000", "102035.465000", "102035.468000", "102035.471000", "102035.474000", "102035.477000", "102035.480000", "102035.483000", "102035.486000", "102035.489000", "102035.492000", "102115.416000", "102115.419000", "102115.423000", "102115.426000", "102115.429000", "102115.432000", "102115.435000", "102115.438000", "102115.441000", "102115.443000", "102115.446000", "102115.449000", "102115.452000", "102115.455000", "102115.458000", "102115.461000", "102115.464000", "102115.467000", "102115.469000", "102115.472000", "102115.475000", "102115.478000", "102115.481000", "102115.500000", "102115.503000", "102115.506000", "102135.416000", "102135.419000", "102135.422000", "102135.425000", "102135.428000", "102135.431000", "102135.434000", "102135.436000", "102135.439000", "102135.442000", "102135.445000", "102135.448000", "102135.451000", "102135.454000", "102215.416000", "102215.419000", "102215.422000", "102215.425000", "102215.428000", "102215.431000", "102215.434000", "102215.436000", "102215.439000", "102215.442000", "102215.445000", "102215.448000", "102215.451000", "102215.454000", "102215.457000", "102215.460000", "102215.463000", "102215.466000", "102215.468000", "102215.471000", "102215.474000", "102215.477000", "102215.480000", "102215.483000", "102215.486000", "102215.489000", "102215.492000", "102255.416000", "102255.419000", "102255.422000", "102255.425000", "102255.428000", "102255.431000", "102255.434000", "102255.436000", "102255.439000", "102255.442000", "102255.445000", "102255.448000", "102255.451000", "102255.454000", "102255.457000", "102255.460000", "102255.463000", "102255.466000", "102255.468000", "102255.471000", "102255.474000", "102255.477000", "102255.480000", "102255.483000", "102255.486000", "102255.498000", "102255.501000", "102335.416000", "102335.419000", "102335.422000", "102335.425000", "102335.428000", "102335.431000", "102335.434000", "102335.437000", "102335.440000", "102335.443000", "102335.446000", "102335.449000", "102335.452000", "102335.455000", "102335.458000", "102335.460000", "102335.463000", "102335.466000", "102335.469000", "102335.472000", "102335.475000", "102335.478000", "102335.481000", "102335.484000", "102335.487000", "102335.490000", "102415.415000", "102415.418000", "102415.421000", "102415.424000", "102415.427000", "102415.430000", "102415.433000", "102415.436000", "102415.438000", "102415.441000", "102415.444000", "102415.447000", "102415.450000", "102415.453000", "102415.456000", "102415.459000", "102415.462000", "102415.465000", "102415.468000", "102415.470000", "102415.473000", "102415.476000", "102415.492000", "102415.495000", "102415.498000", "102415.501000", "102415.503000", "102455.416000", "102455.419000", "102455.422000", "102455.425000", "102455.428000", "102455.431000", "102455.434000", "102455.437000", "102455.440000", "102455.442000", "102455.445000", "102455.448000", "102455.451000", "102455.454000", "102455.457000", "102455.460000", "102455.463000", "102455.466000", "102455.469000", "102455.472000", "102455.475000", "102455.490000", "102455.493000", "102455.496000", "102455.499000", "102455.502000", "102455.504000", "102535.416000", "102535.419000", "102535.422000", "102535.425000", "102535.428000", "102535.431000", "102535.434000", "102535.437000", "102535.440000", "102535.443000", "102535.446000", "102535.449000", "102535.451000", "102535.454000", "102535.457000", "102535.460000", "102535.463000", "102535.466000", "102535.469000", "102535.472000", "102535.475000", "102535.478000", "102535.481000", "102535.484000", "102535.486000", "102535.489000", "102535.492000", "102615.416000", "102615.419000", "102615.422000", "102615.425000", "102615.428000", "102615.431000", "102615.434000", "102615.437000", "102615.440000", "102615.443000", "102615.446000", "102615.448000", "102615.451000", "102615.454000", "102615.457000", "102615.460000", "102615.463000", "102615.466000", "102615.469000", "102615.472000", "102615.475000", "102615.478000", "102615.481000", "102615.483000", "102615.486000", "102615.489000", "102615.492000", "102647.762000", "102647.765000", "102647.769000", "102647.772000", "102647.775000", "102647.778000", "102647.781000", "102647.784000", "102647.787000", "102647.790000", "102647.793000", "102647.796000", "102647.799000", "102647.802000", "102647.805000", "102647.808000", "102647.811000", "102647.814000", "102647.817000", "102647.820000", "102647.823000", "102647.825000"],
