{
  "AcquisitionMatrixPE": 104,
  "AcquisitionNumber": 1,
  "AcquisitionTime": "10:27:15.200000",
  "BandwidthPerPixelPhaseEncode": 17.17,
  "BaseResolution": 104,
  "BodyPartExamined": "BRAIN",
  "CoilString": "HC1-7;NC1_2",
  "ConsistencyInfo": "N4_VE11C_LATEST_20160120",
  "ConversionSoftware": "dcm2niix",
  "ConversionSoftwareVersion": "v1.0.20190720  (JP2:OpenJPEG) GCC7.3.0",
  "DerivedVendorReportedEchoSpacing": 0.000560011,
  "DeviceSerialNumber": "167006",
  "DwellTime": 2.1e-06,
  "EchoTime": 0.037,
  "EchoTrainLength": 104,
  "EffectiveEchoSpacing": 0.000560011,
  "FlipAngle": 52,
  "ImageComments": "Unaliased_MB4_PE3_LB",
  "ImageOrientationPatientDICOM": [0.998374, -0.0181375, -0.0540417, 0.00836418, 0.98438, -0.175857],
  "ImageType": [
    "ORIGINAL",
    "PRIMARY",
    "M",
    "MB",
    "ND",
    "MOSAIC"
],
  "ImagingFrequency": 123.259,
  "InPlanePhaseEncodingDirectionDICOM": "COL",
  "InstitutionAddress": "Chemin_Queen-Mary_4565_Montreal_District_CA_H3W_1W5",
  "InstitutionName": "IUGM",
  "InstitutionalDepartmentName": "Department",
  "MRAcquisitionType": "2D",
  "MagneticFieldStrength": 3,
  "Manufacturer": "Siemens",
  "ManufacturersModelName": "Prisma_fit",
  "Modality": "MR",
  "MultibandAccelerationFactor": 4,
  "PartialFourier": 1,
  "PatientPosition": "HFS",
  "PercentPhaseFOV": 100,
  "PhaseEncodingDirection": "j",
  "PhaseEncodingSteps": 104,
  "PhaseResolution": 1,
  "PixelBandwidth": 2290,
  "ProcedureStepDescription": "video_friends",
  "ProtocolName": "func_task-s01e17b",
  "PulseSequenceDetails": "%CustomerSeq%_cmrr_mbep2d_bold",
  "ReceiveCoilActiveElements": "HC1-7;NC1,2",
  "ReceiveCoilName": "HeadNeck_64",
  "ReconMatrixPE": 104,
  "RepetitionTime": 1.49,
  "SAR": 0.0341946,
  "ScanOptions": "FS",
  "ScanningSequence": "EP",
  "SequenceName": "epfid2d1_104",
  "SequenceVariant": "SK_SS",
  "SeriesDescription": "func_task-s01e17b",
  "SeriesNumber": 15,
  "ShimSetting": [606, -7263, -8848, 555, -27, -373, 20, 37],
  "SliceThickness": 2,
  "SliceTiming": [0, 0.7825, 0.0975, 0.88, 0.195, 0.98, 0.2925, 1.0775, 0.39, 1.175, 0.49, 1.2725, 0.5875, 1.37, 0.685, 0, 0.7825, 0.0975, 0.88, 0.195, 0.98, 0.2925, 1.0775, 0.39, 1.175, 0.49, 1.2725, 0.5875, 1.37, 0.685, 0, 0.7825, 0.0975, 0.88, 0.195, 0.98, 0.2925, 1.0775, 0.39, 1.175, 0.49, 1.2725, 0.5875, 1.37, 0.685, 0, 0.7825, 0.0975, 0.88, 0.195, 0.98, 0.2925, 1.0775, 0.39, 1.175, 0.49, 1.2725, 0.5875, 1.37, 0.685],
  "SoftwareVersions": "syngo_MR_E11",
  "SpacingBetweenSlices": 2,
  "StationName": "MRC35049",
  "TaskName": "friends",
  "TotalReadoutTime": 0.0576811,
  "TxRefAmp": 218.996,
  "WipMemBlock": "2fc445e8-cf64-428c-945f-7a01a2f8cf01||Sequence: R016 ve11c/master r/e634e98; Dec 19 2017 11:00:25 by eja",
  "dcmmeta_affine": [
    [-1.9967478513717651, 0.016728367656469345, -0.1127743199467659, 99.57508850097656],
    [0.03627495467662811, 1.9687604904174805, -0.3502374291419983, -86.92195892333984],
    [-0.10808335989713669, 0.3517133593559265, 1.9658626317977905, -51.02448272705078],
    [0.0, 0.0, 0.0, 1.0]
],
  "dcmmeta_reorient_transform": [
    [0.0, -1.0, 0.0, 103.0],
    [1.0, 0.0, 0.0, 0.0],
    [0.0, 0.0, 1.0, 0.0],
    [0.0, 0.0, 0.0, 1.0]
],
  "dcmmeta_shape": [104, 104, 60, 483],
  "dcmmeta_slice_dim": 2,
  "dcmmeta_version": 0.6,
  "global": {
    "const": {
      "AcquisitionMatrix": [104, 0, 0, 104],
      "AngioFlag": "N",
      "BitsAllocated": 16,
      "BitsStored": 16,
      "BodyPartExamined": "BRAIN",
      "Columns": 832,
      "EchoNumbers": 1,
      "EchoTime": 37.0,
      "EchoTrainLength": 104,
      "FlipAngle": 52.0,
      "HighBit": 15,
      "ImageOrientationPatient": [0.99837394232696, -0.0181374767269, -0.0540416804006, 0.00836418409494, 0.98438024635701, -0.1758566774579],
      "ImagePositionPatient": [-834.20346748886, -819.28510955353, 152.56799813032],
      "ImageType": [
        "ORIGINAL",
        "PRIMARY",
        "M",
        "MB",
        "ND",
        "MOSAIC"
],
      "ImagedNucleus": "1H",
      "ImagingFrequency": 123.259122,
      "InPlanePhaseEncodingDirection": "COL",
      "MRAcquisitionType": "2D",
      "MagneticFieldStrength": 3.0,
      "Manufacturer": "SIEMENS",
      "ManufacturerModelName": "Prisma_fit",
      "Modality": "MR",
      "NumberOfAverages": 1.0,
      "NumberOfPhaseEncodingSteps": 104,
      "PercentPhaseFieldOfView": 100.0,
      "PercentSampling": 100.0,
      "PerformedProcedureStepStartTime": "092213.464000",
      "PhotometricInterpretation": "MONOCHROME2",
      "PixelBandwidth": 2290.0,
      "PixelRepresentation": 0,
      "PixelSpacing": [2.0, 2.0],
      "ProtocolName": "func_task-s01e17b",
      "RepetitionTime": 1490.0,
      "Rows": 832,
      "SAR": 0.03419455279754,
      "SamplesPerPixel": 1,
      "ScanOptions": "FS",
      "ScanningSequence": "EP",
      "SequenceName": "epfid2d1_104",
      "SequenceVariant": [
        "SK",
        "SS"
],
      "SeriesDescription": "func_task-s01e17b",
      "SeriesNumber": 15,
      "SeriesTime": "102835.587000",
      "SliceLocation": -40.546655353143,
      "SliceThickness": 2.0,
      "SmallestImagePixelValue": 0,
      "SoftwareVersions": "syngo MR E11",
      "SpacingBetweenSlices": 2.0000000132355,
      "SpecificCharacterSet": "ISO_IR 100",
      "StudyID": "1",
      "StudyTime": "092213.384000",
      "TransmitCoilName": "Body",
      "VariableFlipAngleFlag": "N",
      "WindowCenterWidthExplanation": "Algo1",
      "dBdt": 0.0},
    "slices": {}
  },
  "time": {
    "samples": {
      "AcquisitionNumber": [1, 2, 3, 4, 5, 6, 7, 8, 9, 10, 11, 12, 13, 14, 15, 16, 17, 18, 19, 20, 21, 22, 23, 24, 25, 26, 27, 28, 29, 30, 31, 32, 33, 34, 35, 36, 37, 38, 39, 40, 41, 42, 43, 44, 45, 46, 47, 48, 49, 50, 51, 52, 53, 54, 55, 56, 57, 58, 59, 60, 61, 62, 63, 64, 65, 66, 67, 68, 69, 70, 71, 72, 73, 74, 75, 76, 77, 78, 79, 80, 81, 82, 83, 84, 85, 86, 87, 88, 89, 90, 91, 92, 93, 94, 95, 96, 97, 98, 99, 100, 101, 102, 103, 104, 105, 106, 107, 108, 109, 110, 111, 112, 113, 114, 115, 116, 117, 118, 119, 120, 121, 122, 123, 124, 125, 126, 127, 128, 129, 130, 131, 132, 133, 134, 135, 136, 137, 138, 139, 140, 141, 142, 143, 144, 145, 146, 147, 148, 149, 150, 151, 152, 153, 154, 155, 156, 157, 158, 159, 160, 161, 162, 163, 164, 165, 166, 167, 168, 169, 170, 171, 172, 173, 174, 175, 176, 177, 178, 179, 180, 181, 182, 183, 184, 185, 186, 187, 188, 189, 190, 191, 192, 193, 194, 195, 196, 197, 198, 199, 200, 201, 202, 203, 204, 205, 206, 207, 208, 209, 210, 211, 212, 213, 214, 215, 216, 217, 218, 219, 220, 221, 222, 223, 224, 225, 226, 227, 228, 229, 230, 231, 232, 233, 234, 235, 236, 237, 238, 239, 240, 241, 242, 243, 244, 245, 246, 247, 248, 249, 250, 251, 252, 253, 254, 255, 256, 257, 258, 259, 260, 261, 262, 263, 264, 265, 266, 267, 268, 269, 270, 271, 272, 273, 274, 275, 276, 277, 278, 279, 280, 281, 282, 283, 284, 285, 286, 287, 288, 289, 290, 291, 292, 293, 294, 295, 296, 297, 298, 299, 300, 301, 302, 303, 304, 305, 306, 307, 308, 309, 310, 311, 312, 313, 314, 315, 316, 317, 318, 319, 320, 321, 322, 323, 324, 325, 326, 327, 328, 329, 330, 331, 332, 333, 334, 335, 336, 337, 338, 339, 340, 341, 342, 343, 344, 345, 346, 347, 348, 349, 350, 351, 352, 353, 354, 355, 356, 357, 358, 359, 360, 361, 362, 363, 364, 365, 366, 367, 368, 369, 370, 371, 372, 373, 374, 375, 376, 377, 378, 379, 380, 381, 382, 383, 384, 385, 386, 387, 388, 389, 390, 391, 392, 393, 394, 395, 396, 397, 398, 399, 400, 401, 402, 403, 404, 405, 406, 407, 408, 409, 410, 411, 412, 413, 414, 415, 416, 417, 418, 419, 420, 421, 422, 423, 424, 425, 426, 427, 428, 429, 430, 431, 432, 433, 434, 435, 436, 437, 438, 439, 440, 441, 442, 443, 444, 445, 446, 447, 448, 449, 450, 451, 452, 453, 454, 455, 456, 457, 458, 459, 460, 461, 462, 463, 464, 465, 466, 467, 468, 469, 470, 471, 472, 473, 474, 475, 476, 477, 478, 479, 480, 481, 482, 483],
      "AcquisitionTime": ["102715.200000", "102716.690000", "102718.180000", "102719.670000", "102721.160000", "102722.650000", "102724.140000", "102725.630000", "102727.120000", "102728.610000", "102730.100000", "102731.590000", "102733.080000", "102734.570000", "102736.060000", "102737.550000", "102739.040000", "102740.530000", "102742.020000", "102743.510000", "102745.000000", "102746.490000", "102747.980000", "102749.470000", "102750.960000", "102752.450000", "102753.940000", "102755.430000", "102756.920000", "102758.410000", "102759.900000", "102801.390000", "102802.880000", "102804.370000", "102805.860000", "102807.350000", "102808.840000", "102810.330000", "102811.820000", "102813.310000", "102814.800000", "102816.290000", "102817.780000", "102819.270000", "102820.760000", "102822.250000", "102823.740000", "102825.230000", "102826.720000", "102828.210000", "102829.700000", "102831.190000", "102832.680000", "102834.170000", "102835.660000", "102837.150000", "102838.640000", "102840.130000", "102841.620000", "102843.110000", "102844.600000", "102846.090000", "102847.580000", "102849.070000", "102850.560000", "102852.050000", "102853.540000", "102855.030000", "102856.520000", "102858.010000", "102859.500000", "102900.990000", "102902.480000", "102903.970000", "102905.460000", "102906.950000", "102908.440000", "102909.930000", "102911.420000", "102912.910000", "102914.400000", "102915.890000", "102917.380000", "102918.870000", "102920.360000", "102921.850000", "102923.340000", "102924.830000", "102926.320000", "102927.810000", "102929.300000", "102930.790000", "102932.280000", "102933.770000", "102935.260000", "102936.750000", "102938.240000", "102939.730000", "102941.220000", "102942.710000", "102944.200000", "102945.690000", "102947.180000", "102948.670000", "102950.160000", "102951.650000", "102953.140000", "102954.630000", "102956.120000", "102957.610000", "102959.100000", "103000.590000", "103002.080000", "103003.570000", "103005.060000", "103006.550000", "103008.040000", "103009.530000", "103011.020000", "103012.510000", "103014.000000", "103015.490000", "103016.980000", "103018.470000", "103019.960000", "103021.450000", "103022.940000", "103024.430000", "103025.920000", "103027.410000", "103028.900000", "103030.390000", "103031.880000", "103033.370000", "103034.860000", "103036.350000", "103037.840000", "103039.330000", "103040.820000", "103042.310000", "103043.800000", "103045.290000", "103046.780000", "103048.270000", "103049.760000", "103051.250000", "103052.740000", "103054.230000", "103055.720000", "103057.210000", "103058.700000", "103100.190000", "103101.680000", "103103.170000", "103104.660000", "103106.150000", "103107.640000", "103109.130000", "103110.620000", "103112.110000", "103113.600000", "103115.090000", "103116.580000", "103118.070000", "103119.560000", "103121.050000", "103122.540000", "103124.030000", "103125.520000", "103127.010000", "103128.500000", "103129.990000", "103131.480000", "103132.970000", "103134.460000", "103135.950000", "103137.440000", "103138.930000", "103140.420000", "103141.910000", "103143.400000", "103144.890000", "103146.380000", "103147.870000", "103149.360000", "103150.850000", "103152.340000", "103153.830000", "103155.320000", "103156.810000", "103158.300000", "103159.790000", "103201.280000", "103202.770000", "103204.260000", "103205.750000", "103207.240000", "103208.730000", "103210.220000", "103211.710000", "103213.200000", "103214.690000", "103216.180000", "103217.670000", "103219.160000", "103220.650000", "103222.140000", "103223.630000", "103225.120000", "103226.610000", "103228.100000", "103229.590000", "103231.080000", "103232.570000", "103234.060000", "103235.550000", "103237.040000", "103238.530000", "103240.020000", "103241.510000", "103243.000000", "103244.490000", "103245.980000", "103247.470000", "103248.960000", "103250.450000", "103251.940000", "103253.430000", "103254.920000", "103256.410000", "103257.900000", "103259.390000", "103300.880000", "103302.370000", "103303.860000", "103305.350000", "103306.840000", "103308.330000", "103309.820000", "103311.310000", "103312.800000", "103314.290000", "103315.780000", "103317.270000", "103318.760000", "103320.250000", "103321.740000", "103323.230000", "103324.720000", "103326.210000", "103327.700000", "103329.190000", "103330.680000", "103332.170000", "103333.660000", "103335.150000", "103336.640000", "103338.130000", "103339.620000", "103341.110000", "103342.600000", "103344.090000", "103345.580000", "103347.070000", "103348.560000", "103350.050000", "103351.540000", "103353.030000", "103354.520000", "103356.010000", "103357.500000", "103358.990000", "103400.480000", "103401.970000", "103403.460000", "103404.950000", "103406.440000", "103407.930000", "103409.420000", "103410.910000", "103412.400000", "103413.890000", "103415.380000", "103416.870000", "103418.360000", "103419.850000", "103421.340000", "103422.830000", "103424.320000", "103425.810000", "103427.300000", "103428.790000", "103430.280000", "103431.770000", "103433.260000", "103434.750000", "103436.240000", "103437.730000", "103439.220000", "103440.710000", "103442.200000", "103443.690000", "103445.180000", "103446.670000", "103448.160000", "103449.650000", "103451.140000", "103452.630000", "103454.120000", "103455.610000", "103457.100000", "103458.590000", "103500.080000", "103501.570000", "103503.060000", "103504.550000", "103506.040000", "103507.530000", "103509.020000", "103510.510000", "103512.000000", "103513.490000", "103514.980000", "103516.470000", "103517.960000", "103519.450000", "103520.940000", "103522.430000", "103523.920000", "103525.410000", "103526.900000", "103528.390000", "103529.880000", "103531.370000", "103532.860000", "103534.350000", "103535.840000", "103537.330000", "103538.820000", "103540.310000", "103541.800000", "103543.290000", "103544.780000", "103546.270000", "103547.760000", "103549.250000", "103550.740000", "103552.230000", "103553.720000", "103555.210000", "103556.700000", "103558.190000", "103559.680000", "103601.170000", "103602.660000", "103604.150000", "103605.640000", "103607.130000", "103608.620000", "103610.110000", "103611.600000", "103613.090000", "103614.580000", "103616.070000", "103617.560000", "103619.050000", "103620.540000", "103622.030000", "103623.520000", "103625.010000", "103626.500000", "103627.990000", "103629.480000", "103630.970000", "103632.460000", "103633.950000", "103635.440000", "103636.930000", "103638.420000", "103639.910000", "103641.400000", "103642.890000", "103644.380000", "103645.870000", "103647.360000", "103648.850000", "103650.340000", "103651.830000", "103653.320000", "103654.810000", "103656.300000", "103657.790000", "103659.280000", "103700.770000", "103702.260000", "103703.750000", "103705.240000", "103706.730000", "103708.220000", "103709.710000", "103711.200000", "103712.690000", "103714.180000", "103715.670000", "103717.160000", "103718.650000", "103720.140000", "103721.630000", "103723.120000", "103724.610000", "103726.100000", "103727.590000", "103729.080000", "103730.570000", "103732.060000", "103733.550000", "103735.040000", "103736.530000", "103738.020000", "103739.510000", "103741.000000", "103742.490000", "103743.980000", "103745.470000", "103746.960000", "103748.450000", "103749.940000", "103751.430000", "103752.920000", "103754.410000", "103755.900000", "103757.390000", "103758.880000", "103800.370000", "103801.860000", "103803.350000", "103804.840000", "103806.330000", "103807.820000", "103809.310000", "103810.800000", "103812.290000", "103813.780000", "103815.270000", "103816.760000", "103818.250000", "103819.740000", "103821.230000", "103822.720000", "103824.210000", "103825.700000", "103827.190000", "103828.680000", "103830.170000", "103831.660000", "103833.150000", "103834.640000", "103836.130000", "103837.620000", "103839.110000", "103840.600000", "103842.090000", "103843.580000", "103845.070000", "103846.560000", "103848.050000", "103849.540000", "103851.030000", "103852.520000", "103854.010000", "103855.500000", "103856.990000", "103858.480000", "103859.970000", "103901.460000", "103902.950000", "103904.440000", "103905.930000", "103907.420000", "103908.910000", "103910.400000", "103911.890000", "103913.380000"],
      "ContentTime": ["102835.589000", "102835.593000", "102835.596000", "102835.599000", "102835.602000", "102835.604000", "102835.607000", "102835.610000", "102835.619000", "102835.621000", "102835.624000", "102835.627000", "102835.630000", "102835.633000", "102835.644000", "102835.647000", "102835.649000", "102835.652000", "102835.655000", "102835.658000", "102835.661000", "102835.664000", "102835.667000", "102835.670000", "102855.555000", "102855.558000", "102855.561000", "102855.564000", "102855.567000", "102855.570000", "102855.572000", "102855.575000", "102855.578000", "102855.581000", "102855.584000", "102855.587000", "102855.590000", "102855.593000", "102855.595000", "102855.598000", "102855.601000", "102855.604000", "102855.607000", "102855.610000", "102915.555000", "102915.558000", "102915.561000", "102915.564000", "102915.567000", "102915.570000", "102915.572000", "102915.575000", "102915.578000", "102915.581000", "102915.584000", "102915.587000", "102915.590000", "102915.600000", "102915.603000", "102915.606000", "102915.609000", "102915.612000", "102915.615000", "102915.618000", "102935.555000", "102935.565000", "102935.568000", "102935.571000", "102935.574000", "102935.577000", "102935.580000", "102935.582000", "102935.585000", "102935.588000", "102935.591000", "102935.594000", "102935.597000", "102935.608000", "102935.611000", "102935.614000", "102935.617000", "102935.620000", "102935.623000", "102935.626000", "102935.629000", "102955.555000", "102955.558000", "102955.561000", "102955.564000", "102955.567000", "102955.570000", "102955.572000", "102955.575000", "102955.578000", "102955.581000", "102955.584000", "102955.587000", "102955.590000", "102955.598000", "102955.601000", "102955.604000", "102955.607000", "102955.609000", "102955.612000", "102955.615000", "103035.555000", "103035.558000", "103035.561000", "103035.564000", "103035.567000", "103035.570000", "103035.573000", "103035.576000", "103035.578000", "103035.581000", "103035.584000", "103035.587000", "103035.590000", "103035.593000", "103035.596000", "103035.599000", "103035.602000", "103035.605000", "103035.607000", "103035.610000", "103035.613000", "103035.616000", "103035.619000", "103035.622000", "103035.625000", "103035.628000", "103035.631000", "103035.633000", "103115.555000", "103115.558000", "103115.561000", "103115.564000", "103115.567000", "103115.570000", "103115.573000", "103115.575000", "103115.578000", "103115.581000", "103115.584000", "103115.587000", "103115.590000", "103115.593000", "103115.596000", "103115.599000", "103115.602000", "103115.605000", "103115.607000", "103115.610000", "103115.613000", "103115.616000", "103115.619000", "103115.622000", "103115.625000", "103115.628000", "103115.631000", "103135.555000", "103135.558000", "103135.561000", "103135.564000", "103135.567000", "103135.570000", "103135.573000", "103135.576000", "103135.578000", "103135.581000", "103135.584000", "103135.587000", "103135.590000", "103135.593000", "103215.555000", "103215.558000", "103215.561000", "103215.564000", "103215.567000", "103215.570000", "103215.573000", "103215.575000", "103215.578000", "103215.581000", "103215.584000", "103215.587000", "103215.590000", "103215.593000", "103215.596000", "103215.599000", "103215.602000", "103215.605000", "103215.608000", "103215.611000", "103215.614000", "103215.617000", "103215.619000", "103215.622000", "103215.625000", "103215.628000", "103255.555000", "103255.558000", "103255.561000", "103255.564000", "103255.567000", "103255.570000", "103255.573000", "103255.576000", "103255.578000", "103255.581000", "103255.584000", "103255.587000", "103255.590000", "103255.593000", "103255.596000", "103255.599000", "103255.602000", "103255.605000", "103255.608000", "103255.610000", "103255.613000", "103255.616000", "103255.619000", "103255.622000", "103255.625000", "103255.628000", "103255.631000", "103335.555000", "103335.558000", "103335.561000", "103335.564000", "103335.567000", "103335.570000", "103335.573000", "103335.576000", "103335.579000", "103335.581000", "103335.584000", "103335.587000", "103335.601000", "103335.604000", "103335.606000", "103335.609000", "103335.612000", "103335.615000", "103335.618000", "103335.621000", "103335.624000", "103335.627000", "103335.630000", "103335.632000", "103335.635000", "103335.638000", "103335.641000", "103415.555000", "103415.558000", "103415.561000", "103415.564000", "103415.567000", "103415.570000", "103415.573000", "103415.576000", "103415.578000", "103415.581000", "103415.584000", "103415.587000", "103415.590000", "103415.604000", "103415.607000", "103415.610000", "103415.613000", "103415.615000", "103415.618000", "103415.621000", "103415.624000", "103415.627000", "103415.630000", "103415.633000", "103415.636000", "103415.639000", "103415.641000", "103455.555000", "103455.558000", "103455.561000", "103455.564000", "103455.567000", "103455.570000", "103455.573000", "103455.576000", "103455.578000", "103455.581000", "103455.584000", "103455.587000", "103455.590000", "103455.593000", "103455.596000", "103455.599000", "103455.602000", "103455.605000", "103455.608000", "103455.610000", "103455.613000", "103455.616000", "103455.619000", "103455.622000", "103455.625000", "103455.628000", "103455.631000", "103535.555000", "103535.558000", "103535.561000", "103535.564000", "103535.567000", "103535.570000", "103535.573000", "103535.576000", "103535.578000", "103535.581000", "103535.584000", "103535.587000", "103535.590000", "103535.593000", "103535.596000", "103535.599000", "103535.602000", "103535.605000", "103535.608000", "103535.611000", "103535.614000", "103535.616000", "103535.619000", "103535.622000", "103535.625000", "103535.628000", "103535.631000", "103615.555000", "103615.558000", "103615.561000", "103615.564000", "103615.567000", "103615.570000", "103615.573000", "103615.576000", "103615.578000", "103615.581000", "103615.584000", "103615.587000", "103615.590000", "103615.593000", "103615.596000", "103615.599000", "103615.602000", "103615.605000", "103615.608000", "103615.611000", "103615.614000", "103615.617000", "103615.620000", "103615.622000", "103615.625000", "103615.628000", "103615.631000", "103655.555000", "103655.558000", "103655.561000", "103655.564000", "103655.567000", "103655.570000", "103655.573000", "103655.576000", "103655.579000", "103655.582000", "103655.585000", "103655.587000", "103655.590000", "103655.593000", "103655.596000", "103655.600000", "103655.603000", "103655.606000", "103655.609000", "103655.612000", "103655.615000", "103655.617000", "103655.620000", "103655.623000", "103655.626000", "103655.629000", "103735.555000", "103735.558000", "103735.561000", "103735.564000", "103735.567000", "103735.570000", "103735.573000", "103735.576000", "103735.579000", "103735.581000", "103735.584000", "103735.587000", "103735.590000", "103735.593000", "103735.596000", "103735.599000", "103735.602000", "103735.605000", "103735.608000", "103735.611000", "103735.622000", "103735.625000", "103735.628000", "103735.631000", "103735.634000", "103735.637000", "103735.639000", "103815.555000", "103815.558000", "103815.561000", "103815.564000", "103815.567000", "103815.570000", "103815.573000", "103815.576000", "103815.579000", "103815.582000", "103815.584000", "103815.587000", "103815.590000", "103815.593000", "103815.596000", "103815.599000", "103815.602000", "103815.605000", "103815.608000", "103815.611000", "103815.614000", "103815.617000", "103815.620000", "103815.623000", "103815.626000", "103815.629000", "103815.632000", "103855.570000", "103855.574000", "103855.577000", "103855.579000", "103855.582000", "103855.585000", "103855.588000", "103855.591000", "103855.594000", "103855.597000", "103855.600000", "103855.603000", "103855.606000", "103855.609000", "103855.612000", "103855.615000", "103855.618000", "103855.621000", "103855.623000", "103855.626000", "103855.629000", "103855.632000", "103855.635000", "103855.638000", "103855.641000", "103855.644000", "103855.647000", "103915.829000", "103915.832000", "103915.835000", "103915.838000", "103915.841000", "103915.844000", "103915.847000", "103915.849000", "103915.852000", "103915.855000", "103915.858000", "103915.861000", "103915.864000", "103915.867000"],
