{
  "AcquisitionMatrixPE": 104,
  "AcquisitionNumber": 1,
  "AcquisitionTime": "13:23:8.580000",
  "BandwidthPerPixelPhaseEncode": 17.17,
  "BaseResolution": 104,
  "BodyPartExamined": "BRAIN",
  "CoilString": "HC1-7;NC1_2",
  "ConsistencyInfo": "N4_VE11C_LATEST_20160120",
  "ConversionSoftware": "dcm2niix",
  "ConversionSoftwareVersion": "v1.0.20190902",
  "DerivedVendorReportedEchoSpacing": 0.000560011,
  "DeviceSerialNumber": "167006",
  "DwellTime": 2.1e-06,
  "EchoTime": 0.037,
  "EchoTrainLength": 104,
  "EffectiveEchoSpacing": 0.000560011,
  "FlipAngle": 52,
  "ImageComments": "Unaliased_MB4_PE3_LB",
  "ImageOrientationPatientDICOM": [0.999913, -0.0117078, -0.00603552, 0.00942417, 0.956012, -0.293176],
  "ImageType": [
    "ORIGINAL",
    "PRIMARY",
    "M",
    "MB",
    "ND",
    "MOSAIC"
],
  "ImagingFrequency": 123.259,
  "InPlanePhaseEncodingDirectionDICOM": "COL",
  "InstitutionAddress": "Chemin_Queen-Mary_4565_Montreal_District_CA_H3W_1W5",
  "InstitutionName": "IUGM",
  "InstitutionalDepartmentName": "Department",
  "MRAcquisitionType": "2D",
  "MagneticFieldStrength": 3,
  "Manufacturer": "Siemens",
  "ManufacturersModelName": "Prisma_fit",
  "Modality": "MR",
  "MultibandAccelerationFactor": 4,
  "PartialFourier": 1,
  "PatientPosition": "HFS",
  "PercentPhaseFOV": 100,
  "PhaseEncodingDirection": "j",
  "PhaseEncodingSteps": 104,
  "PhaseResolution": 1,
  "PixelBandwidth": 2290,
  "ProcedureStepDescription": "video_friends",
  "ProtocolName": "func_task-friends-s03e23a",
  "PulseSequenceDetails": "%CustomerSeq%_cmrr_mbep2d_bold",
  "ReceiveCoilActiveElements": "HC1-7;NC1,2",
  "ReceiveCoilName": "HeadNeck_64",
  "ReconMatrixPE": 104,
  "RepetitionTime": 1.49,
  "SAR": 0.0281769,
  "ScanOptions": "FS",
  "ScanningSequence": "EP",
  "SequenceName": "epfid2d1_104",
  "SequenceVariant": "SK_SS",
  "SeriesDescription": "func_task-friends-s03e23a",
  "SeriesNumber": 11,
  "ShimSetting": [627, -7211, -8802, 713, 18, 6, 60, -2],
  "SliceThickness": 2,
  "SliceTiming": [0, 0.785, 0.0975, 0.8825, 0.1975, 0.98, 0.295, 1.0775, 0.3925, 1.1775, 0.49, 1.275, 0.5875, 1.3725, 0.6875, 0, 0.785, 0.0975, 0.8825, 0.1975, 0.98, 0.295, 1.0775, 0.3925, 1.1775, 0.49, 1.275, 0.5875, 1.3725, 0.6875, 0, 0.785, 0.0975, 0.8825, 0.1975, 0.98, 0.295, 1.0775, 0.3925, 1.1775, 0.49, 1.275, 0.5875, 1.3725, 0.6875, 0, 0.785, 0.0975, 0.8825, 0.1975, 0.98, 0.295, 1.0775, 0.3925, 1.1775, 0.49, 1.275, 0.5875, 1.3725, 0.6875],
  "SoftwareVersions": "syngo_MR_E11",
  "SpacingBetweenSlices": 2,
  "StationName": "MRC35049",
  "TaskName": "s03e23a",
  "TotalReadoutTime": 0.0576811,
  "TxRefAmp": 204.903,
  "WipMemBlock": "5358e907-27bd-43ee-ada2-1f5e06658cbf||Sequence: R016 ve11c/master r/e634e98; Dec 19 2017 11:00:25 by eja",
  "dcmmeta_affine": [
    [-1.9998265504837036, 0.01884833723306656, -0.018404971808195114, 104.55399322509766],
    [0.02341565489768982, 1.9120237827301025, -0.5861883163452148, -82.53250122070312],
    [-0.0120710339397192, 0.5863529443740845, 1.9120784997940063, -65.75694274902344],
    [0.0, 0.0, 0.0, 1.0]
],
  "dcmmeta_reorient_transform": [
    [0.0, -1.0, 0.0, 103.0],
    [1.0, 0.0, 0.0, 0.0],
    [0.0, 0.0, 1.0, 0.0],
    [0.0, 0.0, 0.0, 1.0]
],
  "dcmmeta_shape": [104, 104, 60, 470],
  "dcmmeta_slice_dim": 2,
  "dcmmeta_version": 0.6,
  "global": {
    "const": {
      "AcquisitionMatrix": [104, 0, 0, 104],
      "AngioFlag": "N",
      "BitsAllocated": 16,
      "BitsStored": 16,
      "BodyPartExamined": "BRAIN",
      "Columns": 832,
      "EchoNumbers": 1,
      "EchoTime": 37.0,
      "EchoTrainLength": 104,
      "FlipAngle": 52.0,
      "HighBit": 15,
      "ImageOrientationPatient": [0.99991324588932, -0.0117078276033, -0.006035517202, 0.00942416837222, 0.956011893477, -0.2931764734439],
      "ImagePositionPatient": [-841.29300837923, -801.85930510303, 212.46374343544],
      "ImageType": [
        "ORIGINAL",
        "PRIMARY",
        "M",
        "MB",
        "ND",
        "MOSAIC"
],
      "ImagedNucleus": "1H",
      "ImagingFrequency": 123.259097,
      "InPlanePhaseEncodingDirection": "COL",
      "MRAcquisitionType": "2D",
      "MagneticFieldStrength": 3.0,
      "Manufacturer": "SIEMENS",
      "ManufacturerModelName": "Prisma_fit",
      "Modality": "MR",
      "NumberOfAverages": 1.0,
      "NumberOfPhaseEncodingSteps": 104,
      "PercentPhaseFieldOfView": 100.0,
      "PercentSampling": 100.0,
      "PerformedProcedureStepStartTime": "130038.714000",
      "PhotometricInterpretation": "MONOCHROME2",
      "PixelBandwidth": 2290.0,
      "PixelRepresentation": 0,
      "PixelSpacing": [2.0, 2.0],
      "ProtocolName": "func_task-friends-s03e23a",
      "RepetitionTime": 1490.0,
      "Rows": 832,
      "SAR": 0.02817688266535,
      "SamplesPerPixel": 1,
      "ScanOptions": "FS",
      "ScanningSequence": "EP",
      "SequenceName": "epfid2d1_104",
      "SequenceVariant": [
        "SK",
        "SS"
],
      "SeriesDescription": "func_task-friends-s03e23a",
      "SeriesNumber": 11,
      "SeriesTime": "132437.273000",
      "SliceLocation": -39.638579158922,
      "SliceThickness": 2.0,
      "SmallestImagePixelValue": 0,
      "SoftwareVersions": "syngo MR E11",
      "SpacingBetweenSlices": 1.9999999563928,
      "SpecificCharacterSet": "ISO_IR 100",
      "StudyID": "1",
      "StudyTime": "130038.627000",
      "TransmitCoilName": "Body",
      "VariableFlipAngleFlag": "N",
      "WindowCenterWidthExplanation": "Algo1",
      "dBdt": 0.0},
    "slices": {}
  },
  "time": {
    "samples": {
      "AcquisitionNumber": [1, 2, 3, 4, 5, 6, 7, 8, 9, 10, 11, 12, 13, 14, 15, 16, 17, 18, 19, 20, 21, 22, 23, 24, 25, 26, 27, 28, 29, 30, 31, 32, 33, 34, 35, 36, 37, 38, 39, 40, 41, 42, 43, 44, 45, 46, 47, 48, 49, 50, 51, 52, 53, 54, 55, 56, 57, 58, 59, 60, 61, 62, 63, 64, 65, 66, 67, 68, 69, 70, 71, 72, 73, 74, 75, 76, 77, 78, 79, 80, 81, 82, 83, 84, 85, 86, 87, 88, 89, 90, 91, 92, 93, 94, 95, 96, 97, 98, 99, 100, 101, 102, 103, 104, 105, 106, 107, 108, 109, 110, 111, 112, 113, 114, 115, 116, 117, 118, 119, 120, 121, 122, 123, 124, 125, 126, 127, 128, 129, 130, 131, 132, 133, 134, 135, 136, 137, 138, 139, 140, 141, 142, 143, 144, 145, 146, 147, 148, 149, 150, 151, 152, 153, 154, 155, 156, 157, 158, 159, 160, 161, 162, 163, 164, 165, 166, 167, 168, 169, 170, 171, 172, 173, 174, 175, 176, 177, 178, 179, 180, 181, 182, 183, 184, 185, 186, 187, 188, 189, 190, 191, 192, 193, 194, 195, 196, 197, 198, 199, 200, 201, 202, 203, 204, 205, 206, 207, 208, 209, 210, 211, 212, 213, 214, 215, 216, 217, 218, 219, 220, 221, 222, 223, 224, 225, 226, 227, 228, 229, 230, 231, 232, 233, 234, 235, 236, 237, 238, 239, 240, 241, 242, 243, 244, 245, 246, 247, 248, 249, 250, 251, 252, 253, 254, 255, 256, 257, 258, 259, 260, 261, 262, 263, 264, 265, 266, 267, 268, 269, 270, 271, 272, 273, 274, 275, 276, 277, 278, 279, 280, 281, 282, 283, 284, 285, 286, 287, 288, 289, 290, 291, 292, 293, 294, 295, 296, 297, 298, 299, 300, 301, 302, 303, 304, 305, 306, 307, 308, 309, 310, 311, 312, 313, 314, 315, 316, 317, 318, 319, 320, 321, 322, 323, 324, 325, 326, 327, 328, 329, 330, 331, 332, 333, 334, 335, 336, 337, 338, 339, 340, 341, 342, 343, 344, 345, 346, 347, 348, 349, 350, 351, 352, 353, 354, 355, 356, 357, 358, 359, 360, 361, 362, 363, 364, 365, 366, 367, 368, 369, 370, 371, 372, 373, 374, 375, 376, 377, 378, 379, 380, 381, 382, 383, 384, 385, 386, 387, 388, 389, 390, 391, 392, 393, 394, 395, 396, 397, 398, 399, 400, 401, 402, 403, 404, 405, 406, 407, 408, 409, 410, 411, 412, 413, 414, 415, 416, 417, 418, 419, 420, 421, 422, 423, 424, 425, 426, 427, 428, 429, 430, 431, 432, 433, 434, 435, 436, 437, 438, 439, 440, 441, 442, 443, 444, 445, 446, 447, 448, 449, 450, 451, 452, 453, 454, 455, 456, 457, 458, 459, 460, 461, 462, 463, 464, 465, 466, 467, 468, 469, 470],
      "AcquisitionTime": ["132308.580000", "132310.070000", "132311.560000", "132313.050000", "132314.540000", "132316.030000", "132317.520000", "132319.010000", "132320.500000", "132321.990000", "132323.480000", "132324.970000", "132326.460000", "132327.950000", "132329.440000", "132330.930000", "132332.420000", "132333.910000", "132335.400000", "132336.890000", "132338.380000", "132339.870000", "132341.360000", "132342.850000", "132344.340000", "132345.830000", "132347.320000", "132348.810000", "132350.300000", "132351.790000", "132353.280000", "132354.770000", "132356.260000", "132357.750000", "132359.240000", "132400.730000", "132402.220000", "132403.710000", "132405.200000", "132406.690000", "132408.180000", "132409.670000", "132411.160000", "132412.650000", "132414.140000", "132415.630000", "132417.120000", "132418.610000", "132420.100000", "132421.590000", "132423.080000", "132424.570000", "132426.060000", "132427.550000", "132429.040000", "132430.530000", "132432.020000", "132433.510000", "132435.000000", "132436.490000", "132437.980000", "132439.470000", "132440.960000", "132442.450000", "132443.940000", "132445.430000", "132446.920000", "132448.410000", "132449.900000", "132451.390000", "132452.880000", "132454.370000", "132455.860000", "132457.350000", "132458.840000", "132500.330000", "132501.820000", "132503.310000", "132504.800000", "132506.290000", "132507.780000", "132509.270000", "132510.760000", "132512.250000", "132513.740000", "132515.230000", "132516.720000", "132518.210000", "132519.700000", "132521.190000", "132522.680000", "132524.170000", "132525.660000", "132527.150000", "132528.640000", "132530.130000", "132531.620000", "132533.110000", "132534.600000", "132536.090000", "132537.580000", "132539.070000", "132540.560000", "132542.050000", "132543.540000", "132545.030000", "132546.520000", "132548.010000", "132549.500000", "132550.990000", "132552.480000", "132553.970000", "132555.460000", "132556.950000", "132558.440000", "132559.930000", "132601.420000", "132602.910000", "132604.400000", "132605.890000", "132607.380000", "132608.870000", "132610.360000", "132611.850000", "132613.340000", "132614.830000", "132616.320000", "132617.810000", "132619.300000", "132620.790000", "132622.280000", "132623.770000", "132625.260000", "132626.750000", "132628.240000", "132629.730000", "132631.220000", "132632.710000", "132634.200000", "132635.690000", "132637.180000", "132638.670000", "132640.160000", "132641.650000", "132643.140000", "132644.630000", "132646.120000", "132647.610000", "132649.100000", "132650.590000", "132652.080000", "132653.570000", "132655.060000", "132656.550000", "132658.040000", "132659.530000", "132701.020000", "132702.510000", "132704.000000", "132705.490000", "132706.980000", "132708.470000", "132709.960000", "132711.450000", "132712.940000", "132714.430000", "132715.920000", "132717.410000", "132718.900000", "132720.390000", "132721.880000", "132723.370000", "132724.860000", "132726.350000", "132727.840000", "132729.330000", "132730.820000", "132732.310000", "132733.800000", "132735.290000", "132736.780000", "132738.270000", "132739.760000", "132741.250000", "132742.740000", "132744.230000", "132745.720000", "132747.210000", "132748.700000", "132750.190000", "132751.680000", "132753.170000", "132754.660000", "132756.150000", "132757.640000", "132759.130000", "132800.620000", "132802.110000", "132803.600000", "132805.090000", "132806.580000", "132808.070000", "132809.560000", "132811.050000", "132812.540000", "132814.030000", "132815.520000", "132817.010000", "132818.500000", "132819.990000", "132821.480000", "132822.970000", "132824.460000", "132825.950000", "132827.440000", "132828.930000", "132830.420000", "132831.910000", "132833.400000", "132834.890000", "132836.380000", "132837.870000", "132839.360000", "132840.850000", "132842.340000", "132843.830000", "132845.320000", "132846.810000", "132848.300000", "132849.790000", "132851.280000", "132852.770000", "132854.260000", "132855.750000", "132857.240000", "132858.730000", "132900.220000", "132901.710000", "132903.200000", "132904.690000", "132906.180000", "132907.670000", "132909.160000", "132910.650000", "132912.140000", "132913.630000", "132915.120000", "132916.610000", "132918.100000", "132919.590000", "132921.080000", "132922.570000", "132924.060000", "132925.550000", "132927.040000", "132928.530000", "132930.020000", "132931.510000", "132933.000000", "132934.490000", "132935.980000", "132937.470000", "132938.960000", "132940.450000", "132941.940000", "132943.430000", "132944.920000", "132946.410000", "132947.900000", "132949.390000", "132950.880000", "132952.370000", "132953.860000", "132955.350000", "132956.840000", "132958.330000", "132959.820000", "133001.310000", "133002.800000", "133004.290000", "133005.780000", "133007.270000", "133008.760000", "133010.250000", "133011.740000", "133013.230000", "133014.720000", "133016.210000", "133017.700000", "133019.190000", "133020.680000", "133022.170000", "133023.660000", "133025.150000", "133026.640000", "133028.130000", "133029.620000", "133031.110000", "133032.600000", "133034.090000", "133035.580000", "133037.070000", "133038.560000", "133040.050000", "133041.540000", "133043.030000", "133044.520000", "133046.010000", "133047.500000", "133048.990000", "133050.480000", "133051.970000", "133053.460000", "133054.950000", "133056.440000", "133057.930000", "133059.420000", "133100.910000", "133102.400000", "133103.890000", "133105.380000", "133106.870000", "133108.360000", "133109.850000", "133111.340000", "133112.830000", "133114.320000", "133115.810000", "133117.300000", "133118.790000", "133120.280000", "133121.770000", "133123.260000", "133124.750000", "133126.240000", "133127.730000", "133129.220000", "133130.710000", "133132.200000", "133133.690000", "133135.180000", "133136.670000", "133138.160000", "133139.650000", "133141.140000", "133142.630000", "133144.120000", "133145.610000", "133147.100000", "133148.590000", "133150.080000", "133151.570000", "133153.060000", "133154.550000", "133156.040000", "133157.530000", "133159.020000", "133200.510000", "133202.000000", "133203.490000", "133204.980000", "133206.470000", "133207.960000", "133209.450000", "133210.940000", "133212.430000", "133213.920000", "133215.410000", "133216.900000", "133218.390000", "133219.880000", "133221.370000", "133222.860000", "133224.350000", "133225.840000", "133227.330000", "133228.820000", "133230.310000", "133231.800000", "133233.290000", "133234.780000", "133236.270000", "133237.760000", "133239.250000", "133240.740000", "133242.230000", "133243.720000", "133245.210000", "133246.700000", "133248.190000", "133249.680000", "133251.170000", "133252.660000", "133254.150000", "133255.640000", "133257.130000", "133258.620000", "133300.110000", "133301.600000", "133303.090000", "133304.580000", "133306.070000", "133307.560000", "133309.050000", "133310.540000", "133312.030000", "133313.520000", "133315.010000", "133316.500000", "133317.990000", "133319.480000", "133320.970000", "133322.460000", "133323.950000", "133325.440000", "133326.930000", "133328.420000", "133329.910000", "133331.400000", "133332.890000", "133334.380000", "133335.870000", "133337.360000", "133338.850000", "133340.340000", "133341.830000", "133343.320000", "133344.810000", "133346.300000", "133347.790000", "133349.280000", "133350.770000", "133352.260000", "133353.750000", "133355.240000", "133356.730000", "133358.220000", "133359.710000", "133401.200000", "133402.690000", "133404.180000", "133405.670000", "133407.160000", "133408.650000", "133410.140000", "133411.630000", "133413.120000", "133414.610000", "133416.100000", "133417.590000", "133419.080000", "133420.570000", "133422.060000", "133423.550000", "133425.040000", "133426.530000", "133428.020000", "133429.510000", "133431.000000", "133432.490000", "133433.980000", "133435.470000", "133436.960000", "133438.450000", "133439.940000", "133441.430000", "133442.920000", "133444.410000", "133445.900000", "133447.390000"],
      "ContentTime": ["132437.276000", "132437.279000", "132437.282000", "132437.285000", "132437.288000", "132437.290000", "132437.293000", "132437.296000", "132437.299000", "132437.302000", "132437.305000", "132437.317000", "132437.320000", "132437.323000", "132437.325000", "132437.328000", "132437.331000", "132437.334000", "132437.337000", "132437.340000", "132437.342000", "132437.345000", "132437.348000", "132437.351000", "132437.354000", "132437.357000", "132437.360000", "132437.362000", "132437.365000", "132437.368000", "132437.371000", "132437.374000", "132437.376000", "132437.379000", "132457.239000", "132457.242000", "132457.245000", "132457.247000", "132457.259000", "132457.262000", "132457.265000", "132457.267000", "132457.270000", "132457.273000", "132457.276000", "132457.279000", "132457.281000", "132457.284000", "132457.287000", "132457.290000", "132457.293000", "132457.295000", "132457.298000", "132457.301000", "132517.239000", "132517.242000", "132517.245000", "132517.247000", "132517.259000", "132517.262000", "132517.265000", "132517.268000", "132517.271000", "132517.273000", "132517.276000", "132517.279000", "132517.282000", "132517.285000", "132517.288000", "132517.290000", "132517.293000", "132517.296000", "132517.299000", "132517.301000", "132517.304000", "132537.238000", "132537.241000", "132537.244000", "132537.246000", "132537.249000", "132537.252000", "132537.255000", "132537.258000", "132537.261000", "132537.263000", "132537.266000", "132537.269000", "132537.272000", "132537.275000", "132537.277000", "132537.280000", "132537.283000", "132537.286000", "132537.289000", "132537.291000", "132617.238000", "132617.241000", "132617.244000", "132617.247000", "132617.249000", "132617.252000", "132617.255000", "132617.258000", "132617.261000", "132617.263000", "132617.266000", "132617.269000", "132617.272000", "132617.275000", "132617.278000", "132617.280000", "132617.283000", "132617.286000", "132617.289000", "132617.292000", "132617.294000", "132617.297000", "132617.300000", "132617.303000", "132617.306000", "132617.309000", "132617.311000", "132617.314000", "132617.317000", "132617.324000", "132617.327000", "132657.239000", "132657.242000", "132657.245000", "132657.249000", "132657.252000", "132657.255000", "132657.258000", "132657.260000", "132657.263000", "132657.266000", "132657.269000", "132657.272000", "132657.275000", "132657.277000", "132657.280000", "132657.283000", "132657.286000", "132657.289000", "132657.292000", "132657.295000", "132657.297000", "132657.300000", "132657.303000", "132657.306000", "132657.309000", "132657.312000", "132737.239000", "132737.242000", "132737.245000", "132737.248000", "132737.251000", "132737.254000", "132737.257000", "132737.259000", "132737.262000", "132737.265000", "132737.268000", "132737.271000", "132737.273000", "132737.276000", "132737.279000", "132737.282000", "132737.285000", "132737.288000", "132737.297000", "132737.300000", "132737.303000", "132737.305000", "132737.308000", "132737.311000", "132737.314000", "132737.317000", "132737.322000", "132817.238000", "132817.241000", "132817.244000", "132817.247000", "132817.250000", "132817.253000", "132817.255000", "132817.258000", "132817.262000", "132817.264000", "132817.267000", "132817.270000", "132817.273000", "132817.276000", "132817.279000", "132817.281000", "132817.284000", "132817.287000", "132817.290000", "132817.293000", "132817.296000", "132817.298000", "132817.301000", "132817.304000", "132817.307000", "132817.310000", "132817.313000", "132857.239000", "132857.242000", "132857.245000", "132857.248000", "132857.250000", "132857.253000", "132857.256000", "132857.259000", "132857.262000", "132857.265000", "132857.267000", "132857.270000", "132857.273000", "132857.276000", "132857.279000", "132857.282000", "132857.285000", "132857.287000", "132857.290000", "132857.293000", "132857.296000", "132857.299000", "132857.302000", "132857.304000", "132857.307000", "132857.310000", "132857.313000", "132937.239000", "132937.257000", "132937.260000", "132937.263000", "132937.265000", "132937.268000", "132937.271000", "132937.274000", "132937.277000", "132937.280000", "132937.282000", "132937.285000", "132937.288000", "132937.291000", "132937.294000", "132937.297000", "132937.300000", "132937.303000", "132937.305000", "132937.308000", "132937.311000", "132937.314000", "132937.317000", "132937.319000", "132937.322000", "132937.325000", "132937.328000", "133017.238000", "133017.241000", "133017.244000", "133017.247000", "133017.249000", "133017.252000", "133017.255000", "133017.258000", "133017.261000", "133017.264000", "133017.266000", "133017.269000", "133017.272000", "133017.275000", "133017.278000", "133017.281000", "133017.283000", "133017.286000", "133017.289000", "133017.292000", "133017.295000", "133017.298000", "133017.301000", "133017.303000", "133017.306000", "133017.309000", "133017.312000", "133057.239000", "133057.242000", "133057.245000", "133057.248000", "133057.251000", "133057.254000", "133057.257000", "133057.259000", "133057.262000", "133057.265000", "133057.268000", "133057.271000", "133057.273000", "133057.276000", "133057.279000", "133057.282000", "133057.285000", "133057.288000", "133057.291000", "133057.293000", "133057.296000", "133057.306000", "133057.309000", "133057.311000", "133057.314000", "133057.317000", "133137.239000", "133137.242000", "133137.245000", "133137.248000", "133137.251000", "133137.253000", "133137.256000", "133137.259000", "133137.262000", "133137.265000", "133137.268000", "133137.270000", "133137.284000", "133137.287000", "133137.290000", "133137.292000", "133137.295000", "133137.298000", "133137.301000", "133137.304000", "133137.307000", "133137.309000", "133137.312000", "133137.315000", "133137.318000", "133137.321000", "133137.324000", "133217.239000", "133217.242000", "133217.245000", "133217.248000", "133217.251000", "133217.253000", "133217.256000", "133217.259000", "133217.262000", "133217.265000", "133217.268000", "133217.271000", "133217.273000", "133217.276000", "133217.279000", "133217.282000", "133217.285000", "133217.288000", "133217.290000", "133217.293000", "133217.296000", "133217.299000", "133217.302000", "133217.304000", "133217.307000", "133217.310000", "133217.313000", "133257.238000", "133257.241000", "133257.244000", "133257.247000", "133257.249000", "133257.252000", "133257.255000", "133257.258000", "133257.261000", "133257.264000", "133257.266000", "133257.269000", "133257.272000", "133257.275000", "133257.278000", "133257.281000", "133257.284000", "133257.286000", "133257.289000", "133257.292000", "133257.295000", "133257.298000", "133257.301000", "133257.303000", "133257.306000", "133257.309000", "133257.312000", "133337.239000", "133337.242000", "133337.245000", "133337.248000", "133337.251000", "133337.253000", "133337.256000", "133337.259000", "133337.262000", "133337.265000", "133337.268000", "133337.271000", "133337.274000", "133337.276000", "133337.279000", "133337.282000", "133337.285000", "133337.288000", "133337.291000", "133337.293000", "133337.296000", "133337.299000", "133337.302000", "133337.318000", "133337.320000", "133337.323000", "133337.326000", "133417.239000", "133417.242000", "133417.245000", "133417.248000", "133417.250000", "133417.253000", "133417.256000", "133417.259000", "133417.262000", "133417.265000", "133417.267000", "133417.270000", "133417.273000", "133417.276000", "133417.279000", "133417.282000", "133417.285000", "133417.288000", "133417.291000", "133417.293000", "133417.296000", "133417.299000", "133417.302000", "133417.305000", "133417.308000", "133417.310000", "133417.313000", "133449.744000", "133449.747000", "133449.750000", "133449.753000", "133449.756000", "133449.759000", "133449.762000", "133449.765000", "133449.768000", "133449.771000", "133449.774000", "133449.777000", "133449.780000", "133449.783000", "133449.807000", "133449.810000", "133449.813000", "133449.816000", "133449.819000", "133449.822000", "133449.825000", "133449.828000"],
