{
  "AcquisitionMatrixPE": 104,
  "AcquisitionNumber": 1,
  "AcquisitionTime": "13:59:5.270000",
  "BandwidthPerPixelPhaseEncode": 17.17,
  "BaseResolution": 104,
  "BodyPartExamined": "BRAIN",
  "CoilString": "HC1-7;NC1_2",
  "ConsistencyInfo": "N4_VE11C_LATEST_20160120",
  "ConversionSoftware": "dcm2niix",
  "ConversionSoftwareVersion": "v1.0.20190902",
  "DerivedVendorReportedEchoSpacing": 0.000560011,
  "DeviceSerialNumber": "167006",
  "DwellTime": 2.1e-06,
  "EchoTime": 0.037,
  "EchoTrainLength": 104,
  "EffectiveEchoSpacing": 0.000560011,
  "FlipAngle": 52,
  "ImageComments": "Unaliased_MB4_PE3_LB",
  "ImageOrientationPatientDICOM": [0.999913, -0.0117078, -0.00603552, 0.00942417, 0.956012, -0.293176],
  "ImageType": [
    "ORIGINAL",
    "PRIMARY",
    "M",
    "MB",
    "ND",
    "MOSAIC"
],
  "ImagingFrequency": 123.259,
  "InPlanePhaseEncodingDirectionDICOM": "COL",
  "InstitutionAddress": "Chemin_Queen-Mary_4565_Montreal_District_CA_H3W_1W5",
  "InstitutionName": "IUGM",
  "InstitutionalDepartmentName": "Department",
  "MRAcquisitionType": "2D",
  "MagneticFieldStrength": 3,
  "Manufacturer": "Siemens",
  "ManufacturersModelName": "Prisma_fit",
  "Modality": "MR",
  "MultibandAccelerationFactor": 4,
  "PartialFourier": 1,
  "PatientPosition": "HFS",
  "PercentPhaseFOV": 100,
  "PhaseEncodingDirection": "j",
  "PhaseEncodingSteps": 104,
  "PhaseResolution": 1,
  "PixelBandwidth": 2290,
  "ProcedureStepDescription": "video_friends",
  "ProtocolName": "func_task-friends-s03e24b",
  "PulseSequenceDetails": "%CustomerSeq%_cmrr_mbep2d_bold",
  "ReceiveCoilActiveElements": "HC1-7;NC1,2",
  "ReceiveCoilName": "HeadNeck_64",
  "ReconMatrixPE": 104,
  "RepetitionTime": 1.49,
  "SAR": 0.0281727,
  "ScanOptions": "FS",
  "ScanningSequence": "EP",
  "SequenceName": "epfid2d1_104",
  "SequenceVariant": "SK_SS",
  "SeriesDescription": "func_task-friends-s03e24b",
  "SeriesNumber": 17,
  "ShimSetting": [627, -7211, -8802, 713, 18, 6, 60, -2],
  "SliceThickness": 2,
  "SliceTiming": [0, 0.785, 0.1, 0.8825, 0.1975, 0.98, 0.295, 1.08, 0.3925, 1.1775, 0.49, 1.275, 0.59, 1.3725, 0.6875, 0, 0.785, 0.1, 0.8825, 0.1975, 0.98, 0.295, 1.08, 0.3925, 1.1775, 0.49, 1.275, 0.59, 1.3725, 0.6875, 0, 0.785, 0.1, 0.8825, 0.1975, 0.98, 0.295, 1.08, 0.3925, 1.1775, 0.49, 1.275, 0.59, 1.3725, 0.6875, 0, 0.785, 0.1, 0.8825, 0.1975, 0.98, 0.295, 1.08, 0.3925, 1.1775, 0.49, 1.275, 0.59, 1.3725, 0.6875],
  "SoftwareVersions": "syngo_MR_E11",
  "SpacingBetweenSlices": 2,
  "StationName": "MRC35049",
  "TaskName": "s03e24b",
  "TotalReadoutTime": 0.0576811,
  "TxRefAmp": 204.903,
  "WipMemBlock": "6b30a163-bc8b-4068-9c58-55db2c253071||Sequence: R016 ve11c/master r/e634e98; Dec 19 2017 11:00:25 by eja",
  "dcmmeta_affine": [
    [-1.9998265504837036, 0.01884833723306656, -0.018404971808195114, 104.55399322509766],
    [0.02341565489768982, 1.9120237827301025, -0.5861883163452148, -82.53250122070312],
    [-0.0120710339397192, 0.5863529443740845, 1.9120784997940063, -65.75694274902344],
    [0.0, 0.0, 0.0, 1.0]
],
  "dcmmeta_reorient_transform": [
    [0.0, -1.0, 0.0, 103.0],
    [1.0, 0.0, 0.0, 0.0],
    [0.0, 0.0, 1.0, 0.0],
    [0.0, 0.0, 0.0, 1.0]
],
  "dcmmeta_shape": [104, 104, 60, 454],
  "dcmmeta_slice_dim": 2,
  "dcmmeta_version": 0.6,
  "global": {
    "const": {
      "AcquisitionMatrix": [104, 0, 0, 104],
      "AngioFlag": "N",
      "BitsAllocated": 16,
      "BitsStored": 16,
      "BodyPartExamined": "BRAIN",
      "Columns": 832,
      "EchoNumbers": 1,
      "EchoTime": 37.0,
      "EchoTrainLength": 104,
      "FlipAngle": 52.0,
      "HighBit": 15,
      "ImageOrientationPatient": [0.99991324588932, -0.0117078276033, -0.006035517202, 0.00942416837222, 0.956011893477, -0.2931764734439],
      "ImagePositionPatient": [-841.29300837923, -801.85930510303, 212.46374343544],
      "ImageType": [
        "ORIGINAL",
        "PRIMARY",
        "M",
        "MB",
        "ND",
        "MOSAIC"
],
      "ImagedNucleus": "1H",
      "ImagingFrequency": 123.259116,
      "InPlanePhaseEncodingDirection": "COL",
      "MRAcquisitionType": "2D",
      "MagneticFieldStrength": 3.0,
      "Manufacturer": "SIEMENS",
      "ManufacturerModelName": "Prisma_fit",
      "Modality": "MR",
      "NumberOfAverages": 1.0,
      "NumberOfPhaseEncodingSteps": 104,
      "PercentPhaseFieldOfView": 100.0,
      "PercentSampling": 100.0,
      "PerformedProcedureStepStartTime": "130038.714000",
      "PhotometricInterpretation": "MONOCHROME2",
      "PixelBandwidth": 2290.0,
      "PixelRepresentation": 0,
      "PixelSpacing": [2.0, 2.0],
      "ProtocolName": "func_task-friends-s03e24b",
      "RepetitionTime": 1490.0,
      "Rows": 832,
      "SAR": 0.02817271067734,
      "SamplesPerPixel": 1,
      "ScanOptions": "FS",
      "ScanningSequence": "EP",
      "SequenceName": "epfid2d1_104",
      "SequenceVariant": [
        "SK",
        "SS"
],
      "SeriesDescription": "func_task-friends-s03e24b",
      "SeriesNumber": 17,
      "SeriesTime": "140037.262000",
      "SliceLocation": -39.638579158922,
      "SliceThickness": 2.0,
      "SmallestImagePixelValue": 0,
      "SoftwareVersions": "syngo MR E11",
      "SpacingBetweenSlices": 1.9999999563928,
      "SpecificCharacterSet": "ISO_IR 100",
      "StudyID": "1",
      "StudyTime": "130038.627000",
      "TransmitCoilName": "Body",
      "VariableFlipAngleFlag": "N",
      "WindowCenterWidthExplanation": "Algo1",
      "dBdt": 0.0},
    "slices": {}
  },
  "time": {
    "samples": {
      "AcquisitionNumber": [1, 2, 3, 4, 5, 6, 7, 8, 9, 10, 11, 12, 13, 14, 15, 16, 17, 18, 19, 20, 21, 22, 23, 24, 25, 26, 27, 28, 29, 30, 31, 32, 33, 34, 35, 36, 37, 38, 39, 40, 41, 42, 43, 44, 45, 46, 47, 48, 49, 50, 51, 52, 53, 54, 55, 56, 57, 58, 59, 60, 61, 62, 63, 64, 65, 66, 67, 68, 69, 70, 71, 72, 73, 74, 75, 76, 77, 78, 79, 80, 81, 82, 83, 84, 85, 86, 87, 88, 89, 90, 91, 92, 93, 94, 95, 96, 97, 98, 99, 100, 101, 102, 103, 104, 105, 106, 107, 108, 109, 110, 111, 112, 113, 114, 115, 116, 117, 118, 119, 120, 121, 122, 123, 124, 125, 126, 127, 128, 129, 130, 131, 132, 133, 134, 135, 136, 137, 138, 139, 140, 141, 142, 143, 144, 145, 146, 147, 148, 149, 150, 151, 152, 153, 154, 155, 156, 157, 158, 159, 160, 161, 162, 163, 164, 165, 166, 167, 168, 169, 170, 171, 172, 173, 174, 175, 176, 177, 178, 179, 180, 181, 182, 183, 184, 185, 186, 187, 188, 189, 190, 191, 192, 193, 194, 195, 196, 197, 198, 199, 200, 201, 202, 203, 204, 205, 206, 207, 208, 209, 210, 211, 212, 213, 214, 215, 216, 217, 218, 219, 220, 221, 222, 223, 224, 225, 226, 227, 228, 229, 230, 231, 232, 233, 234, 235, 236, 237, 238, 239, 240, 241, 242, 243, 244, 245, 246, 247, 248, 249, 250, 251, 252, 253, 254, 255, 256, 257, 258, 259, 260, 261, 262, 263, 264, 265, 266, 267, 268, 269, 270, 271, 272, 273, 274, 275, 276, 277, 278, 279, 280, 281, 282, 283, 284, 285, 286, 287, 288, 289, 290, 291, 292, 293, 294, 295, 296, 297, 298, 299, 300, 301, 302, 303, 304, 305, 306, 307, 308, 309, 310, 311, 312, 313, 314, 315, 316, 317, 318, 319, 320, 321, 322, 323, 324, 325, 326, 327, 328, 329, 330, 331, 332, 333, 334, 335, 336, 337, 338, 339, 340, 341, 342, 343, 344, 345, 346, 347, 348, 349, 350, 351, 352, 353, 354, 355, 356, 357, 358, 359, 360, 361, 362, 363, 364, 365, 366, 367, 368, 369, 370, 371, 372, 373, 374, 375, 376, 377, 378, 379, 380, 381, 382, 383, 384, 385, 386, 387, 388, 389, 390, 391, 392, 393, 394, 395, 396, 397, 398, 399, 400, 401, 402, 403, 404, 405, 406, 407, 408, 409, 410, 411, 412, 413, 414, 415, 416, 417, 418, 419, 420, 421, 422, 423, 424, 425, 426, 427, 428, 429, 430, 431, 432, 433, 434, 435, 436, 437, 438, 439, 440, 441, 442, 443, 444, 445, 446, 447, 448, 449, 450, 451, 452, 453, 454],
      "AcquisitionTime": ["135905.270000", "135906.760000", "135908.250000", "135909.740000", "135911.230000", "135912.720000", "135914.210000", "135915.700000", "135917.190000", "135918.680000", "135920.170000", "135921.660000", "135923.150000", "135924.640000", "135926.130000", "135927.620000", "135929.110000", "135930.600000", "135932.090000", "135933.580000", "135935.070000", "135936.560000", "135938.050000", "135939.540000", "135941.030000", "135942.520000", "135944.010000", "135945.500000", "135946.990000", "135948.480000", "135949.970000", "135951.460000", "135952.950000", "135954.440000", "135955.930000", "135957.420000", "135958.910000", "140000.400000", "140001.890000", "140003.380000", "140004.870000", "140006.360000", "140007.850000", "140009.340000", "140010.830000", "140012.320000", "140013.810000", "140015.300000", "140016.790000", "140018.280000", "140019.770000", "140021.260000", "140022.750000", "140024.240000", "140025.730000", "140027.220000", "140028.710000", "140030.200000", "140031.690000", "140033.180000", "140034.670000", "140036.160000", "140037.650000", "140039.140000", "140040.630000", "140042.120000", "140043.610000", "140045.100000", "140046.590000", "140048.080000", "140049.570000", "140051.060000", "140052.550000", "140054.040000", "140055.530000", "140057.020000", "140058.510000", "140100.000000", "140101.490000", "140102.980000", "140104.470000", "140105.960000", "140107.450000", "140108.940000", "140110.430000", "140111.920000", "140113.410000", "140114.900000", "140116.390000", "140117.880000", "140119.370000", "140120.860000", "140122.350000", "140123.840000", "140125.330000", "140126.820000", "140128.310000", "140129.800000", "140131.290000", "140132.780000", "140134.270000", "140135.760000", "140137.250000", "140138.740000", "140140.230000", "140141.720000", "140143.210000", "140144.700000", "140146.190000", "140147.680000", "140149.170000", "140150.660000", "140152.150000", "140153.640000", "140155.130000", "140156.620000", "140158.110000", "140159.600000", "140201.090000", "140202.580000", "140204.070000", "140205.560000", "140207.050000", "140208.540000", "140210.030000", "140211.520000", "140213.010000", "140214.500000", "140215.990000", "140217.480000", "140218.970000", "140220.460000", "140221.950000", "140223.440000", "140224.930000", "140226.420000", "140227.910000", "140229.400000", "140230.890000", "140232.380000", "140233.870000", "140235.360000", "140236.850000", "140238.340000", "140239.830000", "140241.320000", "140242.810000", "140244.300000", "140245.790000", "140247.280000", "140248.770000", "140250.260000", "140251.750000", "140253.240000", "140254.730000", "140256.220000", "140257.710000", "140259.200000", "140300.690000", "140302.180000", "140303.670000", "140305.160000", "140306.650000", "140308.140000", "140309.630000", "140311.120000", "140312.610000", "140314.100000", "140315.590000", "140317.080000", "140318.570000", "140320.060000", "140321.550000", "140323.040000", "140324.530000", "140326.020000", "140327.510000", "140329.000000", "140330.490000", "140331.980000", "140333.470000", "140334.960000", "140336.450000", "140337.940000", "140339.430000", "140340.920000", "140342.410000", "140343.900000", "140345.390000", "140346.880000", "140348.370000", "140349.860000", "140351.350000", "140352.840000", "140354.330000", "140355.820000", "140357.310000", "140358.800000", "140400.290000", "140401.780000", "140403.270000", "140404.760000", "140406.250000", "140407.740000", "140409.230000", "140410.720000", "140412.210000", "140413.700000", "140415.190000", "140416.680000", "140418.170000", "140419.660000", "140421.150000", "140422.640000", "140424.130000", "140425.620000", "140427.110000", "140428.600000", "140430.090000", "140431.580000", "140433.070000", "140434.560000", "140436.050000", "140437.540000", "140439.030000", "140440.520000", "140442.010000", "140443.500000", "140444.990000", "140446.480000", "140447.970000", "140449.460000", "140450.950000", "140452.440000", "140453.930000", "140455.420000", "140456.910000", "140458.400000", "140459.890000", "140501.380000", "140502.870000", "140504.360000", "140505.850000", "140507.340000", "140508.830000", "140510.320000", "140511.810000", "140513.300000", "140514.790000", "140516.280000", "140517.770000", "140519.260000", "140520.750000", "140522.240000", "140523.730000", "140525.220000", "140526.710000", "140528.200000", "140529.690000", "140531.180000", "140532.670000", "140534.160000", "140535.650000", "140537.140000", "140538.630000", "140540.120000", "140541.610000", "140543.100000", "140544.590000", "140546.080000", "140547.570000", "140549.060000", "140550.550000", "140552.040000", "140553.530000", "140555.020000", "140556.510000", "140558.000000", "140559.490000", "140600.980000", "140602.470000", "140603.960000", "140605.450000", "140606.940000", "140608.430000", "140609.920000", "140611.410000", "140612.900000", "140614.390000", "140615.880000", "140617.370000", "140618.860000", "140620.350000", "140621.840000", "140623.330000", "140624.820000", "140626.310000", "140627.800000", "140629.290000", "140630.780000", "140632.270000", "140633.760000", "140635.250000", "140636.740000", "140638.230000", "140639.720000", "140641.210000", "140642.700000", "140644.190000", "140645.680000", "140647.170000", "140648.660000", "140650.150000", "140651.640000", "140653.130000", "140654.620000", "140656.110000", "140657.600000", "140659.090000", "140700.580000", "140702.070000", "140703.560000", "140705.050000", "140706.540000", "140708.030000", "140709.520000", "140711.010000", "140712.500000", "140713.990000", "140715.480000", "140716.970000", "140718.460000", "140719.950000", "140721.440000", "140722.930000", "140724.420000", "140725.910000", "140727.400000", "140728.890000", "140730.380000", "140731.870000", "140733.360000", "140734.850000", "140736.340000", "140737.830000", "140739.320000", "140740.810000", "140742.300000", "140743.790000", "140745.280000", "140746.770000", "140748.260000", "140749.750000", "140751.240000", "140752.730000", "140754.220000", "140755.710000", "140757.200000", "140758.690000", "140800.180000", "140801.670000", "140803.160000", "140804.650000", "140806.140000", "140807.630000", "140809.120000", "140810.610000", "140812.100000", "140813.590000", "140815.080000", "140816.570000", "140818.060000", "140819.550000", "140821.040000", "140822.530000", "140824.020000", "140825.510000", "140827.000000", "140828.490000", "140829.980000", "140831.470000", "140832.960000", "140834.450000", "140835.940000", "140837.430000", "140838.920000", "140840.410000", "140841.900000", "140843.390000", "140844.880000", "140846.370000", "140847.860000", "140849.350000", "140850.840000", "140852.330000", "140853.820000", "140855.310000", "140856.800000", "140858.290000", "140859.780000", "140901.270000", "140902.760000", "140904.250000", "140905.740000", "140907.230000", "140908.720000", "140910.210000", "140911.700000", "140913.190000", "140914.680000", "140916.170000", "140917.660000", "140919.150000", "140920.640000", "140922.130000", "140923.620000", "140925.110000", "140926.600000", "140928.090000", "140929.580000", "140931.070000", "140932.560000", "140934.050000", "140935.540000", "140937.030000", "140938.520000", "140940.010000", "140941.500000", "140942.990000", "140944.480000", "140945.970000", "140947.460000", "140948.950000", "140950.440000", "140951.930000", "140953.420000", "140954.910000", "140956.400000", "140957.890000", "140959.380000", "141000.870000", "141002.360000", "141003.850000", "141005.340000", "141006.830000", "141008.320000", "141009.810000", "141011.300000", "141012.790000", "141014.280000", "141015.770000", "141017.260000", "141018.750000", "141020.240000"],
      "ContentTime": ["140037.264000", "140037.268000", "140037.271000", "140037.273000", "140037.276000", "140037.279000", "140037.282000", "140037.285000", "140037.288000", "140037.290000", "140037.293000", "140037.301000", "140037.304000", "140037.307000", "140037.309000", "140037.312000", "140037.315000", "140037.318000", "140037.320000", "140037.323000", "140037.326000", "140037.329000", "140037.332000", "140037.335000", "140037.337000", "140037.340000", "140037.343000", "140037.346000", "140037.349000", "140037.352000", "140037.354000", "140037.357000", "140037.360000", "140037.363000", "140037.366000", "140037.369000", "140037.371000", "140057.238000", "140057.241000", "140057.244000", "140057.247000", "140057.249000", "140057.252000", "140057.255000", "140057.258000", "140057.260000", "140057.263000", "140057.266000", "140057.269000", "140057.272000", "140057.274000", "140057.277000", "140057.280000", "140057.283000", "140057.286000", "140057.289000", "140057.291000", "140117.239000", "140117.242000", "140117.245000", "140117.247000", "140117.250000", "140117.253000", "140117.256000", "140117.259000", "140117.262000", "140117.276000", "140117.278000", "140117.281000", "140117.284000", "140117.287000", "140117.289000", "140117.292000", "140117.296000", "140117.299000", "140117.302000", "140117.305000", "140137.239000", "140137.242000", "140137.245000", "140137.247000", "140137.250000", "140137.253000", "140137.256000", "140137.259000", "140137.262000", "140137.264000", "140137.267000", "140137.270000", "140137.273000", "140137.276000", "140137.278000", "140137.281000", "140137.284000", "140137.287000", "140137.290000", "140137.293000", "140217.239000", "140217.242000", "140217.245000", "140217.247000", "140217.250000", "140217.253000", "140217.256000", "140217.259000", "140217.261000", "140217.264000", "140217.267000", "140217.270000", "140217.273000", "140217.276000", "140217.279000", "140217.282000", "140217.284000", "140217.287000", "140217.290000", "140217.293000", "140217.295000", "140217.298000", "140217.301000", "140217.304000", "140217.307000", "140217.310000", "140217.312000", "140217.315000", "140217.318000", "140217.321000", "140217.324000", "140257.238000", "140257.241000", "140257.244000", "140257.248000", "140257.251000", "140257.254000", "140257.257000", "140257.260000", "140257.262000", "140257.265000", "140257.268000", "140257.271000", "140257.274000", "140257.276000", "140257.279000", "140257.282000", "140257.285000", "140257.288000", "140257.290000", "140257.293000", "140257.296000", "140257.299000", "140257.302000", "140257.305000", "140257.307000", "140257.310000", "140337.239000", "140337.242000", "140337.245000", "140337.248000", "140337.251000", "140337.253000", "140337.256000", "140337.259000", "140337.262000", "140337.265000", "140337.268000", "140337.270000", "140337.273000", "140337.276000", "140337.279000", "140337.289000", "140337.292000", "140337.295000", "140337.298000", "140337.301000", "140337.304000", "140337.306000", "140337.309000", "140337.312000", "140337.315000", "140337.318000", "140337.320000", "140417.239000", "140417.242000", "140417.245000", "140417.248000", "140417.250000", "140417.253000", "140417.256000", "140417.259000", "140417.262000", "140417.265000", "140417.267000", "140417.270000", "140417.273000", "140417.276000", "140417.279000", "140417.282000", "140417.284000", "140417.287000", "140417.290000", "140417.293000", "140417.296000", "140417.298000", "140417.301000", "140417.304000", "140417.307000", "140417.310000", "140417.313000", "140457.238000", "140457.241000", "140457.244000", "140457.247000", "140457.249000", "140457.252000", "140457.255000", "140457.258000", "140457.261000", "140457.264000", "140457.267000", "140457.269000", "140457.272000", "140457.275000", "140457.278000", "140457.281000", "140457.284000", "140457.286000", "140457.289000", "140457.292000", "140457.295000", "140457.298000", "140457.301000", "140457.303000", "140457.306000", "140457.309000", "140457.312000", "140537.238000", "140537.241000", "140537.244000", "140537.247000", "140537.250000", "140537.252000", "140537.255000", "140537.258000", "140537.261000", "140537.264000", "140537.267000", "140537.270000", "140537.272000", "140537.275000", "140537.278000", "140537.281000", "140537.284000", "140537.287000", "140537.289000", "140537.304000", "140537.307000", "140537.310000", "140537.313000", "140537.315000", "140537.318000", "140537.321000", "140537.324000", "140617.239000", "140617.242000", "140617.245000", "140617.248000", "140617.250000", "140617.253000", "140617.256000", "140617.259000", "140617.262000", "140617.265000", "140617.268000", "140617.271000", "140617.273000", "140617.276000", "140617.279000", "140617.282000", "140617.285000", "140617.288000", "140617.290000", "140617.293000", "140617.296000", "140617.299000", "140617.302000", "140617.305000", "140617.307000", "140617.310000", "140617.313000", "140657.239000", "140657.242000", "140657.245000", "140657.248000", "140657.250000", "140657.253000", "140657.256000", "140657.259000", "140657.262000", "140657.265000", "140657.267000", "140657.270000", "140657.273000", "140657.276000", "140657.279000", "140657.282000", "140657.284000", "140657.287000", "140657.290000", "140657.293000", "140657.296000", "140657.299000", "140657.302000", "140657.304000", "140657.307000", "140657.310000", "140657.313000", "140737.239000", "140737.242000", "140737.245000", "140737.248000", "140737.250000", "140737.253000", "140737.256000", "140737.259000", "140737.262000", "140737.265000", "140737.268000", "140737.270000", "140737.273000", "140737.276000", "140737.279000", "140737.282000", "140737.285000", "140737.287000", "140737.290000", "140737.293000", "140737.296000", "140737.299000", "140737.302000", "140737.305000", "140737.308000", "140737.311000", "140757.238000", "140757.241000", "140757.244000", "140757.247000", "140757.250000", "140757.252000", "140757.255000", "140757.258000", "140757.261000", "140757.264000", "140757.267000", "140757.270000", "140757.272000", "140757.275000", "140837.239000", "140837.242000", "140837.245000", "140837.248000", "140837.250000", "140837.253000", "140837.256000", "140837.259000", "140837.262000", "140837.265000", "140837.268000", "140837.270000", "140837.273000", "140837.276000", "140837.279000", "140837.282000", "140837.285000", "140837.287000", "140837.290000", "140837.293000", "140837.296000", "140837.299000", "140837.302000", "140837.305000", "140837.307000", "140837.310000", "140837.313000", "140917.239000", "140917.242000", "140917.245000", "140917.247000", "140917.250000", "140917.253000", "140917.256000", "140917.259000", "140917.262000", "140917.265000", "140917.267000", "140917.270000", "140917.273000", "140917.276000", "140917.279000", "140917.281000", "140917.284000", "140917.287000", "140917.290000", "140917.293000", "140917.296000", "140917.298000", "140917.301000", "140917.304000", "140917.307000", "140917.310000", "140917.313000", "140957.238000", "140957.241000", "140957.244000", "140957.247000", "140957.250000", "140957.253000", "140957.255000", "140957.258000", "140957.261000", "140957.264000", "140957.267000", "140957.270000", "140957.272000", "140957.275000", "140957.278000", "140957.281000", "140957.284000", "140957.287000", "140957.289000", "140957.292000", "140957.295000", "140957.298000", "140957.301000", "140957.304000", "140957.306000", "140957.310000", "141022.825000", "141022.828000", "141022.831000", "141022.834000", "141022.837000", "141022.840000", "141022.843000", "141022.845000", "141022.848000", "141022.851000", "141022.854000", "141022.857000", "141022.860000", "141022.863000", "141022.866000", "141022.868000", "141022.871000", "141022.874000"],
