{
  "AcquisitionMatrixPE": 104,
  "AcquisitionNumber": 1,
  "AcquisitionTime": "11:27:55.102500",
  "BandwidthPerPixelPhaseEncode": 17.17,
  "BaseResolution": 104,
  "BodyPartExamined": "BRAIN",
  "CoilString": "HC1-7;NC1_2",
  "ConsistencyInfo": "N4_VE11C_LATEST_20160120",
  "ConversionSoftware": "dcm2niix",
  "ConversionSoftwareVersion": "v1.0.20190720  (JP2:OpenJPEG) GCC7.3.0",
  "DerivedVendorReportedEchoSpacing": 0.000560011,
  "DeviceSerialNumber": "167006",
  "DwellTime": 2.1e-06,
  "EchoTime": 0.037,
  "EchoTrainLength": 104,
  "EffectiveEchoSpacing": 0.000560011,
  "FlipAngle": 52,
  "ImageComments": "Unaliased_MB4_PE3_LB",
  "ImageOrientationPatientDICOM": [0.999768, -0.00395671, 0.021158, 0.0141349, 0.862002, -0.506708],
  "ImageType": [
    "ORIGINAL",
    "PRIMARY",
    "M",
    "MB",
    "ND",
    "MOSAIC"
],
  "ImagingFrequency": 123.259,
  "InPlanePhaseEncodingDirectionDICOM": "COL",
  "InstitutionAddress": "Chemin_Queen-Mary_4565_Montreal_District_CA_H3W_1W5",
  "InstitutionName": "IUGM",
  "InstitutionalDepartmentName": "Department",
  "MRAcquisitionType": "2D",
  "MagneticFieldStrength": 3,
  "Manufacturer": "Siemens",
  "ManufacturersModelName": "Prisma_fit",
  "Modality": "MR",
  "MultibandAccelerationFactor": 4,
  "PartialFourier": 1,
  "PatientPosition": "HFS",
  "PercentPhaseFOV": 100,
  "PhaseEncodingDirection": "j",
  "PhaseEncodingSteps": 104,
  "PhaseResolution": 1,
  "PixelBandwidth": 2290,
  "ProcedureStepDescription": "video_friends",
  "ProtocolName": "func_task-friends-s01e24a",
  "PulseSequenceDetails": "%CustomerSeq%_cmrr_mbep2d_bold",
  "ReceiveCoilActiveElements": "HC1-7;NC1,2",
  "ReceiveCoilName": "HeadNeck_64",
  "ReconMatrixPE": 104,
  "RepetitionTime": 1.49,
  "SAR": 0.0351012,
  "ScanOptions": "FS",
  "ScanningSequence": "EP",
  "SequenceName": "epfid2d1_104",
  "SequenceVariant": "SK_SS",
  "SeriesDescription": "func_task-friends-s01e24a",
  "SeriesNumber": 16,
  "ShimSetting": [626, -7201, -8871, 399, -5, -159, 42, -5],
  "SliceThickness": 2,
  "SliceTiming": [0, 0.7825, 0.0975, 0.88, 0.195, 0.98, 0.2925, 1.0775, 0.39, 1.175, 0.49, 1.2725, 0.5875, 1.37, 0.685, 0, 0.7825, 0.0975, 0.88, 0.195, 0.98, 0.2925, 1.0775, 0.39, 1.175, 0.49, 1.2725, 0.5875, 1.37, 0.685, 0, 0.7825, 0.0975, 0.88, 0.195, 0.98, 0.2925, 1.0775, 0.39, 1.175, 0.49, 1.2725, 0.5875, 1.37, 0.685, 0, 0.7825, 0.0975, 0.88, 0.195, 0.98, 0.2925, 1.0775, 0.39, 1.175, 0.49, 1.2725, 0.5875, 1.37, 0.685],
  "SoftwareVersions": "syngo_MR_E11",
  "SpacingBetweenSlices": 2,
  "StationName": "MRC35049",
  "TaskName": "friends",
  "TotalReadoutTime": 0.0576811,
  "TxRefAmp": 247.64,
  "WipMemBlock": "793f8b46-c8e3-434d-be76-b3cb34b30d2e||Sequence: R016 ve11c/master r/e634e98; Dec 19 2017 11:00:25 by eja",
  "dcmmeta_affine": [
    [-1.9995366334915161, 0.028269760310649872, 0.03246663883328438, 101.31327819824219],
    [0.00791342556476593, 1.7240039110183716, -1.0137789249420166, -60.61500549316406],
    [0.042315948754549026, 1.0134155750274658, 1.723716378211975, -99.21287536621094],
    [0.0, 0.0, 0.0, 1.0]
],
  "dcmmeta_reorient_transform": [
    [0.0, -1.0, 0.0, 103.0],
    [1.0, 0.0, 0.0, 0.0],
    [0.0, 0.0, 1.0, 0.0],
    [0.0, 0.0, 0.0, 1.0]
],
  "dcmmeta_shape": [104, 104, 60, 515],
  "dcmmeta_slice_dim": 2,
  "dcmmeta_version": 0.6,
  "global": {
    "const": {
      "AcquisitionMatrix": [104, 0, 0, 104],
      "AngioFlag": "N",
      "BitsAllocated": 16,
      "BitsStored": 16,
      "BodyPartExamined": "BRAIN",
      "Columns": 832,
      "EchoNumbers": 1,
      "EchoTime": 37.0,
      "EchoTrainLength": 104,
      "FlipAngle": 52.0,
      "HighBit": 15,
      "ImageOrientationPatient": [0.99976831542243, -0.0039567125553, 0.02115797493043, 0.01413487972835, 0.86200198095396, -0.5067077954862],
      "ImagePositionPatient": [-842.34658894349, -741.61435880326, 358.64919981743],
      "ImageType": [
        "ORIGINAL",
        "PRIMARY",
        "M",
        "MB",
        "ND",
        "MOSAIC"
],
      "ImagedNucleus": "1H",
      "ImagingFrequency": 123.259156,
      "InPlanePhaseEncodingDirection": "COL",
      "MRAcquisitionType": "2D",
      "MagneticFieldStrength": 3.0,
      "Manufacturer": "SIEMENS",
      "ManufacturerModelName": "Prisma_fit",
      "Modality": "MR",
      "NumberOfAverages": 1.0,
      "NumberOfPhaseEncodingSteps": 104,
      "PercentPhaseFieldOfView": 100.0,
      "PercentSampling": 100.0,
      "PerformedProcedureStepStartTime": "102420.784000",
      "PhotometricInterpretation": "MONOCHROME2",
      "PixelBandwidth": 2290.0,
      "PixelRepresentation": 0,
      "PixelSpacing": [2.0, 2.0],
      "ProtocolName": "func_task-friends-s01e24a",
      "RepetitionTime": 1490.0,
      "Rows": 832,
      "SAR": 0.03510116893811,
      "SamplesPerPixel": 1,
      "ScanOptions": "FS",
      "ScanningSequence": "EP",
      "SequenceName": "epfid2d1_104",
      "SequenceVariant": [
        "SK",
        "SS"
],
      "SeriesDescription": "func_task-friends-s01e24a",
      "SeriesNumber": 16,
      "SeriesTime": "112909.729000",
      "SliceLocation": -53.137671796999,
      "SliceThickness": 2.0,
      "SmallestImagePixelValue": 0,
      "SoftwareVersions": "syngo MR E11",
      "SpacingBetweenSlices": 1.9999999705829,
      "SpecificCharacterSet": "ISO_IR 100",
      "StudyID": "1",
      "StudyTime": "102420.723000",
      "TransmitCoilName": "Body",
      "VariableFlipAngleFlag": "N",
      "WindowCenterWidthExplanation": "Algo1",
      "dBdt": 0.0},
    "slices": {}
  },
  "time": {
    "samples": {
      "AcquisitionNumber": [1, 2, 3, 4, 5, 6, 7, 8, 9, 10, 11, 12, 13, 14, 15, 16, 17, 18, 19, 20, 21, 22, 23, 24, 25, 26, 27, 28, 29, 30, 31, 32, 33, 34, 35, 36, 37, 38, 39, 40, 41, 42, 43, 44, 45, 46, 47, 48, 49, 50, 51, 52, 53, 54, 55, 56, 57, 58, 59, 60, 61, 62, 63, 64, 65, 66, 67, 68, 69, 70, 71, 72, 73, 74, 75, 76, 77, 78, 79, 80, 81, 82, 83, 84, 85, 86, 87, 88, 89, 90, 91, 92, 93, 94, 95, 96, 97, 98, 99, 100, 101, 102, 103, 104, 105, 106, 107, 108, 109, 110, 111, 112, 113, 114, 115, 116, 117, 118, 119, 120, 121, 122, 123, 124, 125, 126, 127, 128, 129, 130, 131, 132, 133, 134, 135, 136, 137, 138, 139, 140, 141, 142, 143, 144, 145, 146, 147, 148, 149, 150, 151, 152, 153, 154, 155, 156, 157, 158, 159, 160, 161, 162, 163, 164, 165, 166, 167, 168, 169, 170, 171, 172, 173, 174, 175, 176, 177, 178, 179, 180, 181, 182, 183, 184, 185, 186, 187, 188, 189, 190, 191, 192, 193, 194, 195, 196, 197, 198, 199, 200, 201, 202, 203, 204, 205, 206, 207, 208, 209, 210, 211, 212, 213, 214, 215, 216, 217, 218, 219, 220, 221, 222, 223, 224, 225, 226, 227, 228, 229, 230, 231, 232, 233, 234, 235, 236, 237, 238, 239, 240, 241, 242, 243, 244, 245, 246, 247, 248, 249, 250, 251, 252, 253, 254, 255, 256, 257, 258, 259, 260, 261, 262, 263, 264, 265, 266, 267, 268, 269, 270, 271, 272, 273, 274, 275, 276, 277, 278, 279, 280, 281, 282, 283, 284, 285, 286, 287, 288, 289, 290, 291, 292, 293, 294, 295, 296, 297, 298, 299, 300, 301, 302, 303, 304, 305, 306, 307, 308, 309, 310, 311, 312, 313, 314, 315, 316, 317, 318, 319, 320, 321, 322, 323, 324, 325, 326, 327, 328, 329, 330, 331, 332, 333, 334, 335, 336, 337, 338, 339, 340, 341, 342, 343, 344, 345, 346, 347, 348, 349, 350, 351, 352, 353, 354, 355, 356, 357, 358, 359, 360, 361, 362, 363, 364, 365, 366, 367, 368, 369, 370, 371, 372, 373, 374, 375, 376, 377, 378, 379, 380, 381, 382, 383, 384, 385, 386, 387, 388, 389, 390, 391, 392, 393, 394, 395, 396, 397, 398, 399, 400, 401, 402, 403, 404, 405, 406, 407, 408, 409, 410, 411, 412, 413, 414, 415, 416, 417, 418, 419, 420, 421, 422, 423, 424, 425, 426, 427, 428, 429, 430, 431, 432, 433, 434, 435, 436, 437, 438, 439, 440, 441, 442, 443, 444, 445, 446, 447, 448, 449, 450, 451, 452, 453, 454, 455, 456, 457, 458, 459, 460, 461, 462, 463, 464, 465, 466, 467, 468, 469, 470, 471, 472, 473, 474, 475, 476, 477, 478, 479, 480, 481, 482, 483, 484, 485, 486, 487, 488, 489, 490, 491, 492, 493, 494, 495, 496, 497, 498, 499, 500, 501, 502, 503, 504, 505, 506, 507, 508, 509, 510, 511, 512, 513, 514, 515],
      "AcquisitionTime": ["112755.102500", "112756.592500", "112758.082500", "112759.572500", "112801.062500", "112802.552500", "112804.042500", "112805.532500", "112807.022500", "112808.512500", "112810.002500", "112811.492500", "112812.982500", "112814.472500", "112815.962500", "112817.452500", "112818.942500", "112820.432500", "112821.922500", "112823.412500", "112824.902500", "112826.392500", "112827.882500", "112829.372500", "112830.862500", "112832.352500", "112833.842500", "112835.332500", "112836.822500", "112838.312500", "112839.802500", "112841.292500", "112842.782500", "112844.272500", "112845.762500", "112847.252500", "112848.742500", "112850.232500", "112851.722500", "112853.212500", "112854.702500", "112856.192500", "112857.682500", "112859.172500", "112900.662500", "112902.152500", "112903.642500", "112905.132500", "112906.622500", "112908.112500", "112909.602500", "112911.092500", "112912.582500", "112914.072500", "112915.562500", "112917.052500", "112918.542500", "112920.032500", "112921.522500", "112923.012500", "112924.502500", "112925.992500", "112927.482500", "112928.972500", "112930.462500", "112931.952500", "112933.442500", "112934.932500", "112936.422500", "112937.912500", "112939.402500", "112940.892500", "112942.382500", "112943.872500", "112945.362500", "112946.852500", "112948.342500", "112949.832500", "112951.322500", "112952.812500", "112954.302500", "112955.792500", "112957.282500", "112958.772500", "113000.262500", "113001.752500", "113003.242500", "113004.732500", "113006.222500", "113007.712500", "113009.202500", "113010.692500", "113012.182500", "113013.672500", "113015.162500", "113016.652500", "113018.142500", "113019.632500", "113021.122500", "113022.612500", "113024.102500", "113025.592500", "113027.082500", "113028.572500", "113030.062500", "113031.552500", "113033.042500", "113034.532500", "113036.022500", "113037.512500", "113039.002500", "113040.492500", "113041.982500", "113043.472500", "113044.962500", "113046.452500", "113047.942500", "113049.432500", "113050.922500", "113052.412500", "113053.902500", "113055.392500", "113056.882500", "113058.372500", "113059.862500", "113101.352500", "113102.842500", "113104.332500", "113105.822500", "113107.312500", "113108.802500", "113110.292500", "113111.782500", "113113.272500", "113114.762500", "113116.252500", "113117.742500", "113119.232500", "113120.722500", "113122.212500", "113123.702500", "113125.192500", "113126.682500", "113128.172500", "113129.662500", "113131.152500", "113132.642500", "113134.132500", "113135.622500", "113137.112500", "113138.602500", "113140.092500", "113141.582500", "113143.072500", "113144.562500", "113146.052500", "113147.542500", "113149.032500", "113150.522500", "113152.012500", "113153.502500", "113154.992500", "113156.482500", "113157.972500", "113159.462500", "113200.952500", "113202.442500", "113203.932500", "113205.422500", "113206.912500", "113208.402500", "113209.892500", "113211.382500", "113212.872500", "113214.362500", "113215.852500", "113217.342500", "113218.832500", "113220.322500", "113221.812500", "113223.302500", "113224.792500", "113226.282500", "113227.772500", "113229.262500", "113230.752500", "113232.242500", "113233.732500", "113235.222500", "113236.712500", "113238.202500", "113239.692500", "113241.182500", "113242.672500", "113244.162500", "113245.652500", "113247.142500", "113248.632500", "113250.122500", "113251.612500", "113253.102500", "113254.592500", "113256.082500", "113257.572500", "113259.062500", "113300.552500", "113302.042500", "113303.532500", "113305.022500", "113306.512500", "113308.002500", "113309.492500", "113310.982500", "113312.472500", "113313.962500", "113315.452500", "113316.942500", "113318.432500", "113319.922500", "113321.412500", "113322.902500", "113324.392500", "113325.882500", "113327.372500", "113328.862500", "113330.352500", "113331.842500", "113333.332500", "113334.822500", "113336.312500", "113337.802500", "113339.292500", "113340.782500", "113342.272500", "113343.762500", "113345.252500", "113346.742500", "113348.232500", "113349.722500", "113351.212500", "113352.702500", "113354.192500", "113355.682500", "113357.172500", "113358.662500", "113400.152500", "113401.642500", "113403.132500", "113404.622500", "113406.112500", "113407.602500", "113409.092500", "113410.582500", "113412.072500", "113413.562500", "113415.052500", "113416.542500", "113418.032500", "113419.522500", "113421.012500", "113422.502500", "113423.992500", "113425.482500", "113426.972500", "113428.462500", "113429.952500", "113431.442500", "113432.932500", "113434.422500", "113435.912500", "113437.402500", "113438.892500", "113440.382500", "113441.872500", "113443.362500", "113444.852500", "113446.342500", "113447.832500", "113449.322500", "113450.812500", "113452.302500", "113453.792500", "113455.282500", "113456.772500", "113458.262500", "113459.752500", "113501.242500", "113502.732500", "113504.222500", "113505.712500", "113507.202500", "113508.692500", "113510.182500", "113511.672500", "113513.162500", "113514.652500", "113516.142500", "113517.632500", "113519.122500", "113520.612500", "113522.102500", "113523.592500", "113525.082500", "113526.572500", "113528.062500", "113529.552500", "113531.042500", "113532.532500", "113534.022500", "113535.512500", "113537.002500", "113538.492500", "113539.982500", "113541.472500", "113542.962500", "113544.452500", "113545.942500", "113547.432500", "113548.922500", "113550.412500", "113551.902500", "113553.392500", "113554.882500", "113556.372500", "113557.862500", "113559.352500", "113600.842500", "113602.332500", "113603.822500", "113605.312500", "113606.802500", "113608.292500", "113609.782500", "113611.272500", "113612.762500", "113614.252500", "113615.742500", "113617.232500", "113618.722500", "113620.212500", "113621.702500", "113623.192500", "113624.682500", "113626.172500", "113627.662500", "113629.152500", "113630.642500", "113632.132500", "113633.622500", "113635.112500", "113636.602500", "113638.092500", "113639.582500", "113641.072500", "113642.562500", "113644.052500", "113645.542500", "113647.032500", "113648.522500", "113650.012500", "113651.502500", "113652.992500", "113654.482500", "113655.972500", "113657.462500", "113658.952500", "113700.442500", "113701.932500", "113703.422500", "113704.912500", "113706.402500", "113707.892500", "113709.382500", "113710.872500", "113712.362500", "113713.852500", "113715.342500", "113716.832500", "113718.322500", "113719.812500", "113721.302500", "113722.792500", "113724.282500", "113725.772500", "113727.262500", "113728.752500", "113730.242500", "113731.732500", "113733.222500", "113734.712500", "113736.202500", "113737.692500", "113739.182500", "113740.672500", "113742.162500", "113743.652500", "113745.142500", "113746.632500", "113748.122500", "113749.612500", "113751.102500", "113752.592500", "113754.082500", "113755.572500", "113757.062500", "113758.552500", "113800.042500", "113801.532500", "113803.022500", "113804.512500", "113806.002500", "113807.492500", "113808.982500", "113810.472500", "113811.962500", "113813.452500", "113814.942500", "113816.432500", "113817.922500", "113819.412500", "113820.902500", "113822.392500", "113823.882500", "113825.372500", "113826.862500", "113828.352500", "113829.842500", "113831.332500", "113832.822500", "113834.312500", "113835.802500", "113837.292500", "113838.782500", "113840.272500", "113841.762500", "113843.252500", "113844.742500", "113846.232500", "113847.722500", "113849.212500", "113850.702500", "113852.192500", "113853.682500", "113855.172500", "113856.662500", "113858.152500", "113859.642500", "113901.132500", "113902.622500", "113904.112500", "113905.602500", "113907.092500", "113908.582500", "113910.072500", "113911.562500", "113913.052500", "113914.542500", "113916.032500", "113917.522500", "113919.012500", "113920.502500", "113921.992500", "113923.482500", "113924.972500", "113926.462500", "113927.952500", "113929.442500", "113930.932500", "113932.422500", "113933.912500", "113935.402500", "113936.892500", "113938.382500", "113939.872500", "113941.362500", "113942.852500", "113944.342500", "113945.832500", "113947.322500", "113948.812500", "113950.302500", "113951.792500", "113953.282500", "113954.772500", "113956.262500", "113957.752500", "113959.242500", "114000.732500", "114002.222500", "114003.712500", "114005.202500", "114006.692500", "114008.182500", "114009.672500", "114011.162500", "114012.652500", "114014.142500", "114015.632500", "114017.122500", "114018.612500", "114020.102500", "114021.592500", "114023.082500", "114024.572500", "114026.062500", "114027.552500", "114029.042500", "114030.532500", "114032.022500", "114033.512500", "114035.002500", "114036.492500", "114037.982500", "114039.472500", "114040.962500"],
      "ContentTime": ["112909.732000", "112909.735000", "112909.738000", "112909.741000", "112909.749000", "112909.758000", "112909.761000", "112909.763000", "112909.766000", "112909.769000", "112909.772000", "112909.775000", "112909.778000", "112909.780000", "112909.783000", "112909.786000", "112909.789000", "112909.792000", "112909.795000", "112909.797000", "112929.695000", "112929.698000", "112929.701000", "112929.703000", "112929.706000", "112929.709000", "112929.712000", "112929.715000", "112929.717000", "112929.720000", "112929.723000", "112929.726000", "112929.729000", "112929.731000", "112929.734000", "112929.737000", "112929.740000", "112929.742000", "112929.745000", "112929.748000", "112949.695000", "112949.698000", "112949.701000", "112949.704000", "112949.707000", "112949.710000", "112949.713000", "112949.715000", "112949.718000", "112949.721000", "112949.724000", "112949.727000", "112949.730000", "112949.732000", "112949.735000", "112949.738000", "112949.741000", "112949.744000", "112949.746000", "112949.749000", "112949.752000", "113009.695000", "113009.698000", "113009.701000", "113009.703000", "113009.706000", "113009.709000", "113009.712000", "113009.715000", "113009.717000", "113009.720000", "113009.723000", "113009.726000", "113009.729000", "113009.731000", "113009.734000", "113009.737000", "113009.740000", "113009.743000", "113009.745000", "113009.748000", "113029.695000", "113029.698000", "113029.700000", "113029.703000", "113029.706000", "113029.709000", "113029.712000", "113029.715000", "113029.717000", "113029.720000", "113029.723000", "113029.726000", "113029.729000", "113029.731000", "113029.734000", "113029.737000", "113029.740000", "113029.743000", "113029.746000", "113029.748000", "113109.695000", "113109.698000", "113109.701000", "113109.703000", "113109.706000", "113109.709000", "113109.712000", "113109.715000", "113109.718000", "113109.720000", "113109.723000", "113109.726000", "113109.729000", "113109.732000", "113109.735000", "113109.737000", "113109.740000", "113109.743000", "113109.755000", "113109.758000", "113109.760000", "113109.763000", "113109.774000", "113109.777000", "113109.779000", "113109.782000", "113109.785000", "113109.788000", "113109.791000", "113149.695000", "113149.698000", "113149.701000", "113149.703000", "113149.706000", "113149.709000", "113149.712000", "113149.715000", "113149.717000", "113149.720000", "113149.723000", "113149.726000", "113149.729000", "113149.732000", "113149.734000", "113149.737000", "113149.740000", "113149.743000", "113149.746000", "113149.749000", "113149.751000", "113149.754000", "113149.757000", "113149.760000", "113149.763000", "113149.765000", "113149.768000", "113209.695000", "113209.698000", "113209.701000", "113209.703000", "113209.706000", "113209.709000", "113209.712000", "113209.715000", "113209.718000", "113209.720000", "113209.723000", "113209.726000", "113209.729000", "113249.695000", "113249.698000", "113249.701000", "113249.704000", "113249.706000", "113249.709000", "113249.712000", "113249.715000", "113249.718000", "113249.721000", "113249.723000", "113249.726000", "113249.729000", "113249.732000", "113249.735000", "113249.737000", "113249.740000", "113249.743000", "113249.746000", "113249.749000", "113249.752000", "113249.754000", "113249.757000", "113249.760000", "113249.763000", "113249.766000", "113249.769000", "113329.695000", "113329.698000", "113329.701000", "113329.704000", "113329.706000", "113329.709000", "113329.712000", "113329.715000", "113329.718000", "113329.721000", "113329.723000", "113329.726000", "113329.729000", "113329.732000", "113329.735000", "113329.738000", "113329.740000", "113329.743000", "113329.746000", "113329.749000", "113329.752000", "113329.754000", "113329.757000", "113329.760000", "113329.763000", "113329.766000", "113329.769000", "113409.695000", "113409.698000", "113409.701000", "113409.704000", "113409.706000", "113409.709000", "113409.712000", "113409.715000", "113409.718000", "113409.721000", "113409.724000", "113409.726000", "113409.729000", "113409.732000", "113409.735000", "113409.738000", "113409.741000", "113409.744000", "113409.746000", "113409.749000", "113409.752000", "113409.755000", "113409.758000", "113409.760000", "113409.763000", "113409.766000", "113409.769000", "113449.695000", "113449.698000", "113449.701000", "113449.704000", "113449.706000", "113449.709000", "113449.712000", "113449.715000", "113449.718000", "113449.721000", "113449.723000", "113449.726000", "113449.729000", "113449.732000", "113449.735000", "113449.738000", "113449.741000", "113449.744000", "113449.747000", "113449.750000", "113449.754000", "113449.757000", "113449.760000", "113449.763000", "113449.766000", "113449.769000", "113529.695000", "113529.698000", "113529.701000", "113529.703000", "113529.706000", "113529.709000", "113529.712000", "113529.715000", "113529.718000", "113529.721000", "113529.724000", "113529.727000", "113529.730000", "113529.732000", "113529.735000", "113529.738000", "113529.741000", "113529.744000", "113529.747000", "113529.749000", "113529.752000", "113529.755000", "113529.758000", "113529.761000", "113529.763000", "113529.766000", "113529.769000", "113609.695000", "113609.698000", "113609.701000", "113609.704000", "113609.714000", "113609.717000", "113609.719000", "113609.722000", "113609.725000", "113609.728000", "113609.731000", "113609.734000", "113609.737000", "113609.739000", "113609.742000", "113609.745000", "113609.748000", "113609.751000", "113609.754000", "113609.757000", "113609.759000", "113609.762000", "113609.765000", "113609.768000", "113609.771000", "113609.774000", "113609.777000", "113649.695000", "113649.698000", "113649.701000", "113649.704000", "113649.706000", "113649.709000", "113649.712000", "113649.715000", "113649.718000", "113649.721000", "113649.723000", "113649.726000", "113649.729000", "113649.732000", "113649.735000", "113649.738000", "113649.741000", "113649.744000", "113649.746000", "113649.749000", "113649.752000", "113649.755000", "113649.758000", "113649.761000", "113649.763000", "113649.766000", "113649.769000", "113729.695000", "113729.698000", "113729.701000", "113729.704000", "113729.707000", "113729.709000", "113729.712000", "113729.715000", "113729.718000", "113729.721000", "113729.724000", "113729.726000", "113729.729000", "113729.732000", "113729.735000", "113729.738000", "113729.741000", "113729.743000", "113729.746000", "113729.749000", "113729.752000", "113729.755000", "113729.758000", "113729.761000", "113729.763000", "113729.766000", "113729.769000", "113809.695000", "113809.698000", "113809.701000", "113809.704000", "113809.706000", "113809.709000", "113809.712000", "113809.715000", "113809.718000", "113809.721000", "113809.724000", "113809.726000", "113809.729000", "113809.732000", "113809.735000", "113809.738000", "113809.741000", "113809.743000", "113809.746000", "113809.749000", "113809.752000", "113809.755000", "113809.758000", "113809.761000", "113809.763000", "113809.766000", "113809.769000", "113849.695000", "113849.698000", "113849.701000", "113849.704000", "113849.707000", "113849.709000", "113849.712000", "113849.715000", "113849.718000", "113849.721000", "113849.724000", "113849.726000", "113849.729000", "113849.732000", "113849.735000", "113849.738000", "113849.741000", "113849.744000", "113849.746000", "113849.749000", "113849.752000", "113849.755000", "113849.758000", "113849.761000", "113849.764000", "113849.766000", "113849.769000", "113929.695000", "113929.698000", "113929.701000", "113929.704000", "113929.707000", "113929.709000", "113929.712000", "113929.715000", "113929.718000", "113929.721000", "113929.724000", "113929.726000", "113929.729000", "113929.732000", "113929.735000", "113929.739000", "113929.742000", "113929.744000", "113929.747000", "113929.750000", "113929.753000", "113929.756000", "113929.759000", "113929.762000", "113929.764000", "113929.767000", "114009.695000", "114009.698000", "114009.701000", "114009.703000", "114009.706000", "114009.709000", "114009.712000", "114009.715000", "114009.718000", "114009.721000", "114009.724000", "114009.727000", "114009.730000", "114009.733000", "114009.735000", "114009.738000", "114009.741000", "114009.744000", "114009.747000", "114009.750000", "114009.752000", "114009.755000", "114009.758000", "114009.761000", "114009.764000", "114009.767000", "114009.770000", "114042.920000", "114042.924000", "114042.926000", "114042.929000", "114042.932000", "114042.935000", "114042.938000", "114042.941000", "114042.944000", "114042.947000", "114042.949000", "114042.952000", "114042.955000", "114042.958000", "114042.961000", "114042.964000", "114042.968000", "114042.971000", "114042.974000", "114042.977000", "114042.980000", "114042.983000", "114042.986000"],
