{
  "AcquisitionMatrixPE": 104,
  "AcquisitionNumber": 1,
  "AcquisitionTime": "10:51:35.665000",
  "BandwidthPerPixelPhaseEncode": 17.17,
  "BaseResolution": 104,
  "BodyPartExamined": "BRAIN",
  "CoilString": "HC1-7;NC1_2",
  "ConsistencyInfo": "N4_VE11C_LATEST_20160120",
  "ConversionSoftware": "dcm2niix",
  "ConversionSoftwareVersion": "v1.0.20190720  (JP2:OpenJPEG) GCC7.3.0",
  "DerivedVendorReportedEchoSpacing": 0.000560011,
  "DeviceSerialNumber": "167006",
  "DwellTime": 2.1e-06,
  "EchoTime": 0.037,
  "EchoTrainLength": 104,
  "EffectiveEchoSpacing": 0.000560011,
  "FlipAngle": 52,
  "ImageComments": "Unaliased_MB4_PE3_LB",
  "ImageOrientationPatientDICOM": [0.999768, -0.00395671, 0.021158, 0.0141349, 0.862002, -0.506708],
  "ImageType": [
    "ORIGINAL",
    "PRIMARY",
    "M",
    "MB",
    "ND",
    "MOSAIC"
],
  "ImagingFrequency": 123.259,
  "InPlanePhaseEncodingDirectionDICOM": "COL",
  "InstitutionAddress": "Chemin_Queen-Mary_4565_Montreal_District_CA_H3W_1W5",
  "InstitutionName": "IUGM",
  "InstitutionalDepartmentName": "Department",
  "MRAcquisitionType": "2D",
  "MagneticFieldStrength": 3,
  "Manufacturer": "Siemens",
  "ManufacturersModelName": "Prisma_fit",
  "Modality": "MR",
  "MultibandAccelerationFactor": 4,
  "PartialFourier": 1,
  "PatientPosition": "HFS",
  "PercentPhaseFOV": 100,
  "PhaseEncodingDirection": "j",
  "PhaseEncodingSteps": 104,
  "PhaseResolution": 1,
  "PixelBandwidth": 2290,
  "ProcedureStepDescription": "video_friends",
  "ProtocolName": "func_task-friends-s01e22b",
  "PulseSequenceDetails": "%CustomerSeq%_cmrr_mbep2d_bold",
  "ReceiveCoilActiveElements": "HC1-7;NC1,2",
  "ReceiveCoilName": "HeadNeck_64",
  "ReconMatrixPE": 104,
  "RepetitionTime": 1.49,
  "SAR": 0.0350895,
  "ScanOptions": "FS",
  "ScanningSequence": "EP",
  "SequenceName": "epfid2d1_104",
  "SequenceVariant": "SK_SS",
  "SeriesDescription": "func_task-friends-s01e22b",
  "SeriesNumber": 10,
  "ShimSetting": [626, -7201, -8871, 399, -5, -159, 42, -5],
  "SliceThickness": 2,
  "SliceTiming": [0, 0.7825, 0.0975, 0.88, 0.195, 0.98, 0.2925, 1.0775, 0.39, 1.175, 0.49, 1.2725, 0.5875, 1.37, 0.685, 0, 0.7825, 0.0975, 0.88, 0.195, 0.98, 0.2925, 1.0775, 0.39, 1.175, 0.49, 1.2725, 0.5875, 1.37, 0.685, 0, 0.7825, 0.0975, 0.88, 0.195, 0.98, 0.2925, 1.0775, 0.39, 1.175, 0.49, 1.2725, 0.5875, 1.37, 0.685, 0, 0.7825, 0.0975, 0.88, 0.195, 0.98, 0.2925, 1.0775, 0.39, 1.175, 0.49, 1.2725, 0.5875, 1.37, 0.685],
  "SoftwareVersions": "syngo_MR_E11",
  "SpacingBetweenSlices": 2,
  "StationName": "MRC35049",
  "TaskName": "friends",
  "TotalReadoutTime": 0.0576811,
  "TxRefAmp": 247.64,
  "WipMemBlock": "2d46ea57-a403-4682-b030-71243bd124f0||Sequence: R016 ve11c/master r/e634e98; Dec 19 2017 11:00:25 by eja",
  "dcmmeta_affine": [
    [-1.9995366334915161, 0.028269760310649872, 0.03246663883328438, 101.31327819824219],
    [0.00791342556476593, 1.7240039110183716, -1.0137789249420166, -60.61500549316406],
    [0.042315948754549026, 1.0134155750274658, 1.723716378211975, -99.21287536621094],
    [0.0, 0.0, 0.0, 1.0]
],
  "dcmmeta_reorient_transform": [
    [0.0, -1.0, 0.0, 103.0],
    [1.0, 0.0, 0.0, 0.0],
    [0.0, 0.0, 1.0, 0.0],
    [0.0, 0.0, 0.0, 1.0]
],
  "dcmmeta_shape": [104, 104, 60, 474],
  "dcmmeta_slice_dim": 2,
  "dcmmeta_version": 0.6,
  "global": {
    "const": {
      "AcquisitionMatrix": [104, 0, 0, 104],
      "AngioFlag": "N",
      "BitsAllocated": 16,
      "BitsStored": 16,
      "BodyPartExamined": "BRAIN",
      "Columns": 832,
      "EchoNumbers": 1,
      "EchoTime": 37.0,
      "EchoTrainLength": 104,
      "FlipAngle": 52.0,
      "HighBit": 15,
      "ImageOrientationPatient": [0.99976831542243, -0.0039567125553, 0.02115797493043, 0.01413487972835, 0.86200198095396, -0.5067077954862],
      "ImagePositionPatient": [-842.34658894349, -741.61435880326, 358.64919981743],
      "ImageType": [
        "ORIGINAL",
        "PRIMARY",
        "M",
        "MB",
        "ND",
        "MOSAIC"
],
      "ImagedNucleus": "1H",
      "ImagingFrequency": 123.259143,
      "InPlanePhaseEncodingDirection": "COL",
      "MRAcquisitionType": "2D",
      "MagneticFieldStrength": 3.0,
      "Manufacturer": "SIEMENS",
      "ManufacturerModelName": "Prisma_fit",
      "Modality": "MR",
      "NumberOfAverages": 1.0,
      "NumberOfPhaseEncodingSteps": 104,
      "PercentPhaseFieldOfView": 100.0,
      "PercentSampling": 100.0,
      "PerformedProcedureStepStartTime": "102420.784000",
      "PhotometricInterpretation": "MONOCHROME2",
      "PixelBandwidth": 2290.0,
      "PixelRepresentation": 0,
      "PixelSpacing": [2.0, 2.0],
      "ProtocolName": "func_task-friends-s01e22b",
      "RepetitionTime": 1490.0,
      "Rows": 832,
      "SAR": 0.03508951158617,
      "SamplesPerPixel": 1,
      "ScanOptions": "FS",
      "ScanningSequence": "EP",
      "SequenceName": "epfid2d1_104",
      "SequenceVariant": [
        "SK",
        "SS"
],
      "SeriesDescription": "func_task-friends-s01e22b",
      "SeriesNumber": 10,
      "SeriesTime": "105249.720000",
      "SliceLocation": -53.137671796999,
      "SliceThickness": 2.0,
      "SmallestImagePixelValue": 0,
      "SoftwareVersions": "syngo MR E11",
      "SpacingBetweenSlices": 1.9999999705829,
      "SpecificCharacterSet": "ISO_IR 100",
      "StudyID": "1",
      "StudyTime": "102420.723000",
      "TransmitCoilName": "Body",
      "VariableFlipAngleFlag": "N",
      "WindowCenterWidthExplanation": "Algo1",
      "dBdt": 0.0},
    "slices": {}
  },
  "time": {
    "samples": {
      "AcquisitionNumber": [1, 2, 3, 4, 5, 6, 7, 8, 9, 10, 11, 12, 13, 14, 15, 16, 17, 18, 19, 20, 21, 22, 23, 24, 25, 26, 27, 28, 29, 30, 31, 32, 33, 34, 35, 36, 37, 38, 39, 40, 41, 42, 43, 44, 45, 46, 47, 48, 49, 50, 51, 52, 53, 54, 55, 56, 57, 58, 59, 60, 61, 62, 63, 64, 65, 66, 67, 68, 69, 70, 71, 72, 73, 74, 75, 76, 77, 78, 79, 80, 81, 82, 83, 84, 85, 86, 87, 88, 89, 90, 91, 92, 93, 94, 95, 96, 97, 98, 99, 100, 101, 102, 103, 104, 105, 106, 107, 108, 109, 110, 111, 112, 113, 114, 115, 116, 117, 118, 119, 120, 121, 122, 123, 124, 125, 126, 127, 128, 129, 130, 131, 132, 133, 134, 135, 136, 137, 138, 139, 140, 141, 142, 143, 144, 145, 146, 147, 148, 149, 150, 151, 152, 153, 154, 155, 156, 157, 158, 159, 160, 161, 162, 163, 164, 165, 166, 167, 168, 169, 170, 171, 172, 173, 174, 175, 176, 177, 178, 179, 180, 181, 182, 183, 184, 185, 186, 187, 188, 189, 190, 191, 192, 193, 194, 195, 196, 197, 198, 199, 200, 201, 202, 203, 204, 205, 206, 207, 208, 209, 210, 211, 212, 213, 214, 215, 216, 217, 218, 219, 220, 221, 222, 223, 224, 225, 226, 227, 228, 229, 230, 231, 232, 233, 234, 235, 236, 237, 238, 239, 240, 241, 242, 243, 244, 245, 246, 247, 248, 249, 250, 251, 252, 253, 254, 255, 256, 257, 258, 259, 260, 261, 262, 263, 264, 265, 266, 267, 268, 269, 270, 271, 272, 273, 274, 275, 276, 277, 278, 279, 280, 281, 282, 283, 284, 285, 286, 287, 288, 289, 290, 291, 292, 293, 294, 295, 296, 297, 298, 299, 300, 301, 302, 303, 304, 305, 306, 307, 308, 309, 310, 311, 312, 313, 314, 315, 316, 317, 318, 319, 320, 321, 322, 323, 324, 325, 326, 327, 328, 329, 330, 331, 332, 333, 334, 335, 336, 337, 338, 339, 340, 341, 342, 343, 344, 345, 346, 347, 348, 349, 350, 351, 352, 353, 354, 355, 356, 357, 358, 359, 360, 361, 362, 363, 364, 365, 366, 367, 368, 369, 370, 371, 372, 373, 374, 375, 376, 377, 378, 379, 380, 381, 382, 383, 384, 385, 386, 387, 388, 389, 390, 391, 392, 393, 394, 395, 396, 397, 398, 399, 400, 401, 402, 403, 404, 405, 406, 407, 408, 409, 410, 411, 412, 413, 414, 415, 416, 417, 418, 419, 420, 421, 422, 423, 424, 425, 426, 427, 428, 429, 430, 431, 432, 433, 434, 435, 436, 437, 438, 439, 440, 441, 442, 443, 444, 445, 446, 447, 448, 449, 450, 451, 452, 453, 454, 455, 456, 457, 458, 459, 460, 461, 462, 463, 464, 465, 466, 467, 468, 469, 470, 471, 472, 473, 474],
      "AcquisitionTime": ["105135.665000", "105137.155000", "105138.645000", "105140.135000", "105141.625000", "105143.115000", "105144.605000", "105146.095000", "105147.585000", "105149.075000", "105150.565000", "105152.055000", "105153.545000", "105155.035000", "105156.525000", "105158.015000", "105159.505000", "105200.995000", "105202.485000", "105203.975000", "105205.465000", "105206.955000", "105208.445000", "105209.935000", "105211.425000", "105212.915000", "105214.405000", "105215.895000", "105217.385000", "105218.875000", "105220.365000", "105221.855000", "105223.345000", "105224.835000", "105226.325000", "105227.815000", "105229.305000", "105230.795000", "105232.285000", "105233.775000", "105235.265000", "105236.755000", "105238.245000", "105239.735000", "105241.225000", "105242.715000", "105244.205000", "105245.695000", "105247.185000", "105248.675000", "105250.165000", "105251.655000", "105253.145000", "105254.635000", "105256.125000", "105257.615000", "105259.105000", "105300.595000", "105302.085000", "105303.575000", "105305.065000", "105306.555000", "105308.045000", "105309.535000", "105311.025000", "105312.515000", "105314.005000", "105315.495000", "105316.985000", "105318.475000", "105319.965000", "105321.455000", "105322.945000", "105324.435000", "105325.925000", "105327.415000", "105328.905000", "105330.395000", "105331.885000", "105333.375000", "105334.865000", "105336.355000", "105337.845000", "105339.335000", "105340.825000", "105342.315000", "105343.805000", "105345.295000", "105346.785000", "105348.275000", "105349.765000", "105351.255000", "105352.745000", "105354.235000", "105355.725000", "105357.215000", "105358.705000", "105400.195000", "105401.685000", "105403.175000", "105404.665000", "105406.155000", "105407.645000", "105409.135000", "105410.625000", "105412.115000", "105413.605000", "105415.095000", "105416.585000", "105418.075000", "105419.565000", "105421.055000", "105422.545000", "105424.035000", "105425.525000", "105427.015000", "105428.505000", "105429.995000", "105431.485000", "105432.975000", "105434.465000", "105435.955000", "105437.445000", "105438.935000", "105440.425000", "105441.915000", "105443.405000", "105444.895000", "105446.385000", "105447.875000", "105449.365000", "105450.855000", "105452.345000", "105453.835000", "105455.325000", "105456.815000", "105458.305000", "105459.795000", "105501.285000", "105502.775000", "105504.265000", "105505.755000", "105507.245000", "105508.735000", "105510.225000", "105511.715000", "105513.205000", "105514.695000", "105516.185000", "105517.675000", "105519.165000", "105520.655000", "105522.145000", "105523.635000", "105525.125000", "105526.615000", "105528.105000", "105529.595000", "105531.085000", "105532.575000", "105534.065000", "105535.555000", "105537.045000", "105538.535000", "105540.025000", "105541.515000", "105543.005000", "105544.495000", "105545.985000", "105547.475000", "105548.965000", "105550.455000", "105551.945000", "105553.435000", "105554.925000", "105556.415000", "105557.905000", "105559.395000", "105600.885000", "105602.375000", "105603.865000", "105605.355000", "105606.845000", "105608.335000", "105609.825000", "105611.315000", "105612.805000", "105614.295000", "105615.785000", "105617.275000", "105618.765000", "105620.255000", "105621.745000", "105623.235000", "105624.725000", "105626.215000", "105627.705000", "105629.195000", "105630.685000", "105632.175000", "105633.665000", "105635.155000", "105636.645000", "105638.135000", "105639.625000", "105641.115000", "105642.605000", "105644.095000", "105645.585000", "105647.075000", "105648.565000", "105650.055000", "105651.545000", "105653.035000", "105654.525000", "105656.015000", "105657.505000", "105658.995000", "105700.485000", "105701.975000", "105703.465000", "105704.955000", "105706.445000", "105707.935000", "105709.425000", "105710.915000", "105712.405000", "105713.895000", "105715.385000", "105716.875000", "105718.365000", "105719.855000", "105721.345000", "105722.835000", "105724.325000", "105725.815000", "105727.305000", "105728.795000", "105730.285000", "105731.775000", "105733.265000", "105734.755000", "105736.245000", "105737.735000", "105739.225000", "105740.715000", "105742.205000", "105743.695000", "105745.185000", "105746.675000", "105748.165000", "105749.655000", "105751.145000", "105752.635000", "105754.125000", "105755.615000", "105757.105000", "105758.595000", "105800.085000", "105801.575000", "105803.065000", "105804.555000", "105806.045000", "105807.535000", "105809.025000", "105810.515000", "105812.005000", "105813.495000", "105814.985000", "105816.475000", "105817.965000", "105819.455000", "105820.945000", "105822.435000", "105823.925000", "105825.415000", "105826.905000", "105828.395000", "105829.885000", "105831.375000", "105832.865000", "105834.355000", "105835.845000", "105837.335000", "105838.825000", "105840.315000", "105841.805000", "105843.295000", "105844.785000", "105846.275000", "105847.765000", "105849.255000", "105850.745000", "105852.235000", "105853.725000", "105855.215000", "105856.705000", "105858.195000", "105859.685000", "105901.175000", "105902.665000", "105904.155000", "105905.645000", "105907.135000", "105908.625000", "105910.115000", "105911.605000", "105913.095000", "105914.585000", "105916.075000", "105917.565000", "105919.055000", "105920.545000", "105922.035000", "105923.525000", "105925.015000", "105926.505000", "105927.995000", "105929.485000", "105930.975000", "105932.465000", "105933.955000", "105935.445000", "105936.935000", "105938.425000", "105939.915000", "105941.405000", "105942.895000", "105944.385000", "105945.875000", "105947.365000", "105948.855000", "105950.345000", "105951.835000", "105953.325000", "105954.815000", "105956.305000", "105957.795000", "105959.285000", "110000.775000", "110002.265000", "110003.755000", "110005.245000", "110006.735000", "110008.225000", "110009.715000", "110011.205000", "110012.695000", "110014.185000", "110015.675000", "110017.165000", "110018.655000", "110020.145000", "110021.635000", "110023.125000", "110024.615000", "110026.105000", "110027.595000", "110029.085000", "110030.575000", "110032.065000", "110033.555000", "110035.045000", "110036.535000", "110038.025000", "110039.515000", "110041.005000", "110042.495000", "110043.985000", "110045.475000", "110046.965000", "110048.455000", "110049.945000", "110051.435000", "110052.925000", "110054.415000", "110055.905000", "110057.395000", "110058.885000", "110100.375000", "110101.865000", "110103.355000", "110104.845000", "110106.335000", "110107.825000", "110109.315000", "110110.805000", "110112.295000", "110113.785000", "110115.275000", "110116.765000", "110118.255000", "110119.745000", "110121.235000", "110122.725000", "110124.215000", "110125.705000", "110127.195000", "110128.685000", "110130.175000", "110131.665000", "110133.155000", "110134.645000", "110136.135000", "110137.625000", "110139.115000", "110140.605000", "110142.095000", "110143.585000", "110145.075000", "110146.565000", "110148.055000", "110149.545000", "110151.035000", "110152.525000", "110154.015000", "110155.505000", "110156.995000", "110158.485000", "110159.975000", "110201.465000", "110202.955000", "110204.445000", "110205.935000", "110207.425000", "110208.915000", "110210.405000", "110211.895000", "110213.385000", "110214.875000", "110216.365000", "110217.855000", "110219.345000", "110220.835000", "110222.325000", "110223.815000", "110225.305000", "110226.795000", "110228.285000", "110229.775000", "110231.265000", "110232.755000", "110234.245000", "110235.735000", "110237.225000", "110238.715000", "110240.205000", "110241.695000", "110243.185000", "110244.675000", "110246.165000", "110247.655000", "110249.145000", "110250.635000", "110252.125000", "110253.615000", "110255.105000", "110256.595000", "110258.085000", "110259.575000", "110301.065000", "110302.555000", "110304.045000", "110305.535000", "110307.025000", "110308.515000", "110310.005000", "110311.495000", "110312.985000", "110314.475000", "110315.965000", "110317.455000", "110318.945000", "110320.435000"],
      "ContentTime": ["105249.722000", "105249.726000", "105249.729000", "105249.731000", "105249.734000", "105249.737000", "105249.740000", "105249.743000", "105249.746000", "105249.748000", "105249.751000", "105249.754000", "105249.757000", "105249.760000", "105249.763000", "105249.766000", "105249.768000", "105309.695000", "105309.698000", "105309.701000", "105309.703000", "105309.706000", "105309.709000", "105309.712000", "105309.715000", "105309.718000", "105309.720000", "105309.723000", "105309.726000", "105309.729000", "105309.732000", "105309.735000", "105309.737000", "105309.740000", "105309.743000", "105309.746000", "105309.749000", "105329.695000", "105329.708000", "105329.711000", "105329.714000", "105329.716000", "105329.719000", "105329.722000", "105329.725000", "105329.728000", "105329.731000", "105329.733000", "105329.736000", "105329.739000", "105329.750000", "105329.753000", "105329.756000", "105329.759000", "105329.762000", "105329.764000", "105329.767000", "105349.695000", "105349.698000", "105349.701000", "105349.704000", "105349.706000", "105349.709000", "105349.712000", "105349.715000", "105349.718000", "105349.721000", "105349.724000", "105349.726000", "105349.729000", "105349.732000", "105349.735000", "105349.738000", "105349.741000", "105349.743000", "105349.746000", "105349.749000", "105409.695000", "105409.698000", "105409.701000", "105409.704000", "105409.706000", "105409.709000", "105409.712000", "105409.715000", "105409.718000", "105409.721000", "105409.723000", "105409.726000", "105409.729000", "105409.732000", "105409.735000", "105409.738000", "105409.741000", "105409.743000", "105409.746000", "105409.749000", "105409.752000", "105449.695000", "105449.698000", "105449.701000", "105449.704000", "105449.706000", "105449.709000", "105449.712000", "105449.715000", "105449.718000", "105449.721000", "105449.724000", "105449.727000", "105449.730000", "105449.732000", "105449.735000", "105449.738000", "105449.741000", "105449.744000", "105449.747000", "105449.750000", "105449.753000", "105449.755000", "105449.758000", "105449.761000", "105449.764000", "105449.767000", "105449.770000", "105449.772000", "105449.775000", "105449.778000", "105449.781000", "105529.695000", "105529.698000", "105529.701000", "105529.703000", "105529.706000", "105529.709000", "105529.712000", "105529.715000", "105529.718000", "105529.721000", "105529.723000", "105529.726000", "105529.729000", "105529.732000", "105529.735000", "105529.738000", "105529.740000", "105529.743000", "105529.746000", "105529.749000", "105529.752000", "105529.755000", "105529.757000", "105529.760000", "105529.763000", "105529.766000", "105529.769000", "105609.695000", "105609.698000", "105609.701000", "105609.704000", "105609.706000", "105609.709000", "105609.712000", "105609.715000", "105609.718000", "105609.721000", "105609.724000", "105609.726000", "105609.729000", "105609.732000", "105609.735000", "105609.738000", "105609.741000", "105609.744000", "105609.747000", "105609.749000", "105609.752000", "105609.755000", "105609.758000", "105609.761000", "105609.764000", "105609.766000", "105609.770000", "105649.695000", "105649.698000", "105649.701000", "105649.703000", "105649.706000", "105649.709000", "105649.712000", "105649.715000", "105649.718000", "105649.721000", "105649.723000", "105649.726000", "105649.729000", "105649.732000", "105649.735000", "105649.738000", "105649.741000", "105649.744000", "105649.746000", "105649.749000", "105649.752000", "105649.755000", "105649.758000", "105649.761000", "105649.764000", "105649.767000", "105649.770000", "105729.695000", "105729.698000", "105729.701000", "105729.704000", "105729.707000", "105729.710000", "105729.713000", "105729.716000", "105729.719000", "105729.722000", "105729.725000", "105729.728000", "105729.731000", "105729.734000", "105729.737000", "105729.740000", "105729.742000", "105729.745000", "105729.748000", "105729.751000", "105729.754000", "105729.757000", "105729.759000", "105729.762000", "105729.774000", "105729.777000", "105809.695000", "105809.698000", "105809.701000", "105809.704000", "105809.706000", "105809.709000", "105809.712000", "105809.715000", "105809.718000", "105809.721000", "105809.723000", "105809.726000", "105809.729000", "105809.732000", "105809.745000", "105809.748000", "105809.750000", "105809.753000", "105809.756000", "105809.759000", "105809.762000", "105809.765000", "105809.767000", "105809.770000", "105809.773000", "105809.776000", "105809.779000", "105849.695000", "105849.698000", "105849.701000", "105849.704000", "105849.706000", "105849.709000", "105849.712000", "105849.715000", "105849.718000", "105849.721000", "105849.724000", "105849.727000", "105849.729000", "105849.732000", "105849.735000", "105849.738000", "105849.741000", "105849.744000", "105849.747000", "105849.750000", "105849.752000", "105849.755000", "105849.758000", "105849.761000", "105849.764000", "105849.767000", "105849.770000", "105929.695000", "105929.698000", "105929.701000", "105929.704000", "105929.706000", "105929.709000", "105929.712000", "105929.715000", "105929.718000", "105929.721000", "105929.724000", "105929.727000", "105929.730000", "105929.732000", "105929.735000", "105929.738000", "105929.741000", "105929.744000", "105929.747000", "105929.750000", "105929.752000", "105929.755000", "105929.758000", "105929.761000", "105929.764000", "105929.767000", "105929.770000", "110009.695000", "110009.698000", "110009.701000", "110009.704000", "110009.707000", "110009.709000", "110009.712000", "110009.715000", "110009.718000", "110009.721000", "110009.724000", "110009.727000", "110009.730000", "110009.733000", "110009.735000", "110009.738000", "110009.741000", "110009.744000", "110009.747000", "110009.750000", "110009.753000", "110009.755000", "110009.758000", "110009.761000", "110009.764000", "110009.767000", "110009.770000", "110049.695000", "110049.698000", "110049.701000", "110049.704000", "110049.707000", "110049.709000", "110049.712000", "110049.715000", "110049.718000", "110049.721000", "110049.724000", "110049.727000", "110049.730000", "110049.732000", "110049.735000", "110049.738000", "110049.741000", "110049.744000", "110049.747000", "110049.750000", "110049.753000", "110049.755000", "110049.758000", "110049.761000", "110049.764000", "110049.767000", "110049.770000", "110129.695000", "110129.698000", "110129.701000", "110129.704000", "110129.707000", "110129.710000", "110129.712000", "110129.715000", "110129.718000", "110129.721000", "110129.724000", "110129.727000", "110129.730000", "110129.732000", "110129.735000", "110129.738000", "110129.741000", "110129.744000", "110129.747000", "110129.750000", "110129.753000", "110129.756000", "110129.758000", "110129.761000", "110129.764000", "110129.767000", "110129.770000", "110209.695000", "110209.698000", "110209.701000", "110209.704000", "110209.707000", "110209.710000", "110209.713000", "110209.716000", "110209.719000", "110209.722000", "110209.724000", "110209.727000", "110209.730000", "110209.733000", "110209.736000", "110209.739000", "110209.742000", "110209.744000", "110209.747000", "110209.750000", "110209.769000", "110209.772000", "110209.775000", "110209.778000", "110209.781000", "110209.784000", "110249.695000", "110249.698000", "110249.701000", "110249.704000", "110249.706000", "110249.709000", "110249.712000", "110249.715000", "110249.718000", "110249.721000", "110249.724000", "110249.727000", "110249.730000", "110249.732000", "110249.735000", "110249.738000", "110249.741000", "110249.744000", "110249.747000", "110249.750000", "110249.753000", "110249.756000", "110249.759000", "110249.761000", "110249.764000", "110249.767000", "110249.770000", "110322.905000", "110322.908000", "110322.911000", "110322.914000", "110322.917000", "110322.920000", "110322.923000", "110322.926000", "110322.929000", "110322.932000", "110322.934000", "110322.937000", "110322.940000", "110322.943000", "110322.946000", "110322.949000", "110322.952000", "110322.954000", "110322.957000", "110322.960000", "110322.963000", "110322.966000", "110322.969000"],
