{
  "AcquisitionMatrixPE": 104,
  "AcquisitionNumber": 1,
  "AcquisitionTime": "11:03:59.730000",
  "BandwidthPerPixelPhaseEncode": 17.17,
  "BaseResolution": 104,
  "BodyPartExamined": "BRAIN",
  "CoilString": "HC1-7;NC1_2",
  "ConsistencyInfo": "N4_VE11C_LATEST_20160120",
  "ConversionSoftware": "dcm2niix",
  "ConversionSoftwareVersion": "v1.0.20190720  (JP2:OpenJPEG) GCC7.3.0",
  "DerivedVendorReportedEchoSpacing": 0.000560011,
  "DeviceSerialNumber": "167006",
  "DwellTime": 2.1e-06,
  "EchoTime": 0.037,
  "EchoTrainLength": 104,
  "EffectiveEchoSpacing": 0.000560011,
  "FlipAngle": 52,
  "ImageComments": "Unaliased_MB4_PE3_LB",
  "ImageOrientationPatientDICOM": [0.999768, -0.00395671, 0.021158, 0.0141349, 0.862002, -0.506708],
  "ImageType": [
    "ORIGINAL",
    "PRIMARY",
    "M",
    "MB",
    "ND",
    "MOSAIC"
],
  "ImagingFrequency": 123.259,
  "InPlanePhaseEncodingDirectionDICOM": "COL",
  "InstitutionAddress": "Chemin_Queen-Mary_4565_Montreal_District_CA_H3W_1W5",
  "InstitutionName": "IUGM",
  "InstitutionalDepartmentName": "Department",
  "MRAcquisitionType": "2D",
  "MagneticFieldStrength": 3,
  "Manufacturer": "Siemens",
  "ManufacturersModelName": "Prisma_fit",
  "Modality": "MR",
  "MultibandAccelerationFactor": 4,
  "PartialFourier": 1,
  "PatientPosition": "HFS",
  "PercentPhaseFOV": 100,
  "PhaseEncodingDirection": "j",
  "PhaseEncodingSteps": 104,
  "PhaseResolution": 1,
  "PixelBandwidth": 2290,
  "ProcedureStepDescription": "video_friends",
  "ProtocolName": "func_task-friends-s01e23a",
  "PulseSequenceDetails": "%CustomerSeq%_cmrr_mbep2d_bold",
  "ReceiveCoilActiveElements": "HC1-7;NC1,2",
  "ReceiveCoilName": "HeadNeck_64",
  "ReconMatrixPE": 104,
  "RepetitionTime": 1.49,
  "SAR": 0.0350857,
  "ScanOptions": "FS",
  "ScanningSequence": "EP",
  "SequenceName": "epfid2d1_104",
  "SequenceVariant": "SK_SS",
  "SeriesDescription": "func_task-friends-s01e23a",
  "SeriesNumber": 12,
  "ShimSetting": [626, -7201, -8871, 399, -5, -159, 42, -5],
  "SliceThickness": 2,
  "SliceTiming": [0, 0.785, 0.1, 0.8825, 0.1975, 0.98, 0.295, 1.08, 0.3925, 1.1775, 0.49, 1.275, 0.59, 1.3725, 0.6875, 0, 0.785, 0.1, 0.8825, 0.1975, 0.98, 0.295, 1.08, 0.3925, 1.1775, 0.49, 1.275, 0.59, 1.3725, 0.6875, 0, 0.785, 0.1, 0.8825, 0.1975, 0.98, 0.295, 1.08, 0.3925, 1.1775, 0.49, 1.275, 0.59, 1.3725, 0.6875, 0, 0.785, 0.1, 0.8825, 0.1975, 0.98, 0.295, 1.08, 0.3925, 1.1775, 0.49, 1.275, 0.59, 1.3725, 0.6875],
  "SoftwareVersions": "syngo_MR_E11",
  "SpacingBetweenSlices": 2,
  "StationName": "MRC35049",
  "TaskName": "friends",
  "TotalReadoutTime": 0.0576811,
  "TxRefAmp": 247.64,
  "WipMemBlock": "bce37745-d76f-4df9-8c35-dab2e011747c||Sequence: R016 ve11c/master r/e634e98; Dec 19 2017 11:00:25 by eja",
  "dcmmeta_affine": [
    [-1.9995366334915161, 0.028269760310649872, 0.03246663883328438, 101.31327819824219],
    [0.00791342556476593, 1.7240039110183716, -1.0137789249420166, -60.61500549316406],
    [0.042315948754549026, 1.0134155750274658, 1.723716378211975, -99.21287536621094],
    [0.0, 0.0, 0.0, 1.0]
],
  "dcmmeta_reorient_transform": [
    [0.0, -1.0, 0.0, 103.0],
    [1.0, 0.0, 0.0, 0.0],
    [0.0, 0.0, 1.0, 0.0],
    [0.0, 0.0, 0.0, 1.0]
],
  "dcmmeta_shape": [104, 104, 60, 462],
  "dcmmeta_slice_dim": 2,
  "dcmmeta_version": 0.6,
  "global": {
    "const": {
      "AcquisitionMatrix": [104, 0, 0, 104],
      "AngioFlag": "N",
      "BitsAllocated": 16,
      "BitsStored": 16,
      "BodyPartExamined": "BRAIN",
      "Columns": 832,
      "EchoNumbers": 1,
      "EchoTime": 37.0,
      "EchoTrainLength": 104,
      "FlipAngle": 52.0,
      "HighBit": 15,
      "ImageOrientationPatient": [0.99976831542243, -0.0039567125553, 0.02115797493043, 0.01413487972835, 0.86200198095396, -0.5067077954862],
      "ImagePositionPatient": [-842.34658894349, -741.61435880326, 358.64919981743],
      "ImageType": [
        "ORIGINAL",
        "PRIMARY",
        "M",
        "MB",
        "ND",
        "MOSAIC"
],
      "ImagedNucleus": "1H",
      "ImagingFrequency": 123.259149,
      "InPlanePhaseEncodingDirection": "COL",
      "MRAcquisitionType": "2D",
      "MagneticFieldStrength": 3.0,
      "Manufacturer": "SIEMENS",
      "ManufacturerModelName": "Prisma_fit",
      "Modality": "MR",
      "NumberOfAverages": 1.0,
      "NumberOfPhaseEncodingSteps": 104,
      "PercentPhaseFieldOfView": 100.0,
      "PercentSampling": 100.0,
      "PerformedProcedureStepStartTime": "102420.784000",
      "PhotometricInterpretation": "MONOCHROME2",
      "PixelBandwidth": 2290.0,
      "PixelRepresentation": 0,
      "PixelSpacing": [2.0, 2.0],
      "ProtocolName": "func_task-friends-s01e23a",
      "RepetitionTime": 1490.0,
      "Rows": 832,
      "SAR": 0.0350857109177,
      "SamplesPerPixel": 1,
      "ScanOptions": "FS",
      "ScanningSequence": "EP",
      "SequenceName": "epfid2d1_104",
      "SequenceVariant": [
        "SK",
        "SS"
],
      "SeriesDescription": "func_task-friends-s01e23a",
      "SeriesNumber": 12,
      "SeriesTime": "110529.794000",
      "SliceLocation": -53.137671796999,
      "SliceThickness": 2.0,
      "SmallestImagePixelValue": 0,
      "SoftwareVersions": "syngo MR E11",
      "SpacingBetweenSlices": 1.9999999705829,
      "SpecificCharacterSet": "ISO_IR 100",
      "StudyID": "1",
      "StudyTime": "102420.723000",
      "TransmitCoilName": "Body",
      "VariableFlipAngleFlag": "N",
      "WindowCenterWidthExplanation": "Algo1",
      "dBdt": 0.0},
    "slices": {}
  },
  "time": {
    "samples": {
      "AcquisitionNumber": [1, 2, 3, 4, 5, 6, 7, 8, 9, 10, 11, 12, 13, 14, 15, 16, 17, 18, 19, 20, 21, 22, 23, 24, 25, 26, 27, 28, 29, 30, 31, 32, 33, 34, 35, 36, 37, 38, 39, 40, 41, 42, 43, 44, 45, 46, 47, 48, 49, 50, 51, 52, 53, 54, 55, 56, 57, 58, 59, 60, 61, 62, 63, 64, 65, 66, 67, 68, 69, 70, 71, 72, 73, 74, 75, 76, 77, 78, 79, 80, 81, 82, 83, 84, 85, 86, 87, 88, 89, 90, 91, 92, 93, 94, 95, 96, 97, 98, 99, 100, 101, 102, 103, 104, 105, 106, 107, 108, 109, 110, 111, 112, 113, 114, 115, 116, 117, 118, 119, 120, 121, 122, 123, 124, 125, 126, 127, 128, 129, 130, 131, 132, 133, 134, 135, 136, 137, 138, 139, 140, 141, 142, 143, 144, 145, 146, 147, 148, 149, 150, 151, 152, 153, 154, 155, 156, 157, 158, 159, 160, 161, 162, 163, 164, 165, 166, 167, 168, 169, 170, 171, 172, 173, 174, 175, 176, 177, 178, 179, 180, 181, 182, 183, 184, 185, 186, 187, 188, 189, 190, 191, 192, 193, 194, 195, 196, 197, 198, 199, 200, 201, 202, 203, 204, 205, 206, 207, 208, 209, 210, 211, 212, 213, 214, 215, 216, 217, 218, 219, 220, 221, 222, 223, 224, 225, 226, 227, 228, 229, 230, 231, 232, 233, 234, 235, 236, 237, 238, 239, 240, 241, 242, 243, 244, 245, 246, 247, 248, 249, 250, 251, 252, 253, 254, 255, 256, 257, 258, 259, 260, 261, 262, 263, 264, 265, 266, 267, 268, 269, 270, 271, 272, 273, 274, 275, 276, 277, 278, 279, 280, 281, 282, 283, 284, 285, 286, 287, 288, 289, 290, 291, 292, 293, 294, 295, 296, 297, 298, 299, 300, 301, 302, 303, 304, 305, 306, 307, 308, 309, 310, 311, 312, 313, 314, 315, 316, 317, 318, 319, 320, 321, 322, 323, 324, 325, 326, 327, 328, 329, 330, 331, 332, 333, 334, 335, 336, 337, 338, 339, 340, 341, 342, 343, 344, 345, 346, 347, 348, 349, 350, 351, 352, 353, 354, 355, 356, 357, 358, 359, 360, 361, 362, 363, 364, 365, 366, 367, 368, 369, 370, 371, 372, 373, 374, 375, 376, 377, 378, 379, 380, 381, 382, 383, 384, 385, 386, 387, 388, 389, 390, 391, 392, 393, 394, 395, 396, 397, 398, 399, 400, 401, 402, 403, 404, 405, 406, 407, 408, 409, 410, 411, 412, 413, 414, 415, 416, 417, 418, 419, 420, 421, 422, 423, 424, 425, 426, 427, 428, 429, 430, 431, 432, 433, 434, 435, 436, 437, 438, 439, 440, 441, 442, 443, 444, 445, 446, 447, 448, 449, 450, 451, 452, 453, 454, 455, 456, 457, 458, 459, 460, 461, 462],
      "AcquisitionTime": ["110359.730000", "110401.220000", "110402.710000", "110404.200000", "110405.690000", "110407.180000", "110408.670000", "110410.160000", "110411.650000", "110413.140000", "110414.630000", "110416.120000", "110417.610000", "110419.100000", "110420.590000", "110422.080000", "110423.570000", "110425.060000", "110426.550000", "110428.040000", "110429.530000", "110431.020000", "110432.510000", "110434.000000", "110435.490000", "110436.980000", "110438.470000", "110439.960000", "110441.450000", "110442.940000", "110444.430000", "110445.920000", "110447.410000", "110448.900000", "110450.390000", "110451.880000", "110453.370000", "110454.860000", "110456.350000", "110457.840000", "110459.330000", "110500.820000", "110502.310000", "110503.800000", "110505.290000", "110506.780000", "110508.270000", "110509.760000", "110511.250000", "110512.740000", "110514.230000", "110515.720000", "110517.210000", "110518.700000", "110520.190000", "110521.680000", "110523.170000", "110524.660000", "110526.150000", "110527.640000", "110529.130000", "110530.620000", "110532.110000", "110533.600000", "110535.090000", "110536.580000", "110538.070000", "110539.560000", "110541.050000", "110542.540000", "110544.030000", "110545.520000", "110547.010000", "110548.500000", "110549.990000", "110551.480000", "110552.970000", "110554.460000", "110555.950000", "110557.440000", "110558.930000", "110600.420000", "110601.910000", "110603.400000", "110604.890000", "110606.380000", "110607.870000", "110609.360000", "110610.850000", "110612.340000", "110613.830000", "110615.320000", "110616.810000", "110618.300000", "110619.790000", "110621.280000", "110622.770000", "110624.260000", "110625.750000", "110627.240000", "110628.730000", "110630.220000", "110631.710000", "110633.200000", "110634.690000", "110636.180000", "110637.670000", "110639.160000", "110640.650000", "110642.140000", "110643.630000", "110645.120000", "110646.610000", "110648.100000", "110649.590000", "110651.080000", "110652.570000", "110654.060000", "110655.550000", "110657.040000", "110658.530000", "110700.020000", "110701.510000", "110703.000000", "110704.490000", "110705.980000", "110707.470000", "110708.960000", "110710.450000", "110711.940000", "110713.430000", "110714.920000", "110716.410000", "110717.900000", "110719.390000", "110720.880000", "110722.370000", "110723.860000", "110725.350000", "110726.840000", "110728.330000", "110729.820000", "110731.310000", "110732.800000", "110734.290000", "110735.780000", "110737.270000", "110738.760000", "110740.250000", "110741.740000", "110743.230000", "110744.720000", "110746.210000", "110747.700000", "110749.190000", "110750.680000", "110752.170000", "110753.660000", "110755.150000", "110756.640000", "110758.130000", "110759.620000", "110801.110000", "110802.600000", "110804.090000", "110805.580000", "110807.070000", "110808.560000", "110810.050000", "110811.540000", "110813.030000", "110814.520000", "110816.010000", "110817.500000", "110818.990000", "110820.480000", "110821.970000", "110823.460000", "110824.950000", "110826.440000", "110827.930000", "110829.420000", "110830.910000", "110832.400000", "110833.890000", "110835.380000", "110836.870000", "110838.360000", "110839.850000", "110841.340000", "110842.830000", "110844.320000", "110845.810000", "110847.300000", "110848.790000", "110850.280000", "110851.770000", "110853.260000", "110854.750000", "110856.240000", "110857.730000", "110859.220000", "110900.710000", "110902.200000", "110903.690000", "110905.180000", "110906.670000", "110908.160000", "110909.650000", "110911.140000", "110912.630000", "110914.120000", "110915.610000", "110917.100000", "110918.590000", "110920.080000", "110921.570000", "110923.060000", "110924.550000", "110926.040000", "110927.530000", "110929.020000", "110930.510000", "110932.000000", "110933.490000", "110934.980000", "110936.470000", "110937.960000", "110939.450000", "110940.940000", "110942.430000", "110943.920000", "110945.410000", "110946.900000", "110948.390000", "110949.880000", "110951.370000", "110952.860000", "110954.350000", "110955.840000", "110957.330000", "110958.820000", "111000.310000", "111001.800000", "111003.290000", "111004.780000", "111006.270000", "111007.760000", "111009.250000", "111010.740000", "111012.230000", "111013.720000", "111015.210000", "111016.700000", "111018.190000", "111019.680000", "111021.170000", "111022.660000", "111024.150000", "111025.640000", "111027.130000", "111028.620000", "111030.110000", "111031.600000", "111033.090000", "111034.580000", "111036.070000", "111037.560000", "111039.050000", "111040.540000", "111042.030000", "111043.520000", "111045.010000", "111046.500000", "111047.990000", "111049.480000", "111050.970000", "111052.460000", "111053.950000", "111055.440000", "111056.930000", "111058.420000", "111059.910000", "111101.400000", "111102.890000", "111104.380000", "111105.870000", "111107.360000", "111108.850000", "111110.340000", "111111.830000", "111113.320000", "111114.810000", "111116.300000", "111117.790000", "111119.280000", "111120.770000", "111122.260000", "111123.750000", "111125.240000", "111126.730000", "111128.220000", "111129.710000", "111131.200000", "111132.690000", "111134.180000", "111135.670000", "111137.160000", "111138.650000", "111140.140000", "111141.630000", "111143.120000", "111144.610000", "111146.100000", "111147.590000", "111149.080000", "111150.570000", "111152.060000", "111153.550000", "111155.040000", "111156.530000", "111158.020000", "111159.510000", "111201.000000", "111202.490000", "111203.980000", "111205.470000", "111206.960000", "111208.450000", "111209.940000", "111211.430000", "111212.920000", "111214.410000", "111215.900000", "111217.390000", "111218.880000", "111220.370000", "111221.860000", "111223.350000", "111224.840000", "111226.330000", "111227.820000", "111229.310000", "111230.800000", "111232.290000", "111233.780000", "111235.270000", "111236.760000", "111238.250000", "111239.740000", "111241.230000", "111242.720000", "111244.210000", "111245.700000", "111247.190000", "111248.680000", "111250.170000", "111251.660000", "111253.150000", "111254.640000", "111256.130000", "111257.620000", "111259.110000", "111300.600000", "111302.090000", "111303.580000", "111305.070000", "111306.560000", "111308.050000", "111309.540000", "111311.030000", "111312.520000", "111314.010000", "111315.500000", "111316.990000", "111318.480000", "111319.970000", "111321.460000", "111322.950000", "111324.440000", "111325.930000", "111327.420000", "111328.910000", "111330.400000", "111331.890000", "111333.380000", "111334.870000", "111336.360000", "111337.850000", "111339.340000", "111340.830000", "111342.320000", "111343.810000", "111345.300000", "111346.790000", "111348.280000", "111349.770000", "111351.260000", "111352.750000", "111354.240000", "111355.730000", "111357.220000", "111358.710000", "111400.200000", "111401.690000", "111403.180000", "111404.670000", "111406.160000", "111407.650000", "111409.140000", "111410.630000", "111412.120000", "111413.610000", "111415.100000", "111416.590000", "111418.080000", "111419.570000", "111421.060000", "111422.550000", "111424.040000", "111425.530000", "111427.020000", "111428.510000", "111430.000000", "111431.490000", "111432.980000", "111434.470000", "111435.960000", "111437.450000", "111438.940000", "111440.430000", "111441.920000", "111443.410000", "111444.900000", "111446.390000", "111447.880000", "111449.370000", "111450.860000", "111452.350000", "111453.840000", "111455.330000", "111456.820000", "111458.310000", "111459.800000", "111501.290000", "111502.780000", "111504.270000", "111505.760000", "111507.250000", "111508.740000", "111510.230000", "111511.720000", "111513.210000", "111514.700000", "111516.190000", "111517.680000", "111519.170000", "111520.660000", "111522.150000", "111523.640000", "111525.130000", "111526.620000"],
      "ContentTime": ["110529.797000", "110529.801000", "110529.804000", "110529.807000", "110529.810000", "110529.812000", "110529.819000", "110529.822000", "110529.825000", "110529.836000", "110529.839000", "110529.842000", "110529.845000", "110529.847000", "110529.850000", "110529.853000", "110529.856000", "110529.859000", "110529.861000", "110529.864000", "110529.867000", "110529.870000", "110529.873000", "110529.876000", "110529.879000", "110529.882000", "110529.884000", "110529.887000", "110529.890000", "110529.893000", "110529.896000", "110529.898000", "110529.901000", "110529.904000", "110529.907000", "110529.910000", "110549.766000", "110549.769000", "110549.772000", "110549.775000", "110549.777000", "110549.780000", "110549.783000", "110549.786000", "110549.789000", "110549.792000", "110549.794000", "110549.797000", "110549.800000", "110549.803000", "110549.806000", "110549.808000", "110549.811000", "110549.814000", "110549.817000", "110549.820000", "110609.766000", "110609.769000", "110609.772000", "110609.774000", "110609.777000", "110609.780000", "110609.783000", "110609.786000", "110609.789000", "110609.791000", "110609.794000", "110609.797000", "110609.800000", "110609.803000", "110609.806000", "110609.808000", "110609.811000", "110609.814000", "110609.817000", "110609.820000", "110629.766000", "110629.769000", "110629.772000", "110629.775000", "110629.779000", "110629.781000", "110629.784000", "110629.787000", "110629.790000", "110629.793000", "110629.796000", "110629.798000", "110629.801000", "110629.804000", "110629.807000", "110629.810000", "110629.813000", "110629.816000", "110629.818000", "110629.821000", "110709.766000", "110709.769000", "110709.772000", "110709.775000", "110709.777000", "110709.780000", "110709.783000", "110709.786000", "110709.789000", "110709.792000", "110709.794000", "110709.797000", "110709.800000", "110709.803000", "110709.806000", "110709.809000", "110709.811000", "110709.814000", "110709.817000", "110709.820000", "110709.823000", "110709.826000", "110709.828000", "110709.847000", "110709.850000", "110709.853000", "110709.856000", "110709.858000", "110709.861000", "110709.864000", "110709.867000", "110749.766000", "110749.769000", "110749.773000", "110749.776000", "110749.778000", "110749.781000", "110749.784000", "110749.787000", "110749.790000", "110749.793000", "110749.795000", "110749.798000", "110749.801000", "110749.804000", "110749.807000", "110749.809000", "110749.812000", "110749.815000", "110749.818000", "110749.821000", "110749.824000", "110749.827000", "110749.830000", "110749.832000", "110749.835000", "110749.838000", "110829.766000", "110829.769000", "110829.772000", "110829.775000", "110829.777000", "110829.780000", "110829.783000", "110829.786000", "110829.789000", "110829.792000", "110829.795000", "110829.797000", "110829.800000", "110829.803000", "110829.806000", "110829.809000", "110829.812000", "110829.814000", "110829.817000", "110829.820000", "110829.823000", "110829.826000", "110829.829000", "110829.832000", "110829.834000", "110829.837000", "110829.840000", "110909.766000", "110909.769000", "110909.772000", "110909.775000", "110909.777000", "110909.780000", "110909.783000", "110909.786000", "110909.789000", "110909.792000", "110909.795000", "110909.797000", "110909.800000", "110909.803000", "110909.806000", "110909.809000", "110909.812000", "110909.815000", "110909.817000", "110909.820000", "110909.823000", "110909.826000", "110909.829000", "110909.832000", "110909.835000", "110909.837000", "110909.840000", "110949.766000", "110949.769000", "110949.772000", "110949.775000", "110949.777000", "110949.780000", "110949.783000", "110949.786000", "110949.798000", "110949.801000", "110949.803000", "110949.806000", "110949.809000", "110949.812000", "110949.815000", "110949.818000", "110949.820000", "110949.823000", "110949.826000", "110949.829000", "110949.832000", "110949.835000", "110949.837000", "110949.840000", "110949.843000", "110949.846000", "110949.849000", "111029.765000", "111029.768000", "111029.771000", "111029.774000", "111029.776000", "111029.779000", "111029.782000", "111029.785000", "111029.788000", "111029.791000", "111029.793000", "111029.796000", "111029.799000", "111029.802000", "111029.805000", "111029.807000", "111029.810000", "111029.813000", "111029.816000", "111029.819000", "111029.822000", "111029.824000", "111029.827000", "111029.830000", "111029.833000", "111029.836000", "111029.839000", "111109.766000", "111109.769000", "111109.772000", "111109.775000", "111109.778000", "111109.780000", "111109.783000", "111109.786000", "111109.789000", "111109.792000", "111109.795000", "111109.798000", "111109.800000", "111109.803000", "111109.806000", "111109.809000", "111109.812000", "111109.815000", "111109.817000", "111109.820000", "111109.823000", "111109.826000", "111109.829000", "111109.832000", "111109.835000", "111109.838000", "111109.840000", "111149.766000", "111149.769000", "111149.772000", "111149.776000", "111149.779000", "111149.782000", "111149.786000", "111149.789000", "111149.792000", "111149.795000", "111149.798000", "111149.800000", "111149.803000", "111149.806000", "111149.809000", "111149.812000", "111149.815000", "111149.817000", "111149.820000", "111149.823000", "111149.826000", "111149.829000", "111149.832000", "111149.835000", "111149.837000", "111149.840000", "111209.766000", "111209.769000", "111209.772000", "111209.775000", "111209.778000", "111209.780000", "111209.783000", "111209.799000", "111209.802000", "111209.805000", "111209.807000", "111209.810000", "111209.813000", "111209.816000", "111249.765000", "111249.768000", "111249.771000", "111249.774000", "111249.777000", "111249.780000", "111249.782000", "111249.785000", "111249.788000", "111249.791000", "111249.794000", "111249.797000", "111249.800000", "111249.802000", "111249.805000", "111249.808000", "111249.811000", "111249.814000", "111249.816000", "111249.819000", "111249.822000", "111249.825000", "111249.828000", "111249.831000", "111249.834000", "111249.837000", "111249.839000", "111329.766000", "111329.769000", "111329.772000", "111329.775000", "111329.778000", "111329.781000", "111329.784000", "111329.786000", "111329.789000", "111329.792000", "111329.795000", "111329.798000", "111329.801000", "111329.804000", "111329.806000", "111329.809000", "111329.812000", "111329.815000", "111329.818000", "111329.820000", "111329.823000", "111329.826000", "111329.829000", "111329.832000", "111329.835000", "111329.838000", "111329.841000", "111409.766000", "111409.769000", "111409.772000", "111409.775000", "111409.778000", "111409.781000", "111409.784000", "111409.787000", "111409.790000", "111409.792000", "111409.795000", "111409.798000", "111409.801000", "111409.804000", "111409.807000", "111409.810000", "111409.812000", "111409.815000", "111409.818000", "111409.821000", "111409.824000", "111409.827000", "111409.830000", "111409.833000", "111409.835000", "111409.838000", "111449.766000", "111449.769000", "111449.772000", "111449.775000", "111449.778000", "111449.781000", "111449.784000", "111449.787000", "111449.789000", "111449.792000", "111449.795000", "111449.798000", "111449.801000", "111449.804000", "111449.806000", "111449.809000", "111449.812000", "111449.815000", "111449.818000", "111449.821000", "111449.823000", "111449.826000", "111449.829000", "111449.832000", "111449.835000", "111449.838000", "111449.840000", "111528.878000", "111528.881000", "111528.884000", "111528.887000", "111528.890000", "111528.893000", "111528.896000", "111528.899000", "111528.902000", "111528.905000", "111528.907000", "111528.910000", "111528.913000", "111528.916000", "111528.919000", "111528.922000", "111528.924000", "111528.927000", "111528.930000", "111528.933000", "111528.936000", "111528.939000", "111528.941000", "111528.944000", "111528.947000", "111528.950000", "111528.953000"],
