{
  "AcquisitionMatrixPE": 104,
  "AcquisitionNumber": 1,
  "AcquisitionTime": "14:13:57.060000",
  "BandwidthPerPixelPhaseEncode": 17.17,
  "BaseResolution": 104,
  "BodyPartExamined": "BRAIN",
  "CoilCombinationMethod": "Sum of Squares",
  "ConsistencyInfo": "N4_VE11C_LATEST_20160120",
  "ConversionSoftware": "dcm2niix",
  "ConversionSoftwareVersion": "v1.0.20230411",
  "DerivedVendorReportedEchoSpacing": 0.000560011,
  "DeviceSerialNumber": "167006",
  "DwellTime": 2.1e-06,
  "EchoTime": 0.037,
  "EchoTrainLength": 104,
  "EffectiveEchoSpacing": 0.000560011,
  "FlipAngle": 52,
  "HeudiconvVersion": "0.5.3.post861+ge7d3c7f",
  "ImageComments": "Unaliased MB4/PE3/LB",
  "ImageOrientationPatientDICOM": [0.99918, 0.0397098, -0.00786365, -0.0404805, 0.981008, -0.189694],
  "ImageOrientationText": "Tra>Cor(-10.9)>Sag(-0.0)",
  "ImageType": [
    "ORIGINAL",
    "PRIMARY",
    "M",
    "MB",
    "ND",
    "MOSAIC"
],
  "ImagingFrequency": 123.249757,
  "InPlanePhaseEncodingDirectionDICOM": "COL",
  "InstitutionAddress": "Chemin Queen-Mary 4565,Montreal,District,CA,H3W 1W5",
  "InstitutionName": "IUGM",
  "InstitutionalDepartmentName": "Department",
  "MRAcquisitionType": "2D",
  "MagneticFieldStrength": 3,
  "Manufacturer": "Siemens",
  "ManufacturersModelName": "Prisma_fit",
  "MatrixCoilMode": "SENSE",
  "Modality": "MR",
  "MultibandAccelerationFactor": 4,
  "NonlinearGradientCorrection": false,
  "PartialFourier": 1,
  "PatientPosition": "HFS",
  "PercentPhaseFOV": 100,
  "PercentSampling": 100,
  "PhaseEncodingDirection": "j",
  "PhaseEncodingSteps": 104,
  "PhaseResolution": 1,
  "PixelBandwidth": 2290,
  "ProcedureStepDescription": "video^friends",
  "ProtocolName": "func_task-friends-s07e18b",
  "PulseSequenceDetails": "%CustomerSeq%\\cmrr_mbep2d_bold",
  "ReceiveCoilActiveElements": "HC1-7;NC1,2",
  "ReceiveCoilName": "HeadNeck_64",
  "ReconMatrixPE": 104,
  "RepetitionTime": 1.49,
  "SAR": 0.0583924,
  "ScanOptions": "FS",
  "ScanningSequence": "EP",
  "SequenceName": "epfid2d1_104",
  "SequenceVariant": "SK\\SS",
  "SeriesDescription": "func_task-friends-s07e18b",
  "SeriesNumber": 12,
  "ShimSetting": [603, -7254, -8831, 712, 76, -57, 47, 29],
  "SliceThickness": 2,
  "SliceTiming": [0, 0.7825, 0.0975, 0.8825, 0.195, 0.98, 0.2925, 1.0775, 0.3925, 1.175, 0.49, 1.2725, 0.5875, 1.3725, 0.685, 0, 0.7825, 0.0975, 0.8825, 0.195, 0.98, 0.2925, 1.0775, 0.3925, 1.175, 0.49, 1.2725, 0.5875, 1.3725, 0.685, 0, 0.7825, 0.0975, 0.8825, 0.195, 0.98, 0.2925, 1.0775, 0.3925, 1.175, 0.49, 1.2725, 0.5875, 1.3725, 0.685, 0, 0.7825, 0.0975, 0.8825, 0.195, 0.98, 0.2925, 1.0775, 0.3925, 1.175, 0.49, 1.2725, 0.5875, 1.3725, 0.685],
  "SoftwareVersions": "syngo MR E11",
  "SpacingBetweenSlices": 2,
  "StationName": "MRC35049",
  "TaskName": "s07e18b",
  "TotalReadoutTime": 0.0576811,
  "TxRefAmp": 239.764,
  "WipMemBlock": "65f0fc27-979c-4fbe-9ec7-4137f9d01855||Sequence: R017 ve11c/master r/75a17815+; Jun 28 2022 16:32:11 by eja",
  "dcmmeta_affine": [
    [-1.9983606338500977, -0.08096106350421906, -0.00036320192157290876, 108.27359008789062],
    [-0.07941963523626328, 1.9620168209075928, -0.3797135055065155, -83.50666046142578],
    [-0.01572730951011181, 0.37938782572746277, 1.9636236429214478, -66.1484603881836],
    [0.0, 0.0, 0.0, 1.0]
],
  "dcmmeta_reorient_transform": [
    [0.0, -1.0, 0.0, 103.0],
    [1.0, 0.0, 0.0, 0.0],
    [0.0, 0.0, 1.0, 0.0],
    [0.0, 0.0, 0.0, 1.0]
],
  "dcmmeta_shape": [104, 104, 60, 511],
  "dcmmeta_slice_dim": 2,
  "dcmmeta_version": 0.6,
  "global": {
    "const": {
      "AcquisitionMatrix": [104, 0, 0, 104],
      "AngioFlag": "N",
      "BitsAllocated": 16,
      "BitsStored": 16,
      "BodyPartExamined": "BRAIN",
      "Columns": 832,
      "EchoNumbers": 1,
      "EchoTime": 37.0,
      "EchoTrainLength": 104,
      "FlipAngle": 52.0,
      "HighBit": 15,
      "ImageOrientationPatient": [0.9991803107675, 0.03970981630823, -0.0078636545783, -0.0404805335396, 0.98100843282172, -0.1896939143384],
      "ImagePositionPatient": [-797.86803608226, -861.66396057257, 116.75039321883],
      "ImageType": [
        "ORIGINAL",
        "PRIMARY",
        "M",
        "MB",
        "ND",
        "MOSAIC"
],
      "ImagedNucleus": "1H",
      "ImagingFrequency": 123.249757,
      "InPlanePhaseEncodingDirection": "COL",
      "MRAcquisitionType": "2D",
      "MagneticFieldStrength": 3.0,
      "Manufacturer": "SIEMENS",
      "ManufacturerModelName": "Prisma_fit",
      "Modality": "MR",
      "NumberOfAverages": 1.0,
      "NumberOfPhaseEncodingSteps": 104,
      "PercentPhaseFieldOfView": 100.0,
      "PercentSampling": 100.0,
      "PerformedProcedureStepStartTime": "135607.772000",
      "PhotometricInterpretation": "MONOCHROME2",
      "PixelBandwidth": 2290.0,
      "PixelRepresentation": 0,
      "PixelSpacing": [2.0, 2.0],
      "ProtocolName": "func_task-friends-s07e18b",
      "RepetitionTime": 1490.0,
      "Rows": 832,
      "SAR": 0.05839243332989,
      "SamplesPerPixel": 1,
      "ScanOptions": "FS",
      "ScanningSequence": "EP",
      "SequenceName": "epfid2d1_104",
      "SequenceVariant": [
        "SK",
        "SS"
],
      "SeriesDescription": "func_task-friends-s07e18b",
      "SeriesNumber": 12,
      "SeriesTime": "141457.585000",
      "SliceLocation": -49.110700066351,
      "SliceThickness": 2.0,
      "SmallestImagePixelValue": 0,
      "SoftwareVersions": "syngo MR E11",
      "SpacingBetweenSlices": 2.0000000594711,
      "SpecificCharacterSet": "ISO_IR 100",
      "StudyID": "1",
      "StudyTime": "135607.698000",
      "TransmitCoilName": "Body",
      "VariableFlipAngleFlag": "N",
      "WindowCenterWidthExplanation": "Algo1",
      "dBdt": 0.0},
    "slices": {}
  },
  "time": {
    "samples": {
      "AcquisitionNumber": [1, 2, 3, 4, 5, 6, 7, 8, 9, 10, 11, 12, 13, 14, 15, 16, 17, 18, 19, 20, 21, 22, 23, 24, 25, 26, 27, 28, 29, 30, 31, 32, 33, 34, 35, 36, 37, 38, 39, 40, 41, 42, 43, 44, 45, 46, 47, 48, 49, 50, 51, 52, 53, 54, 55, 56, 57, 58, 59, 60, 61, 62, 63, 64, 65, 66, 67, 68, 69, 70, 71, 72, 73, 74, 75, 76, 77, 78, 79, 80, 81, 82, 83, 84, 85, 86, 87, 88, 89, 90, 91, 92, 93, 94, 95, 96, 97, 98, 99, 100, 101, 102, 103, 104, 105, 106, 107, 108, 109, 110, 111, 112, 113, 114, 115, 116, 117, 118, 119, 120, 121, 122, 123, 124, 125, 126, 127, 128, 129, 130, 131, 132, 133, 134, 135, 136, 137, 138, 139, 140, 141, 142, 143, 144, 145, 146, 147, 148, 149, 150, 151, 152, 153, 154, 155, 156, 157, 158, 159, 160, 161, 162, 163, 164, 165, 166, 167, 168, 169, 170, 171, 172, 173, 174, 175, 176, 177, 178, 179, 180, 181, 182, 183, 184, 185, 186, 187, 188, 189, 190, 191, 192, 193, 194, 195, 196, 197, 198, 199, 200, 201, 202, 203, 204, 205, 206, 207, 208, 209, 210, 211, 212, 213, 214, 215, 216, 217, 218, 219, 220, 221, 222, 223, 224, 225, 226, 227, 228, 229, 230, 231, 232, 233, 234, 235, 236, 237, 238, 239, 240, 241, 242, 243, 244, 245, 246, 247, 248, 249, 250, 251, 252, 253, 254, 255, 256, 257, 258, 259, 260, 261, 262, 263, 264, 265, 266, 267, 268, 269, 270, 271, 272, 273, 274, 275, 276, 277, 278, 279, 280, 281, 282, 283, 284, 285, 286, 287, 288, 289, 290, 291, 292, 293, 294, 295, 296, 297, 298, 299, 300, 301, 302, 303, 304, 305, 306, 307, 308, 309, 310, 311, 312, 313, 314, 315, 316, 317, 318, 319, 320, 321, 322, 323, 324, 325, 326, 327, 328, 329, 330, 331, 332, 333, 334, 335, 336, 337, 338, 339, 340, 341, 342, 343, 344, 345, 346, 347, 348, 349, 350, 351, 352, 353, 354, 355, 356, 357, 358, 359, 360, 361, 362, 363, 364, 365, 366, 367, 368, 369, 370, 371, 372, 373, 374, 375, 376, 377, 378, 379, 380, 381, 382, 383, 384, 385, 386, 387, 388, 389, 390, 391, 392, 393, 394, 395, 396, 397, 398, 399, 400, 401, 402, 403, 404, 405, 406, 407, 408, 409, 410, 411, 412, 413, 414, 415, 416, 417, 418, 419, 420, 421, 422, 423, 424, 425, 426, 427, 428, 429, 430, 431, 432, 433, 434, 435, 436, 437, 438, 439, 440, 441, 442, 443, 444, 445, 446, 447, 448, 449, 450, 451, 452, 453, 454, 455, 456, 457, 458, 459, 460, 461, 462, 463, 464, 465, 466, 467, 468, 469, 470, 471, 472, 473, 474, 475, 476, 477, 478, 479, 480, 481, 482, 483, 484, 485, 486, 487, 488, 489, 490, 491, 492, 493, 494, 495, 496, 497, 498, 499, 500, 501, 502, 503, 504, 505, 506, 507, 508, 509, 510, 511],
      "AcquisitionTime": ["141357.060000", "141358.550000", "141400.040000", "141401.530000", "141403.020000", "141404.510000", "141406.000000", "141407.490000", "141408.980000", "141410.470000", "141411.960000", "141413.450000", "141414.940000", "141416.430000", "141417.920000", "141419.410000", "141420.900000", "141422.390000", "141423.880000", "141425.370000", "141426.860000", "141428.350000", "141429.840000", "141431.330000", "141432.820000", "141434.310000", "141435.800000", "141437.290000", "141438.780000", "141440.270000", "141441.760000", "141443.250000", "141444.740000", "141446.230000", "141447.720000", "141449.210000", "141450.700000", "141452.190000", "141453.680000", "141455.170000", "141456.660000", "141458.150000", "141459.640000", "141501.130000", "141502.620000", "141504.110000", "141505.600000", "141507.090000", "141508.580000", "141510.070000", "141511.560000", "141513.050000", "141514.540000", "141516.030000", "141517.520000", "141519.010000", "141520.500000", "141521.990000", "141523.480000", "141524.970000", "141526.460000", "141527.950000", "141529.440000", "141530.930000", "141532.420000", "141533.910000", "141535.400000", "141536.890000", "141538.380000", "141539.870000", "141541.360000", "141542.850000", "141544.340000", "141545.830000", "141547.320000", "141548.810000", "141550.300000", "141551.790000", "141553.280000", "141554.770000", "141556.260000", "141557.750000", "141559.240000", "141600.730000", "141602.220000", "141603.710000", "141605.200000", "141606.690000", "141608.180000", "141609.670000", "141611.160000", "141612.650000", "141614.140000", "141615.630000", "141617.120000", "141618.610000", "141620.100000", "141621.590000", "141623.080000", "141624.570000", "141626.060000", "141627.550000", "141629.040000", "141630.530000", "141632.020000", "141633.510000", "141635.000000", "141636.490000", "141637.980000", "141639.470000", "141640.960000", "141642.450000", "141643.940000", "141645.430000", "141646.920000", "141648.410000", "141649.900000", "141651.390000", "141652.880000", "141654.370000", "141655.860000", "141657.350000", "141658.840000", "141700.330000", "141701.820000", "141703.310000", "141704.800000", "141706.290000", "141707.780000", "141709.270000", "141710.760000", "141712.250000", "141713.740000", "141715.230000", "141716.720000", "141718.210000", "141719.700000", "141721.190000", "141722.680000", "141724.170000", "141725.660000", "141727.150000", "141728.640000", "141730.130000", "141731.620000", "141733.110000", "141734.600000", "141736.090000", "141737.580000", "141739.070000", "141740.560000", "141742.050000", "141743.540000", "141745.030000", "141746.520000", "141748.010000", "141749.500000", "141750.990000", "141752.480000", "141753.970000", "141755.460000", "141756.950000", "141758.440000", "141759.930000", "141801.420000", "141802.910000", "141804.400000", "141805.890000", "141807.380000", "141808.870000", "141810.360000", "141811.850000", "141813.340000", "141814.830000", "141816.320000", "141817.810000", "141819.300000", "141820.790000", "141822.280000", "141823.770000", "141825.260000", "141826.750000", "141828.240000", "141829.730000", "141831.220000", "141832.710000", "141834.200000", "141835.690000", "141837.180000", "141838.670000", "141840.160000", "141841.650000", "141843.140000", "141844.630000", "141846.120000", "141847.610000", "141849.100000", "141850.590000", "141852.080000", "141853.570000", "141855.060000", "141856.550000", "141858.040000", "141859.530000", "141901.020000", "141902.510000", "141904.000000", "141905.490000", "141906.980000", "141908.470000", "141909.960000", "141911.450000", "141912.940000", "141914.430000", "141915.920000", "141917.410000", "141918.900000", "141920.390000", "141921.880000", "141923.370000", "141924.860000", "141926.350000", "141927.840000", "141929.330000", "141930.820000", "141932.310000", "141933.800000", "141935.290000", "141936.780000", "141938.270000", "141939.760000", "141941.250000", "141942.740000", "141944.230000", "141945.720000", "141947.210000", "141948.700000", "141950.190000", "141951.680000", "141953.170000", "141954.660000", "141956.150000", "141957.640000", "141959.130000", "142000.620000", "142002.110000", "142003.600000", "142005.090000", "142006.580000", "142008.070000", "142009.560000", "142011.050000", "142012.540000", "142014.030000", "142015.520000", "142017.010000", "142018.500000", "142019.990000", "142021.480000", "142022.970000", "142024.460000", "142025.950000", "142027.440000", "142028.930000", "142030.420000", "142031.910000", "142033.400000", "142034.890000", "142036.380000", "142037.870000", "142039.360000", "142040.850000", "142042.340000", "142043.830000", "142045.320000", "142046.810000", "142048.300000", "142049.790000", "142051.280000", "142052.770000", "142054.260000", "142055.750000", "142057.240000", "142058.730000", "142100.220000", "142101.710000", "142103.200000", "142104.690000", "142106.180000", "142107.670000", "142109.160000", "142110.650000", "142112.140000", "142113.630000", "142115.120000", "142116.610000", "142118.100000", "142119.590000", "142121.080000", "142122.570000", "142124.060000", "142125.550000", "142127.040000", "142128.530000", "142130.020000", "142131.510000", "142133.000000", "142134.490000", "142135.980000", "142137.470000", "142138.960000", "142140.450000", "142141.940000", "142143.430000", "142144.920000", "142146.410000", "142147.900000", "142149.390000", "142150.880000", "142152.370000", "142153.860000", "142155.350000", "142156.840000", "142158.330000", "142159.820000", "142201.310000", "142202.800000", "142204.290000", "142205.780000", "142207.270000", "142208.760000", "142210.250000", "142211.740000", "142213.230000", "142214.720000", "142216.210000", "142217.700000", "142219.190000", "142220.680000", "142222.170000", "142223.660000", "142225.150000", "142226.640000", "142228.130000", "142229.620000", "142231.110000", "142232.600000", "142234.090000", "142235.580000", "142237.070000", "142238.560000", "142240.050000", "142241.540000", "142243.030000", "142244.520000", "142246.010000", "142247.500000", "142248.990000", "142250.480000", "142251.970000", "142253.460000", "142254.950000", "142256.440000", "142257.930000", "142259.420000", "142300.910000", "142302.400000", "142303.890000", "142305.380000", "142306.870000", "142308.360000", "142309.850000", "142311.340000", "142312.830000", "142314.320000", "142315.810000", "142317.300000", "142318.790000", "142320.280000", "142321.770000", "142323.260000", "142324.750000", "142326.240000", "142327.730000", "142329.220000", "142330.710000", "142332.200000", "142333.690000", "142335.180000", "142336.670000", "142338.160000", "142339.650000", "142341.140000", "142342.630000", "142344.120000", "142345.610000", "142347.100000", "142348.590000", "142350.080000", "142351.570000", "142353.060000", "142354.550000", "142356.040000", "142357.530000", "142359.020000", "142400.510000", "142402.000000", "142403.490000", "142404.980000", "142406.470000", "142407.960000", "142409.450000", "142410.940000", "142412.430000", "142413.920000", "142415.410000", "142416.900000", "142418.390000", "142419.880000", "142421.370000", "142422.860000", "142424.350000", "142425.840000", "142427.330000", "142428.820000", "142430.310000", "142431.800000", "142433.290000", "142434.780000", "142436.270000", "142437.760000", "142439.250000", "142440.740000", "142442.230000", "142443.720000", "142445.210000", "142446.700000", "142448.190000", "142449.680000", "142451.170000", "142452.660000", "142454.150000", "142455.640000", "142457.130000", "142458.620000", "142500.110000", "142501.600000", "142503.090000", "142504.580000", "142506.070000", "142507.560000", "142509.050000", "142510.540000", "142512.030000", "142513.520000", "142515.010000", "142516.500000", "142517.990000", "142519.480000", "142520.970000", "142522.460000", "142523.950000", "142525.440000", "142526.930000", "142528.420000", "142529.910000", "142531.400000", "142532.890000", "142534.380000", "142535.870000", "142537.360000", "142538.850000", "142540.340000", "142541.830000", "142543.320000", "142544.810000", "142546.300000", "142547.790000", "142549.280000", "142550.770000", "142552.260000", "142553.750000", "142555.240000", "142556.730000", "142558.220000", "142559.710000", "142601.200000", "142602.690000", "142604.180000", "142605.670000", "142607.160000", "142608.650000", "142610.140000", "142611.630000", "142613.120000", "142614.610000", "142616.100000", "142617.590000", "142619.080000", "142620.570000", "142622.060000", "142623.550000", "142625.040000", "142626.530000", "142628.020000", "142629.510000", "142631.000000", "142632.490000", "142633.980000", "142635.470000", "142636.960000"],
      "ContentTime": ["141457.587000", "141457.591000", "141457.594000", "141457.596000", "141457.599000", "141457.602000", "141457.605000", "141457.608000", "141457.611000", "141457.614000", "141457.617000", "141517.561000", "141517.564000", "141517.567000", "141517.571000", "141517.573000", "141517.576000", "141517.579000", "141517.582000", "141517.585000", "141517.588000", "141517.591000", "141517.594000", "141517.604000", "141517.607000", "141517.619000", "141517.621000", "141517.624000", "141517.627000", "141517.630000", "141517.633000", "141537.561000", "141537.564000", "141537.567000", "141537.570000", "141537.573000", "141537.576000", "141537.579000", "141537.582000", "141537.585000", "141537.588000", "141537.590000", "141537.593000", "141537.596000", "141537.599000", "141537.602000", "141537.605000", "141537.608000", "141537.611000", "141537.614000", "141537.617000", "141557.561000", "141557.569000", "141557.572000", "141557.575000", "141557.578000", "141557.581000", "141557.584000", "141557.587000", "141557.590000", "141557.593000", "141557.596000", "141557.599000", "141557.602000", "141557.605000", "141557.608000", "141557.611000", "141557.614000", "141557.617000", "141557.620000", "141557.628000", "141557.631000", "141617.561000", "141617.564000", "141617.567000", "141617.570000", "141617.579000", "141617.582000", "141617.585000", "141617.588000", "141617.591000", "141617.595000", "141617.598000", "141617.600000", "141617.604000", "141617.611000", "141617.614000", "141617.617000", "141617.620000", "141617.623000", "141617.626000", "141617.629000", "141657.561000", "141657.564000", "141657.567000", "141657.570000", "141657.574000", "141657.577000", "141657.580000", "141657.582000", "141657.585000", "141657.588000", "141657.591000", "141657.594000", "141657.597000", "141657.600000", "141657.603000", "141657.606000", "141657.609000", "141657.612000", "141657.615000", "141657.617000", "141657.620000", "141657.623000", "141657.626000", "141657.629000", "141657.639000", "141657.641000", "141657.644000", "141657.647000", "141737.561000", "141737.564000", "141737.567000", "141737.570000", "141737.573000", "141737.576000", "141737.585000", "141737.588000", "141737.591000", "141737.594000", "141737.597000", "141737.600000", "141737.603000", "141737.606000", "141737.609000", "141737.612000", "141737.615000", "141737.618000", "141737.621000", "141737.624000", "141737.627000", "141737.630000", "141737.632000", "141737.635000", "141737.638000", "141737.641000", "141737.644000", "141817.561000", "141817.564000", "141817.567000", "141817.570000", "141817.573000", "141817.576000", "141817.579000", "141817.582000", "141817.585000", "141817.588000", "141817.591000", "141817.594000", "141817.597000", "141817.600000", "141817.603000", "141817.606000", "141817.609000", "141817.611000", "141817.614000", "141817.617000", "141817.620000", "141817.623000", "141817.626000", "141817.629000", "141817.632000", "141817.635000", "141817.650000", "141857.561000", "141857.564000", "141857.567000", "141857.570000", "141857.577000", "141857.580000", "141857.583000", "141857.586000", "141857.589000", "141857.592000", "141857.594000", "141857.597000", "141857.600000", "141857.603000", "141857.606000", "141857.609000", "141857.612000", "141857.615000", "141857.618000", "141857.621000", "141857.624000", "141857.627000", "141857.630000", "141857.633000", "141857.636000", "141857.638000", "141857.641000", "141937.561000", "141937.564000", "141937.567000", "141937.570000", "141937.573000", "141937.576000", "141937.591000", "141937.594000", "141937.597000", "141937.610000", "141937.613000", "141937.616000", "141937.619000", "141937.622000", "141937.625000", "141937.628000", "141937.631000", "141937.634000", "141937.636000", "141937.640000", "141937.642000", "141937.645000", "141937.648000", "141937.651000", "141937.654000", "141937.657000", "141937.660000", "142017.561000", "142017.564000", "142017.567000", "142017.570000", "142017.581000", "142017.585000", "142017.588000", "142017.591000", "142017.594000", "142017.597000", "142017.600000", "142017.603000", "142017.606000", "142017.609000", "142017.612000", "142017.615000", "142017.618000", "142017.621000", "142017.624000", "142017.627000", "142017.630000", "142017.633000", "142017.636000", "142017.639000", "142017.642000", "142017.645000", "142057.561000", "142057.564000", "142057.567000", "142057.570000", "142057.573000", "142057.576000", "142057.579000", "142057.582000", "142057.585000", "142057.588000", "142057.590000", "142057.593000", "142057.596000", "142057.599000", "142057.602000", "142057.605000", "142057.608000", "142057.611000", "142057.614000", "142057.617000", "142057.635000", "142057.638000", "142057.641000", "142057.644000", "142057.647000", "142057.650000", "142057.653000", "142137.561000", "142137.564000", "142137.575000", "142137.580000", "142137.583000", "142137.586000", "142137.589000", "142137.592000", "142137.595000", "142137.598000", "142137.601000", "142137.604000", "142137.607000", "142137.610000", "142137.613000", "142137.616000", "142137.619000", "142137.622000", "142137.625000", "142137.628000", "142137.630000", "142137.633000", "142137.636000", "142137.639000", "142137.642000", "142137.645000", "142137.648000", "142217.561000", "142217.564000", "142217.567000", "142217.570000", "142217.573000", "142217.576000", "142217.579000", "142217.582000", "142217.585000", "142217.588000", "142217.591000", "142217.593000", "142217.596000", "142217.599000", "142217.602000", "142217.605000", "142217.614000", "142217.617000", "142217.620000", "142217.623000", "142217.626000", "142217.639000", "142217.642000", "142217.645000", "142217.648000", "142217.651000", "142217.654000", "142257.561000", "142257.564000", "142257.567000", "142257.570000", "142257.573000", "142257.576000", "142257.579000", "142257.582000", "142257.585000", "142257.588000", "142257.591000", "142257.593000", "142257.596000", "142257.599000", "142257.602000", "142257.605000", "142257.608000", "142257.611000", "142257.614000", "142257.617000", "142257.620000", "142257.623000", "142257.625000", "142257.628000", "142257.631000", "142257.634000", "142257.637000", "142337.561000", "142337.564000", "142337.567000", "142337.570000", "142337.573000", "142337.576000", "142337.586000", "142337.589000", "142337.592000", "142337.595000", "142337.598000", "142337.601000", "142337.604000", "142337.607000", "142337.610000", "142337.613000", "142337.615000", "142337.618000", "142337.621000", "142337.624000", "142337.627000", "142337.630000", "142337.633000", "142337.636000", "142337.639000", "142337.642000", "142337.645000", "142417.561000", "142417.564000", "142417.567000", "142417.577000", "142417.580000", "142417.583000", "142417.586000", "142417.589000", "142417.592000", "142417.595000", "142417.598000", "142417.601000", "142417.604000", "142417.607000", "142417.610000", "142417.613000", "142417.616000", "142417.619000", "142417.621000", "142417.624000", "142417.627000", "142417.630000", "142417.633000", "142417.636000", "142417.639000", "142417.642000", "142417.645000", "142457.561000", "142457.565000", "142457.568000", "142457.571000", "142457.580000", "142457.583000", "142457.586000", "142457.589000", "142457.592000", "142457.595000", "142457.598000", "142457.601000", "142457.604000", "142457.607000", "142457.610000", "142457.613000", "142457.616000", "142457.619000", "142457.622000", "142457.625000", "142457.628000", "142457.631000", "142457.634000", "142457.637000", "142457.639000", "142457.642000", "142537.561000", "142537.564000", "142537.567000", "142537.570000", "142537.577000", "142537.580000", "142537.583000", "142537.586000", "142537.589000", "142537.592000", "142537.595000", "142537.598000", "142537.601000", "142537.604000", "142537.607000", "142537.609000", "142537.612000", "142537.615000", "142537.618000", "142537.621000", "142537.624000", "142537.627000", "142537.630000", "142537.633000", "142537.636000", "142537.639000", "142537.641000", "142617.561000", "142617.564000", "142617.567000", "142617.570000", "142617.573000", "142617.576000", "142617.579000", "142617.582000", "142617.585000", "142617.588000", "142617.591000", "142617.594000", "142617.597000", "142617.600000", "142617.603000", "142617.606000", "142617.609000", "142617.611000", "142617.614000", "142617.617000", "142617.620000", "142617.623000", "142617.626000", "142617.629000", "142617.632000", "142617.634000", "142617.637000", "142639.055000", "142639.058000", "142639.061000", "142639.064000", "142639.067000", "142639.070000", "142639.073000", "142639.075000", "142639.078000", "142639.081000", "142639.086000", "142639.089000", "142639.092000", "142639.095000", "142639.098000"],
