{
  "AcquisitionMatrixPE": 104,
  "AcquisitionNumber": 1,
  "AcquisitionTime": "11:35:21.860000",
  "BandwidthPerPixelPhaseEncode": 17.17,
  "BaseResolution": 104,
  "BodyPartExamined": "BRAIN",
  "CoilString": "HC1-7;NC1_2",
  "ConsistencyInfo": "N4_VE11C_LATEST_20160120",
  "ConversionSoftware": "dcm2niix",
  "ConversionSoftwareVersion": "v1.0.20190720  (JP2:OpenJPEG) GCC7.3.0",
  "DerivedVendorReportedEchoSpacing": 0.000560011,
  "DeviceSerialNumber": "167006",
  "DwellTime": 2.1e-06,
  "EchoTime": 0.037,
  "EchoTrainLength": 104,
  "EffectiveEchoSpacing": 0.000560011,
  "FlipAngle": 52,
  "ImageComments": "Unaliased_MB4_PE3_LB",
  "ImageOrientationPatientDICOM": [0.999982, -0.0039483, 0.00456685, 0.00523594, 0.943777, -0.330542],
  "ImageType": [
    "ORIGINAL",
    "PRIMARY",
    "M",
    "MB",
    "ND",
    "MOSAIC"
],
  "ImagingFrequency": 123.259,
  "InPlanePhaseEncodingDirectionDICOM": "COL",
  "InstitutionAddress": "Chemin_Queen-Mary_4565_Montreal_District_CA_H3W_1W5",
  "InstitutionName": "IUGM",
  "InstitutionalDepartmentName": "Department",
  "MRAcquisitionType": "2D",
  "MagneticFieldStrength": 3,
  "Manufacturer": "Siemens",
  "ManufacturersModelName": "Prisma_fit",
  "Modality": "MR",
  "MultibandAccelerationFactor": 4,
  "PartialFourier": 1,
  "PatientPosition": "HFS",
  "PercentPhaseFOV": 100,
  "PhaseEncodingDirection": "j",
  "PhaseEncodingSteps": 104,
  "PhaseResolution": 1,
  "PixelBandwidth": 2290,
  "ProcedureStepDescription": "video_friends",
  "ProtocolName": "func_task-friends-s01e12b",
  "PulseSequenceDetails": "%CustomerSeq%_cmrr_mbep2d_bold",
  "ReceiveCoilActiveElements": "HC1-7;NC1,2",
  "ReceiveCoilName": "HeadNeck_64",
  "ReconMatrixPE": 104,
  "RepetitionTime": 1.49,
  "SAR": 0.0308095,
  "ScanOptions": "FS",
  "ScanningSequence": "EP",
  "SequenceName": "epfid2d1_104",
  "SequenceVariant": "SK_SS",
  "SeriesDescription": "func_task-friends-s01e12b",
  "SeriesNumber": 14,
  "ShimSetting": [625, -7209, -8828, 699, 33, 15, -20, -6],
  "SliceThickness": 2,
  "SliceTiming": [0, 0.785, 0.1, 0.8825, 0.1975, 0.98, 0.295, 1.08, 0.3925, 1.1775, 0.49, 1.275, 0.59, 1.3725, 0.6875, 0, 0.785, 0.1, 0.8825, 0.1975, 0.98, 0.295, 1.08, 0.3925, 1.1775, 0.49, 1.275, 0.59, 1.3725, 0.6875, 0, 0.785, 0.1, 0.8825, 0.1975, 0.98, 0.295, 1.08, 0.3925, 1.1775, 0.49, 1.275, 0.59, 1.3725, 0.6875, 0, 0.785, 0.1, 0.8825, 0.1975, 0.98, 0.295, 1.08, 0.3925, 1.1775, 0.49, 1.275, 0.59, 1.3725, 0.6875],
  "SoftwareVersions": "syngo_MR_E11",
  "SpacingBetweenSlices": 2,
  "StationName": "MRC35049",
  "TaskName": "friends",
  "TotalReadoutTime": 0.0576811,
  "TxRefAmp": 210.877,
  "WipMemBlock": "375dfc4e-96e6-457b-9a94-48e416c97b5e||Sequence: R016 ve11c/master r/e634e98; Dec 19 2017 11:00:25 by eja",
  "dcmmeta_affine": [
    [-1.9999635219573975, 0.0104718878865242, 0.006010028533637524, 104.14241790771484],
    [0.007896597497165203, 1.8875536918640137, -0.6611191630363464, -78.85737609863281],
    [0.009133708663284779, 0.6610833406448364, 1.8875607252120972, -73.6021957397461],
    [0.0, 0.0, 0.0, 1.0]
],
  "dcmmeta_reorient_transform": [
    [0.0, -1.0, 0.0, 103.0],
    [1.0, 0.0, 0.0, 0.0],
    [0.0, 0.0, 1.0, 0.0],
    [0.0, 0.0, 0.0, 1.0]
],
  "dcmmeta_shape": [104, 104, 60, 471],
  "dcmmeta_slice_dim": 2,
  "dcmmeta_version": 0.6,
  "global": {
    "const": {
      "AcquisitionMatrix": [104, 0, 0, 104],
      "AngioFlag": "N",
      "BitsAllocated": 16,
      "BitsStored": 16,
      "BodyPartExamined": "BRAIN",
      "Columns": 832,
      "EchoNumbers": 1,
      "EchoTime": 37.0,
      "EchoTrainLength": 104,
      "FlipAngle": 52.0,
      "HighBit": 15,
      "ImageOrientationPatient": [0.99998177722347, -0.0039482986011, 0.0045668544052, 0.00523594403213, 0.94377687223717, -0.3305416771306],
      "ImagePositionPatient": [-837.01952010366, -799.75586424728, 231.79905757345],
      "ImageType": [
        "ORIGINAL",
        "PRIMARY",
        "M",
        "MB",
        "ND",
        "MOSAIC"
],
      "ImagedNucleus": "1H",
      "ImagingFrequency": 123.259194,
      "InPlanePhaseEncodingDirection": "COL",
      "MRAcquisitionType": "2D",
      "MagneticFieldStrength": 3.0,
      "Manufacturer": "SIEMENS",
      "ManufacturerModelName": "Prisma_fit",
      "Modality": "MR",
      "NumberOfAverages": 1.0,
      "NumberOfPhaseEncodingSteps": 104,
      "PercentPhaseFieldOfView": 100.0,
      "PercentSampling": 100.0,
      "PerformedProcedureStepStartTime": "103727.216000",
      "PhotometricInterpretation": "MONOCHROME2",
      "PixelBandwidth": 2290.0,
      "PixelRepresentation": 0,
      "PixelSpacing": [2.0, 2.0],
      "ProtocolName": "func_task-friends-s01e12b",
      "RepetitionTime": 1490.0,
      "Rows": 832,
      "SAR": 0.03080954308722,
      "SamplesPerPixel": 1,
      "ScanOptions": "FS",
      "ScanningSequence": "EP",
      "SequenceName": "epfid2d1_104",
      "SequenceVariant": [
        "SK",
        "SS"
],
      "SeriesDescription": "func_task-friends-s01e12b",
      "SeriesNumber": 14,
      "SeriesTime": "113636.839000",
      "SliceLocation": -43.084300365621,
      "SliceThickness": 2.0,
      "SmallestImagePixelValue": 0,
      "SoftwareVersions": "syngo MR E11",
      "SpacingBetweenSlices": 2.0000000067397,
      "SpecificCharacterSet": "ISO_IR 100",
      "StudyID": "1",
      "StudyTime": "103727.136000",
      "TransmitCoilName": "Body",
      "VariableFlipAngleFlag": "N",
      "WindowCenterWidthExplanation": "Algo1",
      "dBdt": 0.0},
    "slices": {}
  },
  "time": {
    "samples": {
      "AcquisitionNumber": [1, 2, 3, 4, 5, 6, 7, 8, 9, 10, 11, 12, 13, 14, 15, 16, 17, 18, 19, 20, 21, 22, 23, 24, 25, 26, 27, 28, 29, 30, 31, 32, 33, 34, 35, 36, 37, 38, 39, 40, 41, 42, 43, 44, 45, 46, 47, 48, 49, 50, 51, 52, 53, 54, 55, 56, 57, 58, 59, 60, 61, 62, 63, 64, 65, 66, 67, 68, 69, 70, 71, 72, 73, 74, 75, 76, 77, 78, 79, 80, 81, 82, 83, 84, 85, 86, 87, 88, 89, 90, 91, 92, 93, 94, 95, 96, 97, 98, 99, 100, 101, 102, 103, 104, 105, 106, 107, 108, 109, 110, 111, 112, 113, 114, 115, 116, 117, 118, 119, 120, 121, 122, 123, 124, 125, 126, 127, 128, 129, 130, 131, 132, 133, 134, 135, 136, 137, 138, 139, 140, 141, 142, 143, 144, 145, 146, 147, 148, 149, 150, 151, 152, 153, 154, 155, 156, 157, 158, 159, 160, 161, 162, 163, 164, 165, 166, 167, 168, 169, 170, 171, 172, 173, 174, 175, 176, 177, 178, 179, 180, 181, 182, 183, 184, 185, 186, 187, 188, 189, 190, 191, 192, 193, 194, 195, 196, 197, 198, 199, 200, 201, 202, 203, 204, 205, 206, 207, 208, 209, 210, 211, 212, 213, 214, 215, 216, 217, 218, 219, 220, 221, 222, 223, 224, 225, 226, 227, 228, 229, 230, 231, 232, 233, 234, 235, 236, 237, 238, 239, 240, 241, 242, 243, 244, 245, 246, 247, 248, 249, 250, 251, 252, 253, 254, 255, 256, 257, 258, 259, 260, 261, 262, 263, 264, 265, 266, 267, 268, 269, 270, 271, 272, 273, 274, 275, 276, 277, 278, 279, 280, 281, 282, 283, 284, 285, 286, 287, 288, 289, 290, 291, 292, 293, 294, 295, 296, 297, 298, 299, 300, 301, 302, 303, 304, 305, 306, 307, 308, 309, 310, 311, 312, 313, 314, 315, 316, 317, 318, 319, 320, 321, 322, 323, 324, 325, 326, 327, 328, 329, 330, 331, 332, 333, 334, 335, 336, 337, 338, 339, 340, 341, 342, 343, 344, 345, 346, 347, 348, 349, 350, 351, 352, 353, 354, 355, 356, 357, 358, 359, 360, 361, 362, 363, 364, 365, 366, 367, 368, 369, 370, 371, 372, 373, 374, 375, 376, 377, 378, 379, 380, 381, 382, 383, 384, 385, 386, 387, 388, 389, 390, 391, 392, 393, 394, 395, 396, 397, 398, 399, 400, 401, 402, 403, 404, 405, 406, 407, 408, 409, 410, 411, 412, 413, 414, 415, 416, 417, 418, 419, 420, 421, 422, 423, 424, 425, 426, 427, 428, 429, 430, 431, 432, 433, 434, 435, 436, 437, 438, 439, 440, 441, 442, 443, 444, 445, 446, 447, 448, 449, 450, 451, 452, 453, 454, 455, 456, 457, 458, 459, 460, 461, 462, 463, 464, 465, 466, 467, 468, 469, 470, 471],
      "AcquisitionTime": ["113521.860000", "113523.350000", "113524.840000", "113526.330000", "113527.820000", "113529.310000", "113530.800000", "113532.290000", "113533.780000", "113535.270000", "113536.760000", "113538.250000", "113539.740000", "113541.230000", "113542.720000", "113544.210000", "113545.700000", "113547.190000", "113548.680000", "113550.170000", "113551.660000", "113553.150000", "113554.640000", "113556.130000", "113557.620000", "113559.110000", "113600.600000", "113602.090000", "113603.580000", "113605.070000", "113606.560000", "113608.050000", "113609.540000", "113611.030000", "113612.520000", "113614.010000", "113615.500000", "113616.990000", "113618.480000", "113619.970000", "113621.460000", "113622.950000", "113624.440000", "113625.930000", "113627.420000", "113628.910000", "113630.400000", "113631.890000", "113633.380000", "113634.870000", "113636.360000", "113637.850000", "113639.340000", "113640.830000", "113642.320000", "113643.810000", "113645.300000", "113646.790000", "113648.280000", "113649.770000", "113651.260000", "113652.750000", "113654.240000", "113655.730000", "113657.220000", "113658.710000", "113700.200000", "113701.690000", "113703.180000", "113704.670000", "113706.160000", "113707.650000", "113709.140000", "113710.630000", "113712.120000", "113713.610000", "113715.100000", "113716.590000", "113718.080000", "113719.570000", "113721.060000", "113722.550000", "113724.040000", "113725.530000", "113727.020000", "113728.510000", "113730.000000", "113731.490000", "113732.980000", "113734.470000", "113735.960000", "113737.450000", "113738.940000", "113740.430000", "113741.920000", "113743.410000", "113744.900000", "113746.390000", "113747.880000", "113749.370000", "113750.860000", "113752.350000", "113753.840000", "113755.330000", "113756.820000", "113758.310000", "113759.800000", "113801.290000", "113802.780000", "113804.270000", "113805.760000", "113807.250000", "113808.740000", "113810.230000", "113811.720000", "113813.210000", "113814.700000", "113816.190000", "113817.680000", "113819.170000", "113820.660000", "113822.150000", "113823.640000", "113825.130000", "113826.620000", "113828.110000", "113829.600000", "113831.090000", "113832.580000", "113834.070000", "113835.560000", "113837.050000", "113838.540000", "113840.030000", "113841.520000", "113843.010000", "113844.500000", "113845.990000", "113847.480000", "113848.970000", "113850.460000", "113851.950000", "113853.440000", "113854.930000", "113856.420000", "113857.910000", "113859.400000", "113900.890000", "113902.380000", "113903.870000", "113905.360000", "113906.850000", "113908.340000", "113909.830000", "113911.320000", "113912.810000", "113914.300000", "113915.790000", "113917.280000", "113918.770000", "113920.260000", "113921.750000", "113923.240000", "113924.730000", "113926.220000", "113927.710000", "113929.200000", "113930.690000", "113932.180000", "113933.670000", "113935.160000", "113936.650000", "113938.140000", "113939.630000", "113941.120000", "113942.610000", "113944.100000", "113945.590000", "113947.080000", "113948.570000", "113950.060000", "113951.550000", "113953.040000", "113954.530000", "113956.020000", "113957.510000", "113959.000000", "114000.490000", "114001.980000", "114003.470000", "114004.960000", "114006.450000", "114007.940000", "114009.430000", "114010.920000", "114012.410000", "114013.900000", "114015.390000", "114016.880000", "114018.370000", "114019.860000", "114021.350000", "114022.840000", "114024.330000", "114025.820000", "114027.310000", "114028.800000", "114030.290000", "114031.780000", "114033.270000", "114034.760000", "114036.250000", "114037.740000", "114039.230000", "114040.720000", "114042.210000", "114043.700000", "114045.190000", "114046.680000", "114048.170000", "114049.660000", "114051.150000", "114052.640000", "114054.130000", "114055.620000", "114057.110000", "114058.600000", "114100.090000", "114101.580000", "114103.070000", "114104.560000", "114106.050000", "114107.540000", "114109.030000", "114110.520000", "114112.010000", "114113.500000", "114114.990000", "114116.480000", "114117.970000", "114119.460000", "114120.950000", "114122.440000", "114123.930000", "114125.420000", "114126.910000", "114128.400000", "114129.890000", "114131.380000", "114132.870000", "114134.360000", "114135.850000", "114137.340000", "114138.830000", "114140.320000", "114141.810000", "114143.300000", "114144.790000", "114146.280000", "114147.770000", "114149.260000", "114150.750000", "114152.240000", "114153.730000", "114155.220000", "114156.710000", "114158.200000", "114159.690000", "114201.180000", "114202.670000", "114204.160000", "114205.650000", "114207.140000", "114208.630000", "114210.120000", "114211.610000", "114213.100000", "114214.590000", "114216.080000", "114217.570000", "114219.060000", "114220.550000", "114222.040000", "114223.530000", "114225.020000", "114226.510000", "114228.000000", "114229.490000", "114230.980000", "114232.470000", "114233.960000", "114235.450000", "114236.940000", "114238.430000", "114239.920000", "114241.410000", "114242.900000", "114244.390000", "114245.880000", "114247.370000", "114248.860000", "114250.350000", "114251.840000", "114253.330000", "114254.820000", "114256.310000", "114257.800000", "114259.290000", "114300.780000", "114302.270000", "114303.760000", "114305.250000", "114306.740000", "114308.230000", "114309.720000", "114311.210000", "114312.700000", "114314.190000", "114315.680000", "114317.170000", "114318.660000", "114320.150000", "114321.640000", "114323.130000", "114324.620000", "114326.110000", "114327.600000", "114329.090000", "114330.580000", "114332.070000", "114333.560000", "114335.050000", "114336.540000", "114338.030000", "114339.520000", "114341.010000", "114342.500000", "114343.990000", "114345.480000", "114346.970000", "114348.460000", "114349.950000", "114351.440000", "114352.930000", "114354.420000", "114355.910000", "114357.400000", "114358.890000", "114400.380000", "114401.870000", "114403.360000", "114404.850000", "114406.340000", "114407.830000", "114409.320000", "114410.810000", "114412.300000", "114413.790000", "114415.280000", "114416.770000", "114418.260000", "114419.750000", "114421.240000", "114422.730000", "114424.220000", "114425.710000", "114427.200000", "114428.690000", "114430.180000", "114431.670000", "114433.160000", "114434.650000", "114436.140000", "114437.630000", "114439.120000", "114440.610000", "114442.100000", "114443.590000", "114445.080000", "114446.570000", "114448.060000", "114449.550000", "114451.040000", "114452.530000", "114454.020000", "114455.510000", "114457.000000", "114458.490000", "114459.980000", "114501.470000", "114502.960000", "114504.450000", "114505.940000", "114507.430000", "114508.920000", "114510.410000", "114511.900000", "114513.390000", "114514.880000", "114516.370000", "114517.860000", "114519.350000", "114520.840000", "114522.330000", "114523.820000", "114525.310000", "114526.800000", "114528.290000", "114529.780000", "114531.270000", "114532.760000", "114534.250000", "114535.740000", "114537.230000", "114538.720000", "114540.210000", "114541.700000", "114543.190000", "114544.680000", "114546.170000", "114547.660000", "114549.150000", "114550.640000", "114552.130000", "114553.620000", "114555.110000", "114556.600000", "114558.090000", "114559.580000", "114601.070000", "114602.560000", "114604.050000", "114605.540000", "114607.030000", "114608.520000", "114610.010000", "114611.500000", "114612.990000", "114614.480000", "114615.970000", "114617.460000", "114618.950000", "114620.440000", "114621.930000", "114623.420000", "114624.910000", "114626.400000", "114627.890000", "114629.380000", "114630.870000", "114632.360000", "114633.850000", "114635.340000", "114636.830000", "114638.320000", "114639.810000", "114641.300000", "114642.790000", "114644.280000", "114645.770000", "114647.260000", "114648.750000", "114650.240000", "114651.730000", "114653.220000", "114654.710000", "114656.200000", "114657.690000", "114659.180000", "114700.670000", "114702.160000"],
      "ContentTime": ["113636.841000", "113636.845000", "113636.848000", "113636.851000", "113636.854000", "113636.856000", "113636.859000", "113636.862000", "113636.865000", "113636.868000", "113636.871000", "113636.874000", "113636.877000", "113636.880000", "113636.883000", "113636.886000", "113636.889000", "113636.891000", "113636.894000", "113636.897000", "113636.900000", "113636.903000", "113656.811000", "113656.814000", "113656.817000", "113656.820000", "113656.823000", "113656.826000", "113656.829000", "113656.832000", "113656.835000", "113656.837000", "113656.840000", "113656.843000", "113656.846000", "113656.849000", "113656.862000", "113656.865000", "113656.868000", "113656.871000", "113656.874000", "113656.876000", "113656.879000", "113716.811000", "113716.814000", "113716.817000", "113716.820000", "113716.823000", "113716.826000", "113716.829000", "113716.832000", "113716.834000", "113716.837000", "113716.840000", "113716.843000", "113716.846000", "113716.849000", "113716.852000", "113716.855000", "113716.858000", "113716.860000", "113716.863000", "113716.866000", "113736.811000", "113736.814000", "113736.817000", "113736.820000", "113736.823000", "113736.826000", "113736.829000", "113736.832000", "113736.834000", "113736.837000", "113736.840000", "113736.843000", "113736.846000", "113736.849000", "113736.852000", "113736.855000", "113736.858000", "113736.861000", "113736.864000", "113736.867000", "113756.811000", "113756.856000", "113756.858000", "113756.861000", "113756.864000", "113756.867000", "113756.870000", "113756.873000", "113756.876000", "113756.879000", "113756.882000", "113756.885000", "113756.889000", "113756.892000", "113756.895000", "113756.898000", "113756.901000", "113756.904000", "113756.907000", "113756.910000", "113836.811000", "113836.814000", "113836.817000", "113836.820000", "113836.823000", "113836.826000", "113836.828000", "113836.831000", "113836.834000", "113836.837000", "113836.840000", "113836.843000", "113836.852000", "113836.855000", "113836.858000", "113836.861000", "113836.864000", "113836.867000", "113836.870000", "113836.873000", "113836.876000", "113836.879000", "113836.882000", "113836.885000", "113836.887000", "113836.890000", "113836.893000", "113916.811000", "113916.814000", "113916.817000", "113916.820000", "113916.823000", "113916.826000", "113916.829000", "113916.832000", "113916.835000", "113916.838000", "113916.840000", "113916.843000", "113916.846000", "113916.849000", "113916.852000", "113916.855000", "113916.858000", "113916.861000", "113916.864000", "113916.867000", "113916.870000", "113916.873000", "113916.876000", "113916.879000", "113916.882000", "113916.885000", "113916.887000", "113956.811000", "113956.814000", "113956.817000", "113956.820000", "113956.823000", "113956.826000", "113956.829000", "113956.832000", "113956.835000", "113956.838000", "113956.841000", "113956.844000", "113956.847000", "113956.850000", "113956.852000", "113956.855000", "113956.869000", "113956.872000", "113956.875000", "113956.878000", "113956.881000", "113956.884000", "113956.887000", "113956.890000", "113956.894000", "113956.897000", "113956.900000", "114036.811000", "114036.814000", "114036.817000", "114036.820000", "114036.823000", "114036.826000", "114036.829000", "114036.832000", "114036.835000", "114036.838000", "114036.841000", "114036.844000", "114036.846000", "114036.849000", "114036.852000", "114036.855000", "114036.858000", "114036.861000", "114036.870000", "114036.873000", "114036.876000", "114036.879000", "114036.882000", "114036.885000", "114036.888000", "114036.891000", "114036.894000", "114116.811000", "114116.814000", "114116.817000", "114116.820000", "114116.823000", "114116.826000", "114116.829000", "114116.832000", "114116.835000", "114116.838000", "114116.841000", "114116.844000", "114116.847000", "114116.850000", "114116.853000", "114116.855000", "114116.858000", "114116.861000", "114116.864000", "114116.867000", "114116.870000", "114116.873000", "114116.876000", "114116.879000", "114116.882000", "114116.885000", "114116.894000", "114156.811000", "114156.814000", "114156.817000", "114156.820000", "114156.823000", "114156.826000", "114156.829000", "114156.832000", "114156.835000", "114156.838000", "114156.841000", "114156.844000", "114156.847000", "114156.850000", "114156.853000", "114156.856000", "114156.859000", "114156.862000", "114156.865000", "114156.868000", "114156.871000", "114156.873000", "114156.876000", "114156.879000", "114156.882000", "114156.885000", "114236.811000", "114236.814000", "114236.817000", "114236.820000", "114236.823000", "114236.826000", "114236.829000", "114236.832000", "114236.835000", "114236.838000", "114236.841000", "114236.844000", "114236.847000", "114236.850000", "114236.853000", "114236.856000", "114236.859000", "114236.862000", "114236.864000", "114236.867000", "114236.870000", "114236.873000", "114236.876000", "114236.879000", "114236.882000", "114236.885000", "114236.888000", "114316.811000", "114316.815000", "114316.817000", "114316.821000", "114316.824000", "114316.826000", "114316.829000", "114316.832000", "114316.835000", "114316.838000", "114316.841000", "114316.844000", "114316.847000", "114316.850000", "114316.853000", "114316.856000", "114316.859000", "114316.862000", "114316.865000", "114316.868000", "114316.871000", "114316.874000", "114316.877000", "114316.880000", "114316.882000", "114316.885000", "114316.888000", "114356.811000", "114356.814000", "114356.817000", "114356.820000", "114356.823000", "114356.826000", "114356.829000", "114356.832000", "114356.835000", "114356.838000", "114356.841000", "114356.844000", "114356.847000", "114356.849000", "114356.852000", "114356.855000", "114356.858000", "114356.861000", "114356.864000", "114356.867000", "114356.870000", "114356.873000", "114356.876000", "114356.879000", "114356.882000", "114356.885000", "114356.888000", "114436.812000", "114436.815000", "114436.818000", "114436.821000", "114436.824000", "114436.827000", "114436.830000", "114436.833000", "114436.836000", "114436.839000", "114436.842000", "114436.845000", "114436.848000", "114436.851000", "114436.854000", "114436.856000", "114436.860000", "114436.863000", "114436.866000", "114436.869000", "114436.872000", "114436.875000", "114436.877000", "114436.880000", "114436.883000", "114436.886000", "114436.889000", "114516.811000", "114516.820000", "114516.823000", "114516.826000", "114516.829000", "114516.832000", "114516.835000", "114516.838000", "114516.841000", "114516.844000", "114516.847000", "114516.850000", "114516.853000", "114516.855000", "114516.858000", "114516.861000", "114516.864000", "114516.867000", "114516.870000", "114516.873000", "114516.876000", "114516.879000", "114516.882000", "114516.885000", "114516.888000", "114516.891000", "114516.894000", "114556.811000", "114556.814000", "114556.818000", "114556.821000", "114556.824000", "114556.827000", "114556.830000", "114556.833000", "114556.836000", "114556.839000", "114556.842000", "114556.844000", "114556.847000", "114556.850000", "114556.853000", "114556.856000", "114556.859000", "114556.862000", "114556.865000", "114556.868000", "114556.871000", "114556.874000", "114556.877000", "114556.880000", "114556.883000", "114556.886000", "114556.889000", "114636.811000", "114636.814000", "114636.817000", "114636.820000", "114636.823000", "114636.826000", "114636.829000", "114636.832000", "114636.835000", "114636.838000", "114636.841000", "114636.844000", "114636.847000", "114636.850000", "114636.852000", "114636.855000", "114636.858000", "114636.861000", "114636.864000", "114636.867000", "114636.870000", "114636.873000", "114636.876000", "114636.879000", "114636.882000", "114636.885000", "114703.897000", "114703.900000", "114703.903000", "114703.906000", "114703.909000", "114703.912000", "114703.915000", "114703.917000", "114703.921000", "114703.924000", "114703.927000", "114703.930000", "114703.933000", "114703.936000", "114703.939000", "114703.942000", "114703.945000", "114703.948000", "114703.951000"],
