{
  "AcquisitionMatrixPE": 104,
  "AcquisitionNumber": 1,
  "AcquisitionTime": "10:58:18.617500",
  "BandwidthPerPixelPhaseEncode": 17.17,
  "BaseResolution": 104,
  "BodyPartExamined": "BRAIN",
  "CoilString": "HC1-7;NC1_2",
  "ConsistencyInfo": "N4_VE11C_LATEST_20160120",
  "ConversionSoftware": "dcm2niix",
  "ConversionSoftwareVersion": "v1.0.20190720  (JP2:OpenJPEG) GCC7.3.0",
  "DerivedVendorReportedEchoSpacing": 0.000560011,
  "DeviceSerialNumber": "167006",
  "DwellTime": 2.1e-06,
  "EchoTime": 0.037,
  "EchoTrainLength": 104,
  "EffectiveEchoSpacing": 0.000560011,
  "FlipAngle": 52,
  "ImageComments": "Unaliased_MB4_PE3_LB",
  "ImageOrientationPatientDICOM": [0.999982, -0.0039483, 0.00456685, 0.00523594, 0.943777, -0.330542],
  "ImageType": [
    "ORIGINAL",
    "PRIMARY",
    "M",
    "MB",
    "ND",
    "MOSAIC"
],
  "ImagingFrequency": 123.259,
  "InPlanePhaseEncodingDirectionDICOM": "COL",
  "InstitutionAddress": "Chemin_Queen-Mary_4565_Montreal_District_CA_H3W_1W5",
  "InstitutionName": "IUGM",
  "InstitutionalDepartmentName": "Department",
  "MRAcquisitionType": "2D",
  "MagneticFieldStrength": 3,
  "Manufacturer": "Siemens",
  "ManufacturersModelName": "Prisma_fit",
  "Modality": "MR",
  "MultibandAccelerationFactor": 4,
  "PartialFourier": 1,
  "PatientPosition": "HFS",
  "PercentPhaseFOV": 100,
  "PhaseEncodingDirection": "j",
  "PhaseEncodingSteps": 104,
  "PhaseResolution": 1,
  "PixelBandwidth": 2290,
  "ProcedureStepDescription": "video_friends",
  "ProtocolName": "func_task-friends-s01e11a",
  "PulseSequenceDetails": "%CustomerSeq%_cmrr_mbep2d_bold",
  "ReceiveCoilActiveElements": "HC1-7;NC1,2",
  "ReceiveCoilName": "HeadNeck_64",
  "ReconMatrixPE": 104,
  "RepetitionTime": 1.49,
  "SAR": 0.0308112,
  "ScanOptions": "FS",
  "ScanningSequence": "EP",
  "SequenceName": "epfid2d1_104",
  "SequenceVariant": "SK_SS",
  "SeriesDescription": "func_task-friends-s01e11a",
  "SeriesNumber": 8,
  "ShimSetting": [625, -7209, -8828, 699, 33, 15, -20, -6],
  "SliceThickness": 2,
  "SliceTiming": [0, 0.7825, 0.0975, 0.88, 0.195, 0.98, 0.2925, 1.0775, 0.39, 1.175, 0.49, 1.2725, 0.5875, 1.37, 0.685, 0, 0.7825, 0.0975, 0.88, 0.195, 0.98, 0.2925, 1.0775, 0.39, 1.175, 0.49, 1.2725, 0.5875, 1.37, 0.685, 0, 0.7825, 0.0975, 0.88, 0.195, 0.98, 0.2925, 1.0775, 0.39, 1.175, 0.49, 1.2725, 0.5875, 1.37, 0.685, 0, 0.7825, 0.0975, 0.88, 0.195, 0.98, 0.2925, 1.0775, 0.39, 1.175, 0.49, 1.2725, 0.5875, 1.37, 0.685],
  "SoftwareVersions": "syngo_MR_E11",
  "SpacingBetweenSlices": 2,
  "StationName": "MRC35049",
  "TaskName": "friends",
  "TotalReadoutTime": 0.0576811,
  "TxRefAmp": 210.877,
  "WipMemBlock": "8c54339b-de94-47e8-a65e-f3736e3e2ed8||Sequence: R016 ve11c/master r/e634e98; Dec 19 2017 11:00:25 by eja",
  "dcmmeta_affine": [
    [-1.9999635219573975, 0.0104718878865242, 0.006010028533637524, 104.14241790771484],
    [0.007896597497165203, 1.8875536918640137, -0.6611191630363464, -78.85737609863281],
    [0.009133708663284779, 0.6610833406448364, 1.8875607252120972, -73.6021957397461],
    [0.0, 0.0, 0.0, 1.0]
],
  "dcmmeta_reorient_transform": [
    [0.0, -1.0, 0.0, 103.0],
    [1.0, 0.0, 0.0, 0.0],
    [0.0, 0.0, 1.0, 0.0],
    [0.0, 0.0, 0.0, 1.0]
],
  "dcmmeta_shape": [104, 104, 60, 477],
  "dcmmeta_slice_dim": 2,
  "dcmmeta_version": 0.6,
  "global": {
    "const": {
      "AcquisitionMatrix": [104, 0, 0, 104],
      "AngioFlag": "N",
      "BitsAllocated": 16,
      "BitsStored": 16,
      "BodyPartExamined": "BRAIN",
      "Columns": 832,
      "EchoNumbers": 1,
      "EchoTime": 37.0,
      "EchoTrainLength": 104,
      "FlipAngle": 52.0,
      "HighBit": 15,
      "ImageOrientationPatient": [0.99998177722347, -0.0039482986011, 0.0045668544052, 0.00523594403213, 0.94377687223717, -0.3305416771306],
      "ImagePositionPatient": [-837.01952010366, -799.75586424728, 231.79905757345],
      "ImageType": [
        "ORIGINAL",
        "PRIMARY",
        "M",
        "MB",
        "ND",
        "MOSAIC"
],
      "ImagedNucleus": "1H",
      "ImagingFrequency": 123.259178,
      "InPlanePhaseEncodingDirection": "COL",
      "MRAcquisitionType": "2D",
      "MagneticFieldStrength": 3.0,
      "Manufacturer": "SIEMENS",
      "ManufacturerModelName": "Prisma_fit",
      "Modality": "MR",
      "NumberOfAverages": 1.0,
      "NumberOfPhaseEncodingSteps": 104,
      "PercentPhaseFieldOfView": 100.0,
      "PercentSampling": 100.0,
      "PerformedProcedureStepStartTime": "103727.216000",
      "PhotometricInterpretation": "MONOCHROME2",
      "PixelBandwidth": 2290.0,
      "PixelRepresentation": 0,
      "PixelSpacing": [2.0, 2.0],
      "ProtocolName": "func_task-friends-s01e11a",
      "RepetitionTime": 1490.0,
      "Rows": 832,
      "SAR": 0.03081116865082,
      "SamplesPerPixel": 1,
      "ScanOptions": "FS",
      "ScanningSequence": "EP",
      "SequenceName": "epfid2d1_104",
      "SequenceVariant": [
        "SK",
        "SS"
],
      "SeriesDescription": "func_task-friends-s01e11a",
      "SeriesNumber": 8,
      "SeriesTime": "105916.943000",
      "SliceLocation": -43.084300365621,
      "SliceThickness": 2.0,
      "SmallestImagePixelValue": 0,
      "SoftwareVersions": "syngo MR E11",
      "SpacingBetweenSlices": 2.0000000067397,
      "SpecificCharacterSet": "ISO_IR 100",
      "StudyID": "1",
      "StudyTime": "103727.136000",
      "TransmitCoilName": "Body",
      "VariableFlipAngleFlag": "N",
      "WindowCenterWidthExplanation": "Algo1",
      "dBdt": 0.0},
    "slices": {}
  },
  "time": {
    "samples": {
      "AcquisitionNumber": [1, 2, 3, 4, 5, 6, 7, 8, 9, 10, 11, 12, 13, 14, 15, 16, 17, 18, 19, 20, 21, 22, 23, 24, 25, 26, 27, 28, 29, 30, 31, 32, 33, 34, 35, 36, 37, 38, 39, 40, 41, 42, 43, 44, 45, 46, 47, 48, 49, 50, 51, 52, 53, 54, 55, 56, 57, 58, 59, 60, 61, 62, 63, 64, 65, 66, 67, 68, 69, 70, 71, 72, 73, 74, 75, 76, 77, 78, 79, 80, 81, 82, 83, 84, 85, 86, 87, 88, 89, 90, 91, 92, 93, 94, 95, 96, 97, 98, 99, 100, 101, 102, 103, 104, 105, 106, 107, 108, 109, 110, 111, 112, 113, 114, 115, 116, 117, 118, 119, 120, 121, 122, 123, 124, 125, 126, 127, 128, 129, 130, 131, 132, 133, 134, 135, 136, 137, 138, 139, 140, 141, 142, 143, 144, 145, 146, 147, 148, 149, 150, 151, 152, 153, 154, 155, 156, 157, 158, 159, 160, 161, 162, 163, 164, 165, 166, 167, 168, 169, 170, 171, 172, 173, 174, 175, 176, 177, 178, 179, 180, 181, 182, 183, 184, 185, 186, 187, 188, 189, 190, 191, 192, 193, 194, 195, 196, 197, 198, 199, 200, 201, 202, 203, 204, 205, 206, 207, 208, 209, 210, 211, 212, 213, 214, 215, 216, 217, 218, 219, 220, 221, 222, 223, 224, 225, 226, 227, 228, 229, 230, 231, 232, 233, 234, 235, 236, 237, 238, 239, 240, 241, 242, 243, 244, 245, 246, 247, 248, 249, 250, 251, 252, 253, 254, 255, 256, 257, 258, 259, 260, 261, 262, 263, 264, 265, 266, 267, 268, 269, 270, 271, 272, 273, 274, 275, 276, 277, 278, 279, 280, 281, 282, 283, 284, 285, 286, 287, 288, 289, 290, 291, 292, 293, 294, 295, 296, 297, 298, 299, 300, 301, 302, 303, 304, 305, 306, 307, 308, 309, 310, 311, 312, 313, 314, 315, 316, 317, 318, 319, 320, 321, 322, 323, 324, 325, 326, 327, 328, 329, 330, 331, 332, 333, 334, 335, 336, 337, 338, 339, 340, 341, 342, 343, 344, 345, 346, 347, 348, 349, 350, 351, 352, 353, 354, 355, 356, 357, 358, 359, 360, 361, 362, 363, 364, 365, 366, 367, 368, 369, 370, 371, 372, 373, 374, 375, 376, 377, 378, 379, 380, 381, 382, 383, 384, 385, 386, 387, 388, 389, 390, 391, 392, 393, 394, 395, 396, 397, 398, 399, 400, 401, 402, 403, 404, 405, 406, 407, 408, 409, 410, 411, 412, 413, 414, 415, 416, 417, 418, 419, 420, 421, 422, 423, 424, 425, 426, 427, 428, 429, 430, 431, 432, 433, 434, 435, 436, 437, 438, 439, 440, 441, 442, 443, 444, 445, 446, 447, 448, 449, 450, 451, 452, 453, 454, 455, 456, 457, 458, 459, 460, 461, 462, 463, 464, 465, 466, 467, 468, 469, 470, 471, 472, 473, 474, 475, 476, 477],
      "AcquisitionTime": ["105818.617500", "105820.107500", "105821.597500", "105823.087500", "105824.577500", "105826.067500", "105827.557500", "105829.047500", "105830.537500", "105832.027500", "105833.517500", "105835.007500", "105836.497500", "105837.987500", "105839.477500", "105840.967500", "105842.457500", "105843.947500", "105845.437500", "105846.927500", "105848.417500", "105849.907500", "105851.397500", "105852.887500", "105854.377500", "105855.867500", "105857.357500", "105858.847500", "105900.337500", "105901.827500", "105903.317500", "105904.807500", "105906.297500", "105907.787500", "105909.277500", "105910.767500", "105912.257500", "105913.747500", "105915.237500", "105916.727500", "105918.217500", "105919.707500", "105921.197500", "105922.687500", "105924.177500", "105925.667500", "105927.157500", "105928.647500", "105930.137500", "105931.627500", "105933.117500", "105934.607500", "105936.097500", "105937.587500", "105939.077500", "105940.567500", "105942.057500", "105943.547500", "105945.037500", "105946.527500", "105948.017500", "105949.507500", "105950.997500", "105952.487500", "105953.977500", "105955.467500", "105956.957500", "105958.447500", "105959.937500", "110001.427500", "110002.917500", "110004.407500", "110005.897500", "110007.387500", "110008.877500", "110010.367500", "110011.857500", "110013.347500", "110014.837500", "110016.327500", "110017.817500", "110019.307500", "110020.797500", "110022.287500", "110023.777500", "110025.267500", "110026.757500", "110028.247500", "110029.737500", "110031.227500", "110032.717500", "110034.207500", "110035.697500", "110037.187500", "110038.677500", "110040.167500", "110041.657500", "110043.147500", "110044.637500", "110046.127500", "110047.617500", "110049.107500", "110050.597500", "110052.087500", "110053.577500", "110055.067500", "110056.557500", "110058.047500", "110059.537500", "110101.027500", "110102.517500", "110104.007500", "110105.497500", "110106.987500", "110108.477500", "110109.967500", "110111.457500", "110112.947500", "110114.437500", "110115.927500", "110117.417500", "110118.907500", "110120.397500", "110121.887500", "110123.377500", "110124.867500", "110126.357500", "110127.847500", "110129.337500", "110130.827500", "110132.317500", "110133.807500", "110135.297500", "110136.787500", "110138.277500", "110139.767500", "110141.257500", "110142.747500", "110144.237500", "110145.727500", "110147.217500", "110148.707500", "110150.197500", "110151.687500", "110153.177500", "110154.667500", "110156.157500", "110157.647500", "110159.137500", "110200.627500", "110202.117500", "110203.607500", "110205.097500", "110206.587500", "110208.077500", "110209.567500", "110211.057500", "110212.547500", "110214.037500", "110215.527500", "110217.017500", "110218.507500", "110219.997500", "110221.487500", "110222.977500", "110224.467500", "110225.957500", "110227.447500", "110228.937500", "110230.427500", "110231.917500", "110233.407500", "110234.897500", "110236.387500", "110237.877500", "110239.367500", "110240.857500", "110242.347500", "110243.837500", "110245.327500", "110246.817500", "110248.307500", "110249.797500", "110251.287500", "110252.777500", "110254.267500", "110255.757500", "110257.247500", "110258.737500", "110300.227500", "110301.717500", "110303.207500", "110304.697500", "110306.187500", "110307.677500", "110309.167500", "110310.657500", "110312.147500", "110313.637500", "110315.127500", "110316.617500", "110318.107500", "110319.597500", "110321.087500", "110322.577500", "110324.067500", "110325.557500", "110327.047500", "110328.537500", "110330.027500", "110331.517500", "110333.007500", "110334.497500", "110335.987500", "110337.477500", "110338.967500", "110340.457500", "110341.947500", "110343.437500", "110344.927500", "110346.417500", "110347.907500", "110349.397500", "110350.887500", "110352.377500", "110353.867500", "110355.357500", "110356.847500", "110358.337500", "110359.827500", "110401.317500", "110402.807500", "110404.297500", "110405.787500", "110407.277500", "110408.767500", "110410.257500", "110411.747500", "110413.237500", "110414.727500", "110416.217500", "110417.707500", "110419.197500", "110420.687500", "110422.177500", "110423.667500", "110425.157500", "110426.647500", "110428.137500", "110429.627500", "110431.117500", "110432.607500", "110434.097500", "110435.587500", "110437.077500", "110438.567500", "110440.057500", "110441.547500", "110443.037500", "110444.527500", "110446.017500", "110447.507500", "110448.997500", "110450.487500", "110451.977500", "110453.467500", "110454.957500", "110456.447500", "110457.937500", "110459.427500", "110500.917500", "110502.407500", "110503.897500", "110505.387500", "110506.877500", "110508.367500", "110509.857500", "110511.347500", "110512.837500", "110514.327500", "110515.817500", "110517.307500", "110518.797500", "110520.287500", "110521.777500", "110523.267500", "110524.757500", "110526.247500", "110527.737500", "110529.227500", "110530.717500", "110532.207500", "110533.697500", "110535.187500", "110536.677500", "110538.167500", "110539.657500", "110541.147500", "110542.637500", "110544.127500", "110545.617500", "110547.107500", "110548.597500", "110550.087500", "110551.577500", "110553.067500", "110554.557500", "110556.047500", "110557.537500", "110559.027500", "110600.517500", "110602.007500", "110603.497500", "110604.987500", "110606.477500", "110607.967500", "110609.457500", "110610.947500", "110612.437500", "110613.927500", "110615.417500", "110616.907500", "110618.397500", "110619.887500", "110621.377500", "110622.867500", "110624.357500", "110625.847500", "110627.337500", "110628.827500", "110630.317500", "110631.807500", "110633.297500", "110634.787500", "110636.277500", "110637.767500", "110639.257500", "110640.747500", "110642.237500", "110643.727500", "110645.217500", "110646.707500", "110648.197500", "110649.687500", "110651.177500", "110652.667500", "110654.157500", "110655.647500", "110657.137500", "110658.627500", "110700.117500", "110701.607500", "110703.097500", "110704.587500", "110706.077500", "110707.567500", "110709.057500", "110710.547500", "110712.037500", "110713.527500", "110715.017500", "110716.507500", "110717.997500", "110719.487500", "110720.977500", "110722.467500", "110723.957500", "110725.447500", "110726.937500", "110728.427500", "110729.917500", "110731.407500", "110732.897500", "110734.387500", "110735.877500", "110737.367500", "110738.857500", "110740.347500", "110741.837500", "110743.327500", "110744.817500", "110746.307500", "110747.797500", "110749.287500", "110750.777500", "110752.267500", "110753.757500", "110755.247500", "110756.737500", "110758.227500", "110759.717500", "110801.207500", "110802.697500", "110804.187500", "110805.677500", "110807.167500", "110808.657500", "110810.147500", "110811.637500", "110813.127500", "110814.617500", "110816.107500", "110817.597500", "110819.087500", "110820.577500", "110822.067500", "110823.557500", "110825.047500", "110826.537500", "110828.027500", "110829.517500", "110831.007500", "110832.497500", "110833.987500", "110835.477500", "110836.967500", "110838.457500", "110839.947500", "110841.437500", "110842.927500", "110844.417500", "110845.907500", "110847.397500", "110848.887500", "110850.377500", "110851.867500", "110853.357500", "110854.847500", "110856.337500", "110857.827500", "110859.317500", "110900.807500", "110902.297500", "110903.787500", "110905.277500", "110906.767500", "110908.257500", "110909.747500", "110911.237500", "110912.727500", "110914.217500", "110915.707500", "110917.197500", "110918.687500", "110920.177500", "110921.667500", "110923.157500", "110924.647500", "110926.137500", "110927.627500", "110929.117500", "110930.607500", "110932.097500", "110933.587500", "110935.077500", "110936.567500", "110938.057500", "110939.547500", "110941.037500", "110942.527500", "110944.017500", "110945.507500", "110946.997500", "110948.487500", "110949.977500", "110951.467500", "110952.957500", "110954.447500", "110955.937500", "110957.427500", "110958.917500", "111000.407500", "111001.897500", "111003.387500", "111004.877500", "111006.367500", "111007.857500"],
      "ContentTime": ["105916.946000", "105916.957000", "105916.960000", "105916.963000", "105956.811000", "105956.814000", "105956.817000", "105956.820000", "105956.823000", "105956.826000", "105956.829000", "105956.832000", "105956.835000", "105956.838000", "105956.850000", "105956.853000", "105956.856000", "105956.860000", "105956.863000", "105956.865000", "105956.869000", "105956.871000", "105956.874000", "105956.877000", "105956.880000", "105956.883000", "105956.886000", "105956.889000", "105956.892000", "105956.895000", "105956.898000", "105956.901000", "105956.904000", "105956.907000", "105956.910000", "105956.913000", "105956.916000", "105956.919000", "105956.922000", "105956.925000", "105956.928000", "105956.931000", "105956.934000", "110016.811000", "110016.814000", "110016.817000", "110016.820000", "110016.823000", "110016.826000", "110016.829000", "110016.832000", "110016.835000", "110016.838000", "110016.841000", "110016.843000", "110016.846000", "110016.849000", "110016.852000", "110016.855000", "110016.858000", "110016.861000", "110016.864000", "110016.867000", "110036.812000", "110036.815000", "110036.818000", "110036.821000", "110036.824000", "110036.827000", "110036.830000", "110036.833000", "110036.836000", "110036.839000", "110036.842000", "110036.845000", "110036.848000", "110036.851000", "110036.854000", "110036.857000", "110036.860000", "110036.863000", "110036.865000", "110036.868000", "110056.811000", "110056.814000", "110056.818000", "110056.821000", "110056.824000", "110056.827000", "110056.830000", "110056.833000", "110056.836000", "110056.839000", "110056.841000", "110056.844000", "110056.847000", "110056.850000", "110056.853000", "110056.856000", "110056.859000", "110056.862000", "110056.865000", "110056.868000", "110056.871000", "110136.811000", "110136.814000", "110136.817000", "110136.820000", "110136.823000", "110136.826000", "110136.829000", "110136.832000", "110136.835000", "110136.838000", "110136.841000", "110136.844000", "110136.847000", "110136.849000", "110136.852000", "110136.855000", "110136.858000", "110136.861000", "110136.864000", "110136.867000", "110136.870000", "110136.873000", "110136.876000", "110136.879000", "110136.882000", "110136.891000", "110136.894000", "110136.897000", "110216.811000", "110216.814000", "110216.817000", "110216.820000", "110216.823000", "110216.826000", "110216.829000", "110216.831000", "110216.834000", "110216.837000", "110216.841000", "110216.844000", "110216.847000", "110216.850000", "110216.853000", "110216.856000", "110216.859000", "110216.862000", "110216.865000", "110216.867000", "110216.871000", "110216.873000", "110216.876000", "110216.879000", "110216.882000", "110216.885000", "110216.888000", "110256.812000", "110256.815000", "110256.818000", "110256.821000", "110256.824000", "110256.827000", "110256.829000", "110256.832000", "110256.835000", "110256.838000", "110256.851000", "110256.854000", "110256.857000", "110256.860000", "110256.863000", "110256.866000", "110256.869000", "110256.872000", "110256.875000", "110256.878000", "110256.895000", "110256.898000", "110256.901000", "110256.904000", "110256.907000", "110256.910000", "110256.913000", "110336.811000", "110336.814000", "110336.817000", "110336.820000", "110336.823000", "110336.826000", "110336.829000", "110336.832000", "110336.835000", "110336.838000", "110336.841000", "110336.844000", "110336.847000", "110336.850000", "110336.853000", "110336.856000", "110336.859000", "110336.861000", "110336.864000", "110336.867000", "110336.870000", "110336.873000", "110336.876000", "110336.879000", "110336.882000", "110336.885000", "110336.888000", "110416.811000", "110416.814000", "110416.817000", "110416.820000", "110416.823000", "110416.826000", "110416.829000", "110416.838000", "110416.841000", "110416.844000", "110416.847000", "110416.850000", "110416.853000", "110416.856000", "110416.859000", "110416.862000", "110416.864000", "110416.867000", "110416.870000", "110416.873000", "110416.876000", "110416.879000", "110416.882000", "110416.885000", "110416.888000", "110416.891000", "110416.894000", "110456.811000", "110456.814000", "110456.817000", "110456.820000", "110456.823000", "110456.826000", "110456.830000", "110456.835000", "110456.838000", "110456.841000", "110456.844000", "110456.848000", "110456.851000", "110456.853000", "110456.856000", "110456.859000", "110456.862000", "110456.865000", "110456.868000", "110456.871000", "110456.874000", "110456.877000", "110456.880000", "110456.883000", "110456.886000", "110456.889000", "110536.811000", "110536.826000", "110536.829000", "110536.832000", "110536.835000", "110536.838000", "110536.841000", "110536.844000", "110536.847000", "110536.850000", "110536.853000", "110536.856000", "110536.859000", "110536.862000", "110536.865000", "110536.868000", "110536.871000", "110536.874000", "110536.877000", "110536.880000", "110536.883000", "110536.886000", "110536.889000", "110536.891000", "110536.894000", "110536.897000", "110536.900000", "110616.811000", "110616.910000", "110616.913000", "110616.916000", "110616.919000", "110616.922000", "110616.925000", "110616.928000", "110616.931000", "110616.934000", "110616.937000", "110616.940000", "110616.943000", "110616.946000", "110616.949000", "110616.952000", "110616.955000", "110616.958000", "110616.960000", "110616.963000", "110616.967000", "110616.970000", "110616.973000", "110616.975000", "110616.978000", "110616.981000", "110616.984000", "110656.811000", "110656.814000", "110656.817000", "110656.820000", "110656.823000", "110656.826000", "110656.829000", "110656.832000", "110656.835000", "110656.838000", "110656.841000", "110656.844000", "110656.847000", "110656.850000", "110656.853000", "110656.856000", "110656.858000", "110656.861000", "110656.874000", "110656.877000", "110656.880000", "110656.883000", "110656.886000", "110656.889000", "110656.892000", "110656.895000", "110656.898000", "110736.812000", "110736.815000", "110736.818000", "110736.821000", "110736.824000", "110736.838000", "110736.841000", "110736.844000", "110736.847000", "110736.850000", "110736.853000", "110736.856000", "110736.859000", "110736.862000", "110736.865000", "110736.868000", "110736.871000", "110736.874000", "110736.877000", "110736.880000", "110736.882000", "110736.885000", "110736.888000", "110736.891000", "110736.894000", "110736.898000", "110736.901000", "110816.811000", "110816.814000", "110816.817000", "110816.820000", "110816.823000", "110816.826000", "110816.829000", "110816.832000", "110816.835000", "110816.838000", "110816.841000", "110816.851000", "110816.853000", "110816.857000", "110816.859000", "110816.862000", "110816.865000", "110816.868000", "110816.871000", "110816.874000", "110816.877000", "110816.880000", "110816.883000", "110816.886000", "110816.889000", "110816.892000", "110816.895000", "110856.811000", "110856.814000", "110856.817000", "110856.820000", "110856.823000", "110856.826000", "110856.829000", "110856.832000", "110856.835000", "110856.838000", "110856.841000", "110856.844000", "110856.847000", "110856.850000", "110856.853000", "110856.856000", "110856.859000", "110856.862000", "110856.865000", "110856.868000", "110856.870000", "110856.874000", "110856.876000", "110856.879000", "110856.882000", "110856.885000", "110856.888000", "110936.811000", "110936.814000", "110936.818000", "110936.821000", "110936.824000", "110936.827000", "110936.830000", "110936.833000", "110936.836000", "110936.839000", "110936.842000", "110936.845000", "110936.848000", "110936.851000", "110936.854000", "110936.857000", "110936.860000", "110936.863000", "110936.866000", "110936.869000", "110936.872000", "110936.875000", "110936.878000", "110936.881000", "110936.884000", "110936.887000", "111009.792000", "111009.795000", "111009.798000", "111009.801000", "111009.804000", "111009.808000", "111009.811000", "111009.814000", "111009.826000", "111009.829000", "111009.832000", "111009.835000", "111009.838000", "111009.841000", "111009.844000", "111009.847000", "111009.850000", "111009.853000", "111009.856000", "111009.859000", "111009.862000", "111009.865000", "111009.868000"],
