{
  "AcquisitionMatrixPE": 104,
  "AcquisitionNumber": 1,
  "AcquisitionTime": "18:44:15.837500",
  "BandwidthPerPixelPhaseEncode": 17.17,
  "BaseResolution": 104,
  "BodyPartExamined": "BRAIN",
  "CoilCombinationMethod": "Sum of Squares",
  "ConsistencyInfo": "N4_VE11C_LATEST_20160120",
  "ConversionSoftware": "dcm2niix",
  "ConversionSoftwareVersion": "v1.0.20220505",
  "DerivedVendorReportedEchoSpacing": 0.000560011,
  "DeviceSerialNumber": "167006",
  "DwellTime": 2.1e-06,
  "EchoTime": 0.037,
  "EchoTrainLength": 104,
  "EffectiveEchoSpacing": 0.000560011,
  "FlipAngle": 52,
  "HeudiconvVersion": "0.5.3.post811+g6206e14",
  "ImageComments": "Unaliased MB4/PE3/LB",
  "ImageOrientationPatientDICOM": [0.9996, -0.0281505, -0.00265705, 0.025128, 0.927482, -0.373022],
  "ImageOrientationText": "Tra>Cor(-21.9)>Sag(-0.7)",
  "ImageType": [
    "ORIGINAL",
    "PRIMARY",
    "M",
    "MB",
    "ND",
    "MOSAIC"
],
  "ImagingFrequency": 123.259,
  "InPlanePhaseEncodingDirectionDICOM": "COL",
  "InstitutionAddress": "Chemin Queen-Mary 4565,Montreal,District,CA,H3W 1W5",
  "InstitutionName": "IUGM",
  "InstitutionalDepartmentName": "Department",
  "MRAcquisitionType": "2D",
  "MagneticFieldStrength": 3,
  "Manufacturer": "Siemens",
  "ManufacturersModelName": "Prisma_fit",
  "MatrixCoilMode": "SENSE",
  "Modality": "MR",
  "MultibandAccelerationFactor": 4,
  "PartialFourier": 1,
  "PatientPosition": "HFS",
  "PercentPhaseFOV": 100,
  "PercentSampling": 100,
  "PhaseEncodingDirection": "j",
  "PhaseEncodingSteps": 104,
  "PhaseResolution": 1,
  "PixelBandwidth": 2290,
  "ProcedureStepDescription": "video^friends",
  "ProtocolName": "func_task-friends-s06e01b",
  "PulseSequenceDetails": "%CustomerSeq%\\cmrr_mbep2d_bold",
  "ReceiveCoilActiveElements": "HC1-7;NC1,2",
  "ReceiveCoilName": "HeadNeck_64",
  "ReconMatrixPE": 104,
  "RepetitionTime": 1.49,
  "SAR": 0.0817902,
  "ScanOptions": "FS",
  "ScanningSequence": "EP",
  "SequenceName": "epfid2d1_104",
  "SequenceVariant": "SK\\SS",
  "SeriesDescription": "func_task-friends-s06e01b",
  "SeriesNumber": 12,
  "ShimSetting": [615, -7270, -8839, 392, 42, -368, 18, 11],
  "SliceThickness": 2,
  "SliceTiming": [0, 0.785, 0.1, 0.8825, 0.1975, 0.98, 0.295, 1.0775, 0.3925, 1.1775, 0.49, 1.275, 0.59, 1.3725, 0.6875, 0, 0.785, 0.1, 0.8825, 0.1975, 0.98, 0.295, 1.0775, 0.3925, 1.1775, 0.49, 1.275, 0.59, 1.3725, 0.6875, 0, 0.785, 0.1, 0.8825, 0.1975, 0.98, 0.295, 1.0775, 0.3925, 1.1775, 0.49, 1.275, 0.59, 1.3725, 0.6875, 0, 0.785, 0.1, 0.8825, 0.1975, 0.98, 0.295, 1.0775, 0.3925, 1.1775, 0.49, 1.275, 0.59, 1.3725, 0.6875],
  "SoftwareVersions": "syngo MR E11",
  "SpacingBetweenSlices": 2,
  "StationName": "MRC35049",
  "TaskName": "s06e01b",
  "TotalReadoutTime": 0.0576811,
  "TxRefAmp": 298.057,
  "WipMemBlock": "4d5e3f31-5fd5-4e07-b48d-2419c28c9295||Sequence: R017 ve11c/master r/75a17815+; Jun 28 2022 16:32:11 by eja",
  "dcmmeta_affine": [
    [-1.9992003440856934, 0.05025603994727135, -0.025930257514119148, 97.1105728149414],
    [0.056301049888134, 1.854964256286621, -0.7456122636795044, -73.11524963378906],
    [-0.005314091686159372, 0.7460440397262573, 1.8556373119354248, -67.99679565429688],
    [0.0, 0.0, 0.0, 1.0]
],
  "dcmmeta_reorient_transform": [
    [0.0, -1.0, 0.0, 103.0],
    [1.0, 0.0, 0.0, 0.0],
    [0.0, 0.0, 1.0, 0.0],
    [0.0, 0.0, 0.0, 1.0]
],
  "dcmmeta_shape": [104, 104, 60, 499],
  "dcmmeta_slice_dim": 2,
  "dcmmeta_version": 0.6,
  "global": {
    "const": {
      "AcquisitionMatrix": [104, 0, 0, 104],
      "AngioFlag": "N",
      "BitsAllocated": 16,
      "BitsStored": 16,
      "BodyPartExamined": "BRAIN",
      "Columns": 832,
      "EchoNumbers": 1,
      "EchoTime": 37.0,
      "EchoTrainLength": 104,
      "FlipAngle": 52.0,
      "HighBit": 15,
      "ImageOrientationPatient": [0.99960016406679, -0.0281505258289, -0.0026570459541, 0.0251280207066, 0.9274821531576, -0.3730220344021],
      "ImagePositionPatient": [-848.28906159975, -772.65949850171, 282.34011273051],
      "ImageType": [
        "ORIGINAL",
        "PRIMARY",
        "M",
        "MB",
        "ND",
        "MOSAIC"
],
      "ImagedNucleus": "1H",
      "ImagingFrequency": 123.2588,
      "InPlanePhaseEncodingDirection": "COL",
      "MRAcquisitionType": "2D",
      "MagneticFieldStrength": 3.0,
      "Manufacturer": "SIEMENS",
      "ManufacturerModelName": "Prisma_fit",
      "Modality": "MR",
      "NumberOfAverages": 1.0,
      "NumberOfPhaseEncodingSteps": 104,
      "PercentPhaseFieldOfView": 100.0,
      "PercentSampling": 100.0,
      "PerformedProcedureStepStartTime": "182650.678000",
      "PhotometricInterpretation": "MONOCHROME2",
      "PixelBandwidth": 2290.0,
      "PixelRepresentation": 0,
      "PixelSpacing": [2.0, 2.0],
      "ProtocolName": "func_task-friends-s06e01b",
      "RepetitionTime": 1490.0,
      "Rows": 832,
      "SAR": 0.08179021070256,
      "SamplesPerPixel": 1,
      "ScanOptions": "FS",
      "ScanningSequence": "EP",
      "SequenceName": "epfid2d1_104",
      "SequenceVariant": [
        "SK",
        "SS"
],
      "SeriesDescription": "func_task-friends-s06e01b",
      "SeriesNumber": 12,
      "SeriesTime": "184530.924000",
      "SliceLocation": -37.089936750229,
      "SliceThickness": 2.0,
      "SmallestImagePixelValue": 0,
      "SoftwareVersions": "syngo MR E11",
      "SpacingBetweenSlices": 1.9999999883459,
      "SpecificCharacterSet": "ISO_IR 100",
      "StudyID": "1",
      "StudyTime": "182650.626000",
      "TransmitCoilName": "Body",
      "VariableFlipAngleFlag": "N",
      "WindowCenterWidthExplanation": "Algo1",
      "dBdt": 0.0},
    "slices": {}
  },
  "time": {
    "samples": {
      "AcquisitionNumber": [1, 2, 3, 4, 5, 6, 7, 8, 9, 10, 11, 12, 13, 14, 15, 16, 17, 18, 19, 20, 21, 22, 23, 24, 25, 26, 27, 28, 29, 30, 31, 32, 33, 34, 35, 36, 37, 38, 39, 40, 41, 42, 43, 44, 45, 46, 47, 48, 49, 50, 51, 52, 53, 54, 55, 56, 57, 58, 59, 60, 61, 62, 63, 64, 65, 66, 67, 68, 69, 70, 71, 72, 73, 74, 75, 76, 77, 78, 79, 80, 81, 82, 83, 84, 85, 86, 87, 88, 89, 90, 91, 92, 93, 94, 95, 96, 97, 98, 99, 100, 101, 102, 103, 104, 105, 106, 107, 108, 109, 110, 111, 112, 113, 114, 115, 116, 117, 118, 119, 120, 121, 122, 123, 124, 125, 126, 127, 128, 129, 130, 131, 132, 133, 134, 135, 136, 137, 138, 139, 140, 141, 142, 143, 144, 145, 146, 147, 148, 149, 150, 151, 152, 153, 154, 155, 156, 157, 158, 159, 160, 161, 162, 163, 164, 165, 166, 167, 168, 169, 170, 171, 172, 173, 174, 175, 176, 177, 178, 179, 180, 181, 182, 183, 184, 185, 186, 187, 188, 189, 190, 191, 192, 193, 194, 195, 196, 197, 198, 199, 200, 201, 202, 203, 204, 205, 206, 207, 208, 209, 210, 211, 212, 213, 214, 215, 216, 217, 218, 219, 220, 221, 222, 223, 224, 225, 226, 227, 228, 229, 230, 231, 232, 233, 234, 235, 236, 237, 238, 239, 240, 241, 242, 243, 244, 245, 246, 247, 248, 249, 250, 251, 252, 253, 254, 255, 256, 257, 258, 259, 260, 261, 262, 263, 264, 265, 266, 267, 268, 269, 270, 271, 272, 273, 274, 275, 276, 277, 278, 279, 280, 281, 282, 283, 284, 285, 286, 287, 288, 289, 290, 291, 292, 293, 294, 295, 296, 297, 298, 299, 300, 301, 302, 303, 304, 305, 306, 307, 308, 309, 310, 311, 312, 313, 314, 315, 316, 317, 318, 319, 320, 321, 322, 323, 324, 325, 326, 327, 328, 329, 330, 331, 332, 333, 334, 335, 336, 337, 338, 339, 340, 341, 342, 343, 344, 345, 346, 347, 348, 349, 350, 351, 352, 353, 354, 355, 356, 357, 358, 359, 360, 361, 362, 363, 364, 365, 366, 367, 368, 369, 370, 371, 372, 373, 374, 375, 376, 377, 378, 379, 380, 381, 382, 383, 384, 385, 386, 387, 388, 389, 390, 391, 392, 393, 394, 395, 396, 397, 398, 399, 400, 401, 402, 403, 404, 405, 406, 407, 408, 409, 410, 411, 412, 413, 414, 415, 416, 417, 418, 419, 420, 421, 422, 423, 424, 425, 426, 427, 428, 429, 430, 431, 432, 433, 434, 435, 436, 437, 438, 439, 440, 441, 442, 443, 444, 445, 446, 447, 448, 449, 450, 451, 452, 453, 454, 455, 456, 457, 458, 459, 460, 461, 462, 463, 464, 465, 466, 467, 468, 469, 470, 471, 472, 473, 474, 475, 476, 477, 478, 479, 480, 481, 482, 483, 484, 485, 486, 487, 488, 489, 490, 491, 492, 493, 494, 495, 496, 497, 498, 499],
      "AcquisitionTime": ["184415.837500", "184417.327500", "184418.817500", "184420.307500", "184421.797500", "184423.287500", "184424.777500", "184426.267500", "184427.757500", "184429.247500", "184430.737500", "184432.227500", "184433.717500", "184435.207500", "184436.697500", "184438.187500", "184439.677500", "184441.167500", "184442.657500", "184444.147500", "184445.637500", "184447.127500", "184448.617500", "184450.107500", "184451.597500", "184453.087500", "184454.577500", "184456.067500", "184457.557500", "184459.047500", "184500.537500", "184502.027500", "184503.517500", "184505.007500", "184506.497500", "184507.987500", "184509.477500", "184510.967500", "184512.457500", "184513.947500", "184515.437500", "184516.927500", "184518.417500", "184519.907500", "184521.397500", "184522.887500", "184524.377500", "184525.867500", "184527.357500", "184528.847500", "184530.337500", "184531.827500", "184533.317500", "184534.807500", "184536.297500", "184537.787500", "184539.277500", "184540.767500", "184542.257500", "184543.747500", "184545.237500", "184546.727500", "184548.217500", "184549.707500", "184551.197500", "184552.687500", "184554.177500", "184555.667500", "184557.157500", "184558.647500", "184600.137500", "184601.627500", "184603.117500", "184604.607500", "184606.097500", "184607.587500", "184609.077500", "184610.567500", "184612.057500", "184613.547500", "184615.037500", "184616.527500", "184618.017500", "184619.507500", "184620.997500", "184622.487500", "184623.977500", "184625.467500", "184626.957500", "184628.447500", "184629.937500", "184631.427500", "184632.917500", "184634.407500", "184635.897500", "184637.387500", "184638.877500", "184640.367500", "184641.857500", "184643.347500", "184644.837500", "184646.327500", "184647.817500", "184649.307500", "184650.797500", "184652.287500", "184653.777500", "184655.267500", "184656.757500", "184658.247500", "184659.737500", "184701.227500", "184702.717500", "184704.207500", "184705.697500", "184707.187500", "184708.677500", "184710.167500", "184711.657500", "184713.147500", "184714.637500", "184716.127500", "184717.617500", "184719.107500", "184720.597500", "184722.087500", "184723.577500", "184725.067500", "184726.557500", "184728.047500", "184729.537500", "184731.027500", "184732.517500", "184734.007500", "184735.497500", "184736.987500", "184738.477500", "184739.967500", "184741.457500", "184742.947500", "184744.437500", "184745.927500", "184747.417500", "184748.907500", "184750.397500", "184751.887500", "184753.377500", "184754.867500", "184756.357500", "184757.847500", "184759.337500", "184800.827500", "184802.317500", "184803.807500", "184805.297500", "184806.787500", "184808.277500", "184809.767500", "184811.257500", "184812.747500", "184814.237500", "184815.727500", "184817.217500", "184818.707500", "184820.197500", "184821.687500", "184823.177500", "184824.667500", "184826.157500", "184827.647500", "184829.137500", "184830.627500", "184832.117500", "184833.607500", "184835.097500", "184836.587500", "184838.077500", "184839.567500", "184841.057500", "184842.547500", "184844.037500", "184845.527500", "184847.017500", "184848.507500", "184849.997500", "184851.487500", "184852.977500", "184854.467500", "184855.957500", "184857.447500", "184858.937500", "184900.427500", "184901.917500", "184903.407500", "184904.897500", "184906.387500", "184907.877500", "184909.367500", "184910.857500", "184912.347500", "184913.837500", "184915.327500", "184916.817500", "184918.307500", "184919.797500", "184921.287500", "184922.777500", "184924.267500", "184925.757500", "184927.247500", "184928.737500", "184930.227500", "184931.717500", "184933.207500", "184934.697500", "184936.187500", "184937.677500", "184939.167500", "184940.657500", "184942.147500", "184943.637500", "184945.127500", "184946.617500", "184948.107500", "184949.597500", "184951.087500", "184952.577500", "184954.067500", "184955.557500", "184957.047500", "184958.537500", "185000.027500", "185001.517500", "185003.007500", "185004.497500", "185005.987500", "185007.477500", "185008.967500", "185010.457500", "185011.947500", "185013.437500", "185014.927500", "185016.417500", "185017.907500", "185019.397500", "185020.887500", "185022.377500", "185023.867500", "185025.357500", "185026.847500", "185028.337500", "185029.827500", "185031.317500", "185032.807500", "185034.297500", "185035.787500", "185037.277500", "185038.767500", "185040.257500", "185041.747500", "185043.237500", "185044.727500", "185046.217500", "185047.707500", "185049.197500", "185050.687500", "185052.177500", "185053.667500", "185055.157500", "185056.647500", "185058.137500", "185059.627500", "185101.117500", "185102.607500", "185104.097500", "185105.587500", "185107.077500", "185108.567500", "185110.057500", "185111.547500", "185113.037500", "185114.527500", "185116.017500", "185117.507500", "185118.997500", "185120.487500", "185121.977500", "185123.467500", "185124.957500", "185126.447500", "185127.937500", "185129.427500", "185130.917500", "185132.407500", "185133.897500", "185135.387500", "185136.877500", "185138.367500", "185139.857500", "185141.347500", "185142.837500", "185144.327500", "185145.817500", "185147.307500", "185148.797500", "185150.287500", "185151.777500", "185153.267500", "185154.757500", "185156.247500", "185157.737500", "185159.227500", "185200.717500", "185202.207500", "185203.697500", "185205.187500", "185206.677500", "185208.167500", "185209.657500", "185211.147500", "185212.637500", "185214.127500", "185215.617500", "185217.107500", "185218.597500", "185220.087500", "185221.577500", "185223.067500", "185224.557500", "185226.047500", "185227.537500", "185229.027500", "185230.517500", "185232.007500", "185233.497500", "185234.987500", "185236.477500", "185237.967500", "185239.457500", "185240.947500", "185242.437500", "185243.927500", "185245.417500", "185246.907500", "185248.397500", "185249.887500", "185251.377500", "185252.867500", "185254.357500", "185255.847500", "185257.337500", "185258.827500", "185300.317500", "185301.807500", "185303.297500", "185304.787500", "185306.277500", "185307.767500", "185309.257500", "185310.747500", "185312.237500", "185313.727500", "185315.217500", "185316.707500", "185318.197500", "185319.687500", "185321.177500", "185322.667500", "185324.157500", "185325.647500", "185327.137500", "185328.627500", "185330.117500", "185331.607500", "185333.097500", "185334.587500", "185336.077500", "185337.567500", "185339.057500", "185340.547500", "185342.037500", "185343.527500", "185345.017500", "185346.507500", "185347.997500", "185349.487500", "185350.977500", "185352.467500", "185353.957500", "185355.447500", "185356.937500", "185358.427500", "185359.917500", "185401.407500", "185402.897500", "185404.387500", "185405.877500", "185407.367500", "185408.857500", "185410.347500", "185411.837500", "185413.327500", "185414.817500", "185416.307500", "185417.797500", "185419.287500", "185420.777500", "185422.267500", "185423.757500", "185425.247500", "185426.737500", "185428.227500", "185429.717500", "185431.207500", "185432.697500", "185434.187500", "185435.677500", "185437.167500", "185438.657500", "185440.147500", "185441.637500", "185443.127500", "185444.617500", "185446.107500", "185447.597500", "185449.087500", "185450.577500", "185452.067500", "185453.557500", "185455.047500", "185456.537500", "185458.027500", "185459.517500", "185501.007500", "185502.497500", "185503.987500", "185505.477500", "185506.967500", "185508.457500", "185509.947500", "185511.437500", "185512.927500", "185514.417500", "185515.907500", "185517.397500", "185518.887500", "185520.377500", "185521.867500", "185523.357500", "185524.847500", "185526.337500", "185527.827500", "185529.317500", "185530.807500", "185532.297500", "185533.787500", "185535.277500", "185536.767500", "185538.257500", "185539.747500", "185541.237500", "185542.727500", "185544.217500", "185545.707500", "185547.197500", "185548.687500", "185550.177500", "185551.667500", "185553.157500", "185554.647500", "185556.137500", "185557.627500", "185559.117500", "185600.607500", "185602.097500", "185603.587500", "185605.077500", "185606.567500", "185608.057500", "185609.547500", "185611.037500", "185612.527500", "185614.017500", "185615.507500", "185616.997500", "185618.487500", "185619.977500", "185621.467500", "185622.957500", "185624.447500", "185625.937500", "185627.427500", "185628.917500", "185630.407500", "185631.897500", "185633.387500", "185634.877500", "185636.367500", "185637.857500"],
      "ContentTime": ["184530.927000", "184530.931000", "184530.934000", "184530.936000", "184530.939000", "184530.942000", "184530.945000", "184530.948000", "184530.951000", "184530.954000", "184530.957000", "184530.964000", "184530.978000", "184530.981000", "184530.984000", "184530.987000", "184530.990000", "184530.992000", "184530.995000", "184530.998000", "184531.002000", "184531.005000", "184531.008000", "184531.011000", "184550.884000", "184550.887000", "184550.890000", "184550.893000", "184550.896000", "184550.898000", "184550.901000", "184550.904000", "184550.907000", "184550.910000", "184550.913000", "184550.915000", "184550.918000", "184550.921000", "184550.924000", "184550.927000", "184550.930000", "184550.933000", "184550.935000", "184550.938000", "184610.884000", "184610.887000", "184610.890000", "184610.900000", "184610.903000", "184610.906000", "184610.909000", "184610.912000", "184610.914000", "184610.917000", "184610.920000", "184610.923000", "184610.926000", "184610.929000", "184610.932000", "184610.934000", "184610.937000", "184610.940000", "184610.943000", "184610.946000", "184630.884000", "184630.887000", "184630.890000", "184630.893000", "184630.895000", "184630.898000", "184630.901000", "184630.904000", "184630.907000", "184630.910000", "184630.912000", "184630.915000", "184630.918000", "184630.921000", "184630.924000", "184630.927000", "184630.930000", "184630.933000", "184630.936000", "184630.938000", "184710.883000", "184710.886000", "184710.889000", "184710.892000", "184710.894000", "184710.897000", "184710.900000", "184710.903000", "184710.906000", "184710.909000", "184710.912000", "184710.915000", "184710.917000", "184710.920000", "184710.923000", "184710.926000", "184710.929000", "184710.932000", "184710.935000", "184710.937000", "184710.940000", "184710.943000", "184710.946000", "184710.949000", "184710.959000", "184710.962000", "184710.964000", "184710.967000", "184710.970000", "184710.973000", "184710.976000", "184710.979000", "184750.884000", "184750.887000", "184750.890000", "184750.893000", "184750.896000", "184750.899000", "184750.902000", "184750.905000", "184750.908000", "184750.911000", "184750.914000", "184750.916000", "184750.919000", "184750.922000", "184750.925000", "184750.928000", "184750.931000", "184750.934000", "184750.937000", "184750.939000", "184750.942000", "184750.945000", "184750.948000", "184750.951000", "184750.954000", "184750.957000", "184750.959000", "184830.884000", "184830.887000", "184830.890000", "184830.893000", "184830.896000", "184830.898000", "184830.901000", "184830.904000", "184830.907000", "184830.910000", "184830.913000", "184830.916000", "184830.919000", "184830.921000", "184830.924000", "184830.927000", "184830.930000", "184830.933000", "184830.936000", "184830.939000", "184830.942000", "184830.944000", "184830.947000", "184830.950000", "184830.953000", "184830.956000", "184830.959000", "184910.884000", "184910.887000", "184910.890000", "184910.893000", "184910.896000", "184910.898000", "184910.901000", "184910.904000", "184910.907000", "184910.910000", "184910.913000", "184910.916000", "184910.919000", "184910.922000", "184910.925000", "184910.927000", "184910.930000", "184910.933000", "184910.936000", "184910.939000", "184910.942000", "184910.945000", "184910.947000", "184910.950000", "184910.953000", "184910.956000", "184910.959000", "184950.884000", "184950.890000", "184950.893000", "184950.896000", "184950.899000", "184950.901000", "184950.904000", "184950.907000", "184950.910000", "184950.913000", "184950.916000", "184950.919000", "184950.922000", "184950.925000", "184950.927000", "184950.930000", "184950.946000", "184950.948000", "184950.951000", "184950.954000", "184950.957000", "184950.960000", "184950.963000", "184950.966000", "184950.969000", "184950.972000", "184950.974000", "185030.884000", "185030.887000", "185030.890000", "185030.893000", "185030.896000", "185030.899000", "185030.902000", "185030.905000", "185030.907000", "185030.910000", "185030.913000", "185030.916000", "185030.919000", "185030.922000", "185030.925000", "185030.927000", "185030.930000", "185030.933000", "185030.936000", "185030.939000", "185030.942000", "185030.945000", "185030.948000", "185030.951000", "185030.953000", "185030.956000", "185110.884000", "185110.887000", "185110.890000", "185110.893000", "185110.896000", "185110.899000", "185110.901000", "185110.904000", "185110.907000", "185110.910000", "185110.913000", "185110.916000", "185110.919000", "185110.921000", "185110.924000", "185110.927000", "185110.930000", "185110.933000", "185110.936000", "185110.939000", "185110.942000", "185110.944000", "185110.947000", "185110.950000", "185110.953000", "185110.956000", "185110.959000", "185150.883000", "185150.886000", "185150.889000", "185150.892000", "185150.895000", "185150.898000", "185150.900000", "185150.903000", "185150.906000", "185150.909000", "185150.912000", "185150.915000", "185150.918000", "185150.920000", "185150.923000", "185150.926000", "185150.929000", "185150.932000", "185150.935000", "185150.938000", "185150.941000", "185150.943000", "185150.946000", "185150.949000", "185150.952000", "185150.955000", "185150.958000", "185230.884000", "185230.887000", "185230.890000", "185230.893000", "185230.896000", "185230.898000", "185230.901000", "185230.904000", "185230.907000", "185230.910000", "185230.913000", "185230.916000", "185230.919000", "185230.922000", "185230.924000", "185230.927000", "185230.930000", "185230.933000", "185230.936000", "185230.939000", "185230.942000", "185230.945000", "185230.948000", "185230.950000", "185230.953000", "185230.956000", "185230.959000", "185310.884000", "185310.887000", "185310.890000", "185310.893000", "185310.896000", "185310.899000", "185310.902000", "185310.905000", "185310.908000", "185310.911000", "185310.914000", "185310.917000", "185310.920000", "185310.923000", "185310.925000", "185310.928000", "185310.931000", "185310.934000", "185310.937000", "185310.940000", "185310.943000", "185310.946000", "185310.949000", "185310.952000", "185310.954000", "185310.957000", "185310.960000", "185350.884000", "185350.887000", "185350.890000", "185350.893000", "185350.896000", "185350.899000", "185350.901000", "185350.904000", "185350.907000", "185350.910000", "185350.913000", "185350.916000", "185350.919000", "185350.922000", "185350.924000", "185350.927000", "185350.930000", "185350.933000", "185350.936000", "185350.939000", "185350.942000", "185350.944000", "185350.947000", "185350.950000", "185350.953000", "185350.956000", "185350.959000", "185430.884000", "185430.887000", "185430.890000", "185430.893000", "185430.896000", "185430.899000", "185430.902000", "185430.904000", "185430.907000", "185430.910000", "185430.913000", "185430.916000", "185430.919000", "185430.922000", "185430.925000", "185430.928000", "185430.930000", "185430.941000", "185430.943000", "185430.946000", "185430.949000", "185430.952000", "185430.955000", "185430.958000", "185430.961000", "185430.964000", "185430.967000", "185510.884000", "185510.887000", "185510.890000", "185510.893000", "185510.896000", "185510.899000", "185510.902000", "185510.905000", "185510.907000", "185510.910000", "185510.913000", "185510.916000", "185510.919000", "185510.922000", "185510.925000", "185510.928000", "185510.931000", "185510.934000", "185510.937000", "185510.940000", "185510.942000", "185510.945000", "185510.948000", "185510.951000", "185510.954000", "185510.957000", "185550.884000", "185550.887000", "185550.890000", "185550.893000", "185550.896000", "185550.899000", "185550.902000", "185550.904000", "185550.907000", "185550.910000", "185550.913000", "185550.916000", "185550.919000", "185550.922000", "185550.924000", "185550.927000", "185550.930000", "185550.933000", "185550.936000", "185550.939000", "185550.942000", "185550.945000", "185550.947000", "185550.950000", "185550.953000", "185550.956000", "185550.959000", "185630.883000", "185630.886000", "185630.889000", "185630.892000", "185630.895000", "185630.899000", "185630.901000", "185630.904000", "185630.907000", "185630.910000", "185630.913000", "185630.916000", "185630.919000", "185630.922000", "185630.925000", "185630.927000", "185630.930000", "185630.933000", "185630.936000", "185630.939000", "185630.942000", "185630.945000", "185630.948000", "185630.950000", "185630.953000", "185630.956000", "185630.959000", "185640.459000", "185640.462000", "185640.465000", "185640.468000", "185640.471000", "185640.474000", "185640.477000"],
