{
  "AcquisitionMatrixPE": 104,
  "AcquisitionNumber": 1,
  "AcquisitionTime": "18:31:18.605000",
  "BandwidthPerPixelPhaseEncode": 17.17,
  "BaseResolution": 104,
  "BodyPartExamined": "BRAIN",
  "CoilCombinationMethod": "Sum of Squares",
  "ConsistencyInfo": "N4_VE11C_LATEST_20160120",
  "ConversionSoftware": "dcm2niix",
  "ConversionSoftwareVersion": "v1.0.20220505",
  "DerivedVendorReportedEchoSpacing": 0.000560011,
  "DeviceSerialNumber": "167006",
  "DwellTime": 2.1e-06,
  "EchoTime": 0.037,
  "EchoTrainLength": 104,
  "EffectiveEchoSpacing": 0.000560011,
  "FlipAngle": 52,
  "HeudiconvVersion": "0.5.3.post811+g6206e14",
  "ImageComments": "Unaliased MB4/PE3/LB",
  "ImageOrientationPatientDICOM": [0.9996, -0.0281505, -0.00265705, 0.025128, 0.927482, -0.373022],
  "ImageOrientationText": "Tra>Cor(-21.9)>Sag(-0.7)",
  "ImageType": [
    "ORIGINAL",
    "PRIMARY",
    "M",
    "MB",
    "ND",
    "MOSAIC"
],
  "ImagingFrequency": 123.259,
  "InPlanePhaseEncodingDirectionDICOM": "COL",
  "InstitutionAddress": "Chemin Queen-Mary 4565,Montreal,District,CA,H3W 1W5",
  "InstitutionName": "IUGM",
  "InstitutionalDepartmentName": "Department",
  "MRAcquisitionType": "2D",
  "MagneticFieldStrength": 3,
  "Manufacturer": "Siemens",
  "ManufacturersModelName": "Prisma_fit",
  "MatrixCoilMode": "SENSE",
  "Modality": "MR",
  "MultibandAccelerationFactor": 4,
  "PartialFourier": 1,
  "PatientPosition": "HFS",
  "PercentPhaseFOV": 100,
  "PercentSampling": 100,
  "PhaseEncodingDirection": "j",
  "PhaseEncodingSteps": 104,
  "PhaseResolution": 1,
  "PixelBandwidth": 2290,
  "ProcedureStepDescription": "video^friends",
  "ProtocolName": "func_task-friends-s06e01a",
  "PulseSequenceDetails": "%CustomerSeq%\\cmrr_mbep2d_bold",
  "ReceiveCoilActiveElements": "HC1-7;NC1,2",
  "ReceiveCoilName": "HeadNeck_64",
  "ReconMatrixPE": 104,
  "RepetitionTime": 1.49,
  "SAR": 0.0817902,
  "ScanOptions": "FS",
  "ScanningSequence": "EP",
  "SequenceName": "epfid2d1_104",
  "SequenceVariant": "SK\\SS",
  "SeriesDescription": "func_task-friends-s06e01a",
  "SeriesNumber": 10,
  "ShimSetting": [615, -7270, -8839, 392, 42, -368, 18, 11],
  "SliceThickness": 2,
  "SliceTiming": [0, 0.7825, 0.0975, 0.8825, 0.195, 0.98, 0.2925, 1.0775, 0.3925, 1.175, 0.49, 1.2725, 0.5875, 1.3725, 0.685, 0, 0.7825, 0.0975, 0.8825, 0.195, 0.98, 0.2925, 1.0775, 0.3925, 1.175, 0.49, 1.2725, 0.5875, 1.3725, 0.685, 0, 0.7825, 0.0975, 0.8825, 0.195, 0.98, 0.2925, 1.0775, 0.3925, 1.175, 0.49, 1.2725, 0.5875, 1.3725, 0.685, 0, 0.7825, 0.0975, 0.8825, 0.195, 0.98, 0.2925, 1.0775, 0.3925, 1.175, 0.49, 1.2725, 0.5875, 1.3725, 0.685],
  "SoftwareVersions": "syngo MR E11",
  "SpacingBetweenSlices": 2,
  "StationName": "MRC35049",
  "TaskName": "s06e01a",
  "TotalReadoutTime": 0.0576811,
  "TxRefAmp": 298.057,
  "WipMemBlock": "3ebb5cb6-3062-4903-9b44-e21c00bce930||Sequence: R017 ve11c/master r/75a17815+; Jun 28 2022 16:32:11 by eja",
  "dcmmeta_affine": [
    [-1.9992003440856934, 0.05025603994727135, -0.025930257514119148, 97.1105728149414],
    [0.056301049888134, 1.854964256286621, -0.7456122636795044, -73.11524963378906],
    [-0.005314091686159372, 0.7460440397262573, 1.8556373119354248, -67.99679565429688],
    [0.0, 0.0, 0.0, 1.0]
],
  "dcmmeta_reorient_transform": [
    [0.0, -1.0, 0.0, 103.0],
    [1.0, 0.0, 0.0, 0.0],
    [0.0, 0.0, 1.0, 0.0],
    [0.0, 0.0, 0.0, 1.0]
],
  "dcmmeta_shape": [104, 104, 60, 465],
  "dcmmeta_slice_dim": 2,
  "dcmmeta_version": 0.6,
  "global": {
    "const": {
      "AcquisitionMatrix": [104, 0, 0, 104],
      "AngioFlag": "N",
      "BitsAllocated": 16,
      "BitsStored": 16,
      "BodyPartExamined": "BRAIN",
      "Columns": 832,
      "EchoNumbers": 1,
      "EchoTime": 37.0,
      "EchoTrainLength": 104,
      "FlipAngle": 52.0,
      "HighBit": 15,
      "ImageOrientationPatient": [0.99960016406679, -0.0281505258289, -0.0026570459541, 0.0251280207066, 0.9274821531576, -0.3730220344021],
      "ImagePositionPatient": [-848.28906159975, -772.65949850171, 282.34011273051],
      "ImageType": [
        "ORIGINAL",
        "PRIMARY",
        "M",
        "MB",
        "ND",
        "MOSAIC"
],
      "ImagedNucleus": "1H",
      "ImagingFrequency": 123.258797,
      "InPlanePhaseEncodingDirection": "COL",
      "MRAcquisitionType": "2D",
      "MagneticFieldStrength": 3.0,
      "Manufacturer": "SIEMENS",
      "ManufacturerModelName": "Prisma_fit",
      "Modality": "MR",
      "NumberOfAverages": 1.0,
      "NumberOfPhaseEncodingSteps": 104,
      "PercentPhaseFieldOfView": 100.0,
      "PercentSampling": 100.0,
      "PerformedProcedureStepStartTime": "182650.678000",
      "PhotometricInterpretation": "MONOCHROME2",
      "PixelBandwidth": 2290.0,
      "PixelRepresentation": 0,
      "PixelSpacing": [2.0, 2.0],
      "ProtocolName": "func_task-friends-s06e01a",
      "RepetitionTime": 1490.0,
      "Rows": 832,
      "SAR": 0.08179020856007,
      "SamplesPerPixel": 1,
      "ScanOptions": "FS",
      "ScanningSequence": "EP",
      "SequenceName": "epfid2d1_104",
      "SequenceVariant": [
        "SK",
        "SS"
],
      "SeriesDescription": "func_task-friends-s06e01a",
      "SeriesNumber": 10,
      "SeriesTime": "183230.575000",
      "SliceLocation": -37.089936750229,
      "SliceThickness": 2.0,
      "SmallestImagePixelValue": 0,
      "SoftwareVersions": "syngo MR E11",
      "SpacingBetweenSlices": 1.9999999883459,
      "SpecificCharacterSet": "ISO_IR 100",
      "StudyID": "1",
      "StudyTime": "182650.626000",
      "TransmitCoilName": "Body",
      "VariableFlipAngleFlag": "N",
      "WindowCenterWidthExplanation": "Algo1",
      "dBdt": 0.0},
    "slices": {}
  },
  "time": {
    "samples": {
      "AcquisitionNumber": [1, 2, 3, 4, 5, 6, 7, 8, 9, 10, 11, 12, 13, 14, 15, 16, 17, 18, 19, 20, 21, 22, 23, 24, 25, 26, 27, 28, 29, 30, 31, 32, 33, 34, 35, 36, 37, 38, 39, 40, 41, 42, 43, 44, 45, 46, 47, 48, 49, 50, 51, 52, 53, 54, 55, 56, 57, 58, 59, 60, 61, 62, 63, 64, 65, 66, 67, 68, 69, 70, 71, 72, 73, 74, 75, 76, 77, 78, 79, 80, 81, 82, 83, 84, 85, 86, 87, 88, 89, 90, 91, 92, 93, 94, 95, 96, 97, 98, 99, 100, 101, 102, 103, 104, 105, 106, 107, 108, 109, 110, 111, 112, 113, 114, 115, 116, 117, 118, 119, 120, 121, 122, 123, 124, 125, 126, 127, 128, 129, 130, 131, 132, 133, 134, 135, 136, 137, 138, 139, 140, 141, 142, 143, 144, 145, 146, 147, 148, 149, 150, 151, 152, 153, 154, 155, 156, 157, 158, 159, 160, 161, 162, 163, 164, 165, 166, 167, 168, 169, 170, 171, 172, 173, 174, 175, 176, 177, 178, 179, 180, 181, 182, 183, 184, 185, 186, 187, 188, 189, 190, 191, 192, 193, 194, 195, 196, 197, 198, 199, 200, 201, 202, 203, 204, 205, 206, 207, 208, 209, 210, 211, 212, 213, 214, 215, 216, 217, 218, 219, 220, 221, 222, 223, 224, 225, 226, 227, 228, 229, 230, 231, 232, 233, 234, 235, 236, 237, 238, 239, 240, 241, 242, 243, 244, 245, 246, 247, 248, 249, 250, 251, 252, 253, 254, 255, 256, 257, 258, 259, 260, 261, 262, 263, 264, 265, 266, 267, 268, 269, 270, 271, 272, 273, 274, 275, 276, 277, 278, 279, 280, 281, 282, 283, 284, 285, 286, 287, 288, 289, 290, 291, 292, 293, 294, 295, 296, 297, 298, 299, 300, 301, 302, 303, 304, 305, 306, 307, 308, 309, 310, 311, 312, 313, 314, 315, 316, 317, 318, 319, 320, 321, 322, 323, 324, 325, 326, 327, 328, 329, 330, 331, 332, 333, 334, 335, 336, 337, 338, 339, 340, 341, 342, 343, 344, 345, 346, 347, 348, 349, 350, 351, 352, 353, 354, 355, 356, 357, 358, 359, 360, 361, 362, 363, 364, 365, 366, 367, 368, 369, 370, 371, 372, 373, 374, 375, 376, 377, 378, 379, 380, 381, 382, 383, 384, 385, 386, 387, 388, 389, 390, 391, 392, 393, 394, 395, 396, 397, 398, 399, 400, 401, 402, 403, 404, 405, 406, 407, 408, 409, 410, 411, 412, 413, 414, 415, 416, 417, 418, 419, 420, 421, 422, 423, 424, 425, 426, 427, 428, 429, 430, 431, 432, 433, 434, 435, 436, 437, 438, 439, 440, 441, 442, 443, 444, 445, 446, 447, 448, 449, 450, 451, 452, 453, 454, 455, 456, 457, 458, 459, 460, 461, 462, 463, 464, 465],
      "AcquisitionTime": ["183118.605000", "183120.095000", "183121.585000", "183123.075000", "183124.565000", "183126.055000", "183127.545000", "183129.035000", "183130.525000", "183132.015000", "183133.505000", "183134.995000", "183136.485000", "183137.975000", "183139.465000", "183140.955000", "183142.445000", "183143.935000", "183145.425000", "183146.915000", "183148.405000", "183149.895000", "183151.385000", "183152.875000", "183154.365000", "183155.855000", "183157.345000", "183158.835000", "183200.325000", "183201.815000", "183203.305000", "183204.795000", "183206.285000", "183207.775000", "183209.265000", "183210.755000", "183212.245000", "183213.735000", "183215.225000", "183216.715000", "183218.205000", "183219.695000", "183221.185000", "183222.675000", "183224.165000", "183225.655000", "183227.145000", "183228.635000", "183230.125000", "183231.615000", "183233.105000", "183234.595000", "183236.085000", "183237.575000", "183239.065000", "183240.555000", "183242.045000", "183243.535000", "183245.025000", "183246.515000", "183248.005000", "183249.495000", "183250.985000", "183252.475000", "183253.965000", "183255.455000", "183256.945000", "183258.435000", "183259.925000", "183301.415000", "183302.905000", "183304.395000", "183305.885000", "183307.375000", "183308.865000", "183310.355000", "183311.845000", "183313.335000", "183314.825000", "183316.315000", "183317.805000", "183319.295000", "183320.785000", "183322.275000", "183323.765000", "183325.255000", "183326.745000", "183328.235000", "183329.725000", "183331.215000", "183332.705000", "183334.195000", "183335.685000", "183337.175000", "183338.665000", "183340.155000", "183341.645000", "183343.135000", "183344.625000", "183346.115000", "183347.605000", "183349.095000", "183350.585000", "183352.075000", "183353.565000", "183355.055000", "183356.545000", "183358.035000", "183359.525000", "183401.015000", "183402.505000", "183403.995000", "183405.485000", "183406.975000", "183408.465000", "183409.955000", "183411.445000", "183412.935000", "183414.425000", "183415.915000", "183417.405000", "183418.895000", "183420.385000", "183421.875000", "183423.365000", "183424.855000", "183426.345000", "183427.835000", "183429.325000", "183430.815000", "183432.305000", "183433.795000", "183435.285000", "183436.775000", "183438.265000", "183439.755000", "183441.245000", "183442.735000", "183444.225000", "183445.715000", "183447.205000", "183448.695000", "183450.185000", "183451.675000", "183453.165000", "183454.655000", "183456.145000", "183457.635000", "183459.125000", "183500.615000", "183502.105000", "183503.595000", "183505.085000", "183506.575000", "183508.065000", "183509.555000", "183511.045000", "183512.535000", "183514.025000", "183515.515000", "183517.005000", "183518.495000", "183519.985000", "183521.475000", "183522.965000", "183524.455000", "183525.945000", "183527.435000", "183528.925000", "183530.415000", "183531.905000", "183533.395000", "183534.885000", "183536.375000", "183537.865000", "183539.355000", "183540.845000", "183542.335000", "183543.825000", "183545.315000", "183546.805000", "183548.295000", "183549.785000", "183551.275000", "183552.765000", "183554.255000", "183555.745000", "183557.235000", "183558.725000", "183600.215000", "183601.705000", "183603.195000", "183604.685000", "183606.175000", "183607.665000", "183609.155000", "183610.645000", "183612.135000", "183613.625000", "183615.115000", "183616.605000", "183618.095000", "183619.585000", "183621.075000", "183622.565000", "183624.055000", "183625.545000", "183627.035000", "183628.525000", "183630.015000", "183631.505000", "183632.995000", "183634.485000", "183635.975000", "183637.465000", "183638.955000", "183640.445000", "183641.935000", "183643.425000", "183644.915000", "183646.405000", "183647.895000", "183649.385000", "183650.875000", "183652.365000", "183653.855000", "183655.345000", "183656.835000", "183658.325000", "183659.815000", "183701.305000", "183702.795000", "183704.285000", "183705.775000", "183707.265000", "183708.755000", "183710.245000", "183711.735000", "183713.225000", "183714.715000", "183716.205000", "183717.695000", "183719.185000", "183720.675000", "183722.165000", "183723.655000", "183725.145000", "183726.635000", "183728.125000", "183729.615000", "183731.105000", "183732.595000", "183734.085000", "183735.575000", "183737.065000", "183738.555000", "183740.045000", "183741.535000", "183743.025000", "183744.515000", "183746.005000", "183747.495000", "183748.985000", "183750.475000", "183751.965000", "183753.455000", "183754.945000", "183756.435000", "183757.925000", "183759.415000", "183800.905000", "183802.395000", "183803.885000", "183805.375000", "183806.865000", "183808.355000", "183809.845000", "183811.335000", "183812.825000", "183814.315000", "183815.805000", "183817.295000", "183818.785000", "183820.275000", "183821.765000", "183823.255000", "183824.745000", "183826.235000", "183827.725000", "183829.215000", "183830.705000", "183832.195000", "183833.685000", "183835.175000", "183836.665000", "183838.155000", "183839.645000", "183841.135000", "183842.625000", "183844.115000", "183845.605000", "183847.095000", "183848.585000", "183850.075000", "183851.565000", "183853.055000", "183854.545000", "183856.035000", "183857.525000", "183859.015000", "183900.505000", "183901.995000", "183903.485000", "183904.975000", "183906.465000", "183907.955000", "183909.445000", "183910.935000", "183912.425000", "183913.915000", "183915.405000", "183916.895000", "183918.385000", "183919.875000", "183921.365000", "183922.855000", "183924.345000", "183925.835000", "183927.325000", "183928.815000", "183930.305000", "183931.795000", "183933.285000", "183934.775000", "183936.265000", "183937.755000", "183939.245000", "183940.735000", "183942.225000", "183943.715000", "183945.205000", "183946.695000", "183948.185000", "183949.675000", "183951.165000", "183952.655000", "183954.145000", "183955.635000", "183957.125000", "183958.615000", "184000.105000", "184001.595000", "184003.085000", "184004.575000", "184006.065000", "184007.555000", "184009.045000", "184010.535000", "184012.025000", "184013.515000", "184015.005000", "184016.495000", "184017.985000", "184019.475000", "184020.965000", "184022.455000", "184023.945000", "184025.435000", "184026.925000", "184028.415000", "184029.905000", "184031.395000", "184032.885000", "184034.375000", "184035.865000", "184037.355000", "184038.845000", "184040.335000", "184041.825000", "184043.315000", "184044.805000", "184046.295000", "184047.785000", "184049.275000", "184050.765000", "184052.255000", "184053.745000", "184055.235000", "184056.725000", "184058.215000", "184059.705000", "184101.195000", "184102.685000", "184104.175000", "184105.665000", "184107.155000", "184108.645000", "184110.135000", "184111.625000", "184113.115000", "184114.605000", "184116.095000", "184117.585000", "184119.075000", "184120.565000", "184122.055000", "184123.545000", "184125.035000", "184126.525000", "184128.015000", "184129.505000", "184130.995000", "184132.485000", "184133.975000", "184135.465000", "184136.955000", "184138.445000", "184139.935000", "184141.425000", "184142.915000", "184144.405000", "184145.895000", "184147.385000", "184148.875000", "184150.365000", "184151.855000", "184153.345000", "184154.835000", "184156.325000", "184157.815000", "184159.305000", "184200.795000", "184202.285000", "184203.775000", "184205.265000", "184206.755000", "184208.245000", "184209.735000", "184211.225000", "184212.715000", "184214.205000", "184215.695000", "184217.185000", "184218.675000", "184220.165000", "184221.655000", "184223.145000", "184224.635000", "184226.125000", "184227.615000", "184229.105000", "184230.595000", "184232.085000", "184233.575000", "184235.065000", "184236.555000", "184238.045000", "184239.535000", "184241.025000", "184242.515000", "184244.005000", "184245.495000", "184246.985000", "184248.475000", "184249.965000"],
      "ContentTime": ["183230.578000", "183230.582000", "183230.584000", "183230.587000", "183230.590000", "183230.593000", "183230.596000", "183230.599000", "183230.602000", "183230.605000", "183230.607000", "183230.610000", "183230.613000", "183230.616000", "183230.619000", "183230.622000", "183230.625000", "183230.628000", "183230.631000", "183230.634000", "183230.637000", "183250.552000", "183250.555000", "183250.558000", "183250.561000", "183250.563000", "183250.566000", "183250.569000", "183250.572000", "183250.575000", "183250.578000", "183250.581000", "183250.584000", "183250.586000", "183250.589000", "183250.592000", "183250.595000", "183250.598000", "183250.601000", "183250.604000", "183250.606000", "183310.552000", "183310.555000", "183310.558000", "183310.561000", "183310.563000", "183310.566000", "183310.569000", "183310.572000", "183310.575000", "183310.578000", "183310.581000", "183310.584000", "183310.587000", "183310.590000", "183310.592000", "183310.595000", "183310.598000", "183310.601000", "183310.604000", "183310.607000", "183330.551000", "183330.554000", "183330.557000", "183330.560000", "183330.563000", "183330.565000", "183330.568000", "183330.571000", "183330.574000", "183330.577000", "183330.580000", "183330.583000", "183330.586000", "183330.588000", "183330.591000", "183330.594000", "183330.598000", "183330.600000", "183330.603000", "183330.606000", "183350.552000", "183350.555000", "183350.558000", "183350.561000", "183350.564000", "183350.566000", "183350.569000", "183350.572000", "183350.575000", "183350.578000", "183350.581000", "183350.584000", "183350.587000", "183350.590000", "183350.593000", "183350.595000", "183350.598000", "183350.601000", "183350.604000", "183350.607000", "183430.552000", "183430.555000", "183430.558000", "183430.561000", "183430.564000", "183430.567000", "183430.570000", "183430.573000", "183430.576000", "183430.579000", "183430.582000", "183430.584000", "183430.587000", "183430.590000", "183430.593000", "183430.596000", "183430.599000", "183430.602000", "183430.620000", "183430.623000", "183430.625000", "183430.628000", "183430.631000", "183430.634000", "183430.637000", "183430.640000", "183430.643000", "183510.552000", "183510.555000", "183510.558000", "183510.561000", "183510.564000", "183510.567000", "183510.570000", "183510.573000", "183510.576000", "183510.579000", "183510.581000", "183510.584000", "183510.587000", "183510.596000", "183510.599000", "183510.602000", "183510.605000", "183510.608000", "183510.611000", "183510.613000", "183510.616000", "183510.619000", "183510.622000", "183510.625000", "183510.628000", "183510.631000", "183510.633000", "183550.551000", "183550.554000", "183550.557000", "183550.560000", "183550.563000", "183550.566000", "183550.568000", "183550.571000", "183550.574000", "183550.577000", "183550.580000", "183550.583000", "183550.586000", "183550.588000", "183550.591000", "183550.594000", "183550.597000", "183550.601000", "183550.604000", "183550.607000", "183550.610000", "183550.613000", "183550.616000", "183550.619000", "183550.621000", "183550.624000", "183630.552000", "183630.555000", "183630.558000", "183630.561000", "183630.564000", "183630.566000", "183630.569000", "183630.572000", "183630.575000", "183630.578000", "183630.581000", "183630.584000", "183630.587000", "183630.590000", "183630.592000", "183630.595000", "183630.598000", "183630.601000", "183630.604000", "183630.607000", "183630.610000", "183630.613000", "183630.615000", "183630.618000", "183630.621000", "183630.624000", "183630.627000", "183710.552000", "183710.555000", "183710.558000", "183710.561000", "183710.564000", "183710.567000", "183710.569000", "183710.572000", "183710.575000", "183710.578000", "183710.581000", "183710.584000", "183710.587000", "183710.589000", "183710.592000", "183710.595000", "183710.598000", "183710.601000", "183710.604000", "183710.607000", "183710.610000", "183710.613000", "183710.616000", "183710.619000", "183710.622000", "183710.625000", "183710.628000", "183750.552000", "183750.555000", "183750.558000", "183750.561000", "183750.564000", "183750.567000", "183750.570000", "183750.572000", "183750.575000", "183750.578000", "183750.581000", "183750.584000", "183750.587000", "183750.590000", "183750.592000", "183750.595000", "183750.598000", "183750.601000", "183750.604000", "183750.607000", "183750.609000", "183750.612000", "183750.615000", "183750.618000", "183750.621000", "183750.624000", "183750.626000", "183830.552000", "183830.555000", "183830.558000", "183830.561000", "183830.564000", "183830.567000", "183830.570000", "183830.573000", "183830.575000", "183830.578000", "183830.581000", "183830.584000", "183830.587000", "183830.590000", "183830.593000", "183830.596000", "183830.598000", "183830.601000", "183830.604000", "183830.607000", "183830.610000", "183830.613000", "183830.616000", "183830.619000", "183830.621000", "183830.624000", "183830.627000", "183910.552000", "183910.555000", "183910.558000", "183910.561000", "183910.564000", "183910.567000", "183910.570000", "183910.572000", "183910.575000", "183910.578000", "183910.581000", "183910.584000", "183910.587000", "183910.590000", "183910.593000", "183910.595000", "183910.598000", "183910.601000", "183910.604000", "183910.622000", "183910.625000", "183910.628000", "183910.631000", "183910.634000", "183910.637000", "183910.639000", "183910.642000", "183950.552000", "183950.555000", "183950.558000", "183950.561000", "183950.564000", "183950.567000", "183950.570000", "183950.573000", "183950.575000", "183950.578000", "183950.581000", "183950.584000", "183950.587000", "183950.590000", "183950.592000", "183950.595000", "183950.598000", "183950.601000", "183950.604000", "183950.607000", "183950.610000", "183950.613000", "183950.616000", "183950.619000", "183950.621000", "183950.624000", "184030.551000", "184030.554000", "184030.557000", "184030.560000", "184030.563000", "184030.566000", "184030.569000", "184030.571000", "184030.574000", "184030.577000", "184030.580000", "184030.583000", "184030.586000", "184030.589000", "184030.592000", "184030.594000", "184030.597000", "184030.600000", "184030.603000", "184030.606000", "184030.619000", "184030.622000", "184030.625000", "184030.628000", "184030.631000", "184030.634000", "184030.637000", "184110.552000", "184110.555000", "184110.558000", "184110.561000", "184110.564000", "184110.567000", "184110.570000", "184110.573000", "184110.575000", "184110.578000", "184110.581000", "184110.584000", "184110.587000", "184110.590000", "184110.593000", "184110.595000", "184110.598000", "184110.601000", "184110.604000", "184110.607000", "184110.610000", "184110.612000", "184110.615000", "184110.618000", "184110.621000", "184110.624000", "184110.627000", "184150.552000", "184150.555000", "184150.558000", "184150.561000", "184150.564000", "184150.566000", "184150.570000", "184150.572000", "184150.575000", "184150.578000", "184150.581000", "184150.584000", "184150.587000", "184150.590000", "184150.593000", "184150.595000", "184150.598000", "184150.601000", "184150.604000", "184150.607000", "184150.610000", "184150.613000", "184150.616000", "184150.618000", "184150.621000", "184150.624000", "184150.627000", "184230.552000", "184230.555000", "184230.558000", "184230.561000", "184230.564000", "184230.567000", "184230.570000", "184230.573000", "184230.576000", "184230.579000", "184230.581000", "184230.584000", "184230.587000", "184230.590000", "184230.593000", "184230.596000", "184230.599000", "184230.601000", "184230.604000", "184230.607000", "184230.610000", "184230.613000", "184230.616000", "184230.619000", "184230.622000", "184230.628000", "184230.631000", "184252.443000", "184252.446000", "184252.449000", "184252.452000", "184252.455000", "184252.457000", "184252.460000", "184252.463000", "184252.466000", "184252.469000", "184252.472000", "184252.475000", "184252.478000", "184252.481000", "184252.484000"],
