{
  "AcquisitionMatrixPE": 104,
  "AcquisitionNumber": 1,
  "AcquisitionTime": "11:21:8.917500",
  "BandwidthPerPixelPhaseEncode": 17.17,
  "BaseResolution": 104,
  "BodyPartExamined": "BRAIN",
  "CoilString": "HC1-7;NC1_2",
  "ConsistencyInfo": "N4_VE11C_LATEST_20160120",
  "ConversionSoftware": "dcm2niix",
  "ConversionSoftwareVersion": "v1.0.20190902",
  "DerivedVendorReportedEchoSpacing": 0.000560011,
  "DeviceSerialNumber": "167006",
  "DwellTime": 2.1e-06,
  "EchoTime": 0.037,
  "EchoTrainLength": 104,
  "EffectiveEchoSpacing": 0.000560011,
  "FlipAngle": 52,
  "HeudiconvVersion": "0.10.0",
  "ImageComments": "Unaliased_MB4_PE3_LB",
  "ImageOrientationPatientDICOM": [0.996966, 0.0763346, 0.0152576, -0.0646456, 0.921059, -0.384019],
  "ImageType": [
    "ORIGINAL",
    "PRIMARY",
    "M",
    "MB",
    "ND",
    "MOSAIC"
],
  "ImagingFrequency": 123.259,
  "InPlanePhaseEncodingDirectionDICOM": "COL",
  "InstitutionAddress": "Chemin_Queen-Mary_4565_Montreal_District_CA_H3W_1W5",
  "InstitutionName": "IUGM",
  "InstitutionalDepartmentName": "Department",
  "MRAcquisitionType": "2D",
  "MagneticFieldStrength": 3,
  "Manufacturer": "Siemens",
  "ManufacturersModelName": "Prisma_fit",
  "Modality": "MR",
  "MultibandAccelerationFactor": 4,
  "PartialFourier": 1,
  "PatientPosition": "HFS",
  "PercentPhaseFOV": 100,
  "PhaseEncodingDirection": "j",
  "PhaseEncodingSteps": 104,
  "PhaseResolution": 1,
  "PixelBandwidth": 2290,
  "ProcedureStepDescription": "video_friends",
  "ProtocolName": "func_task-friends-s05e13b",
  "PulseSequenceDetails": "%CustomerSeq%_cmrr_mbep2d_bold",
  "ReceiveCoilActiveElements": "HC1-7;NC1,2",
  "ReceiveCoilName": "HeadNeck_64",
  "ReconMatrixPE": 104,
  "RepetitionTime": 1.49,
  "SAR": 0.0375941,
  "ScanOptions": "FS",
  "ScanningSequence": "EP",
  "SequenceName": "epfid2d1_104",
  "SequenceVariant": "SK_SS",
  "SeriesDescription": "func_task-friends-s05e13b",
  "SeriesNumber": 11,
  "ShimSetting": [636, -7177, -8813, 665, 84, -1, -67, 2],
  "SliceThickness": 2,
  "SliceTiming": [0, 0.7825, 0.0975, 0.88, 0.195, 0.98, 0.2925, 1.0775, 0.39, 1.175, 0.49, 1.2725, 0.5875, 1.37, 0.685, 0, 0.7825, 0.0975, 0.88, 0.195, 0.98, 0.2925, 1.0775, 0.39, 1.175, 0.49, 1.2725, 0.5875, 1.37, 0.685, 0, 0.7825, 0.0975, 0.88, 0.195, 0.98, 0.2925, 1.0775, 0.39, 1.175, 0.49, 1.2725, 0.5875, 1.37, 0.685, 0, 0.7825, 0.0975, 0.88, 0.195, 0.98, 0.2925, 1.0775, 0.39, 1.175, 0.49, 1.2725, 0.5875, 1.37, 0.685],
  "SoftwareVersions": "syngo_MR_E11",
  "SpacingBetweenSlices": 2,
  "StationName": "MRC35049",
  "TaskName": "s05e13b",
  "TotalReadoutTime": 0.0576811,
  "TxRefAmp": 251.017,
  "WipMemBlock": "c944c2e2-06a3-4ad1-89c8-da061d72dac8||Sequence: R016 ve11c/master r/e634e98; Dec 19 2017 11:00:25 by eja",
  "dcmmeta_affine": [
    [-1.9939310550689697, -0.12929128110408783, 0.08673414587974548, 107.08036804199219],
    [-0.15266914665699005, 1.8421189785003662, -0.763733983039856, -59.228172302246094],
    [0.030515236780047417, 0.7680372595787048, 1.8463985919952393, -66.97477722167969],
    [0.0, 0.0, 0.0, 1.0]
],
  "dcmmeta_reorient_transform": [
    [0.0, -1.0, 0.0, 103.0],
    [1.0, 0.0, 0.0, 0.0],
    [0.0, 0.0, 1.0, 0.0],
    [0.0, 0.0, 0.0, 1.0]
],
  "dcmmeta_shape": [104, 104, 60, 494],
  "dcmmeta_slice_dim": 2,
  "dcmmeta_version": 0.6,
  "global": {
    "const": {
      "AcquisitionMatrix": [104, 0, 0, 104],
      "AngioFlag": "N",
      "BitsAllocated": 16,
      "BitsStored": 16,
      "BodyPartExamined": "BRAIN",
      "Columns": 832,
      "EchoNumbers": 1,
      "EchoTime": 37.0,
      "EchoTrainLength": 104,
      "FlipAngle": 52.0,
      "HighBit": 15,
      "ImageOrientationPatient": [0.99696551521963, 0.07633456982804, 0.0152576181637, -0.0646456382212, 0.92105951356776, -0.3840186374713],
      "ImagePositionPatient": [-772.49224022843, -856.61297861211, 280.59108372858],
      "ImageType": [
        "ORIGINAL",
        "PRIMARY",
        "M",
        "MB",
        "ND",
        "MOSAIC"
],
      "ImagedNucleus": "1H",
      "ImagingFrequency": 123.258844,
      "InPlanePhaseEncodingDirection": "COL",
      "MRAcquisitionType": "2D",
      "MagneticFieldStrength": 3.0,
      "Manufacturer": "SIEMENS",
      "ManufacturerModelName": "Prisma_fit",
      "Modality": "MR",
      "NumberOfAverages": 1.0,
      "NumberOfPhaseEncodingSteps": 104,
      "PercentPhaseFieldOfView": 100.0,
      "PercentSampling": 100.0,
      "PerformedProcedureStepStartTime": "090140.073000",
      "PhotometricInterpretation": "MONOCHROME2",
      "PixelBandwidth": 2290.0,
      "PixelRepresentation": 0,
      "PixelSpacing": [2.0, 2.0],
      "ProtocolName": "func_task-friends-s05e13b",
      "RepetitionTime": 1490.0,
      "Rows": 832,
      "SAR": 0.03759414222901,
      "SamplesPerPixel": 1,
      "ScanOptions": "FS",
      "ScanningSequence": "EP",
      "SequenceName": "epfid2d1_104",
      "SequenceVariant": [
        "SK",
        "SS"
],
      "SeriesDescription": "func_task-friends-s05e13b",
      "SeriesNumber": 11,
      "SeriesTime": "112215.957000",
      "SliceLocation": -34.570018543413,
      "SliceThickness": 2.0,
      "SmallestImagePixelValue": 0,
      "SoftwareVersions": "syngo MR E11",
      "SpacingBetweenSlices": 1.9999999962319,
      "SpecificCharacterSet": "ISO_IR 100",
      "StudyID": "1",
      "StudyTime": "090139.958000",
      "TransmitCoilName": "Body",
      "VariableFlipAngleFlag": "N",
      "WindowCenterWidthExplanation": "Algo1",
      "dBdt": 0.0},
    "slices": {}
  },
  "time": {
    "samples": {
      "AcquisitionNumber": [1, 2, 3, 4, 5, 6, 7, 8, 9, 10, 11, 12, 13, 14, 15, 16, 17, 18, 19, 20, 21, 22, 23, 24, 25, 26, 27, 28, 29, 30, 31, 32, 33, 34, 35, 36, 37, 38, 39, 40, 41, 42, 43, 44, 45, 46, 47, 48, 49, 50, 51, 52, 53, 54, 55, 56, 57, 58, 59, 60, 61, 62, 63, 64, 65, 66, 67, 68, 69, 70, 71, 72, 73, 74, 75, 76, 77, 78, 79, 80, 81, 82, 83, 84, 85, 86, 87, 88, 89, 90, 91, 92, 93, 94, 95, 96, 97, 98, 99, 100, 101, 102, 103, 104, 105, 106, 107, 108, 109, 110, 111, 112, 113, 114, 115, 116, 117, 118, 119, 120, 121, 122, 123, 124, 125, 126, 127, 128, 129, 130, 131, 132, 133, 134, 135, 136, 137, 138, 139, 140, 141, 142, 143, 144, 145, 146, 147, 148, 149, 150, 151, 152, 153, 154, 155, 156, 157, 158, 159, 160, 161, 162, 163, 164, 165, 166, 167, 168, 169, 170, 171, 172, 173, 174, 175, 176, 177, 178, 179, 180, 181, 182, 183, 184, 185, 186, 187, 188, 189, 190, 191, 192, 193, 194, 195, 196, 197, 198, 199, 200, 201, 202, 203, 204, 205, 206, 207, 208, 209, 210, 211, 212, 213, 214, 215, 216, 217, 218, 219, 220, 221, 222, 223, 224, 225, 226, 227, 228, 229, 230, 231, 232, 233, 234, 235, 236, 237, 238, 239, 240, 241, 242, 243, 244, 245, 246, 247, 248, 249, 250, 251, 252, 253, 254, 255, 256, 257, 258, 259, 260, 261, 262, 263, 264, 265, 266, 267, 268, 269, 270, 271, 272, 273, 274, 275, 276, 277, 278, 279, 280, 281, 282, 283, 284, 285, 286, 287, 288, 289, 290, 291, 292, 293, 294, 295, 296, 297, 298, 299, 300, 301, 302, 303, 304, 305, 306, 307, 308, 309, 310, 311, 312, 313, 314, 315, 316, 317, 318, 319, 320, 321, 322, 323, 324, 325, 326, 327, 328, 329, 330, 331, 332, 333, 334, 335, 336, 337, 338, 339, 340, 341, 342, 343, 344, 345, 346, 347, 348, 349, 350, 351, 352, 353, 354, 355, 356, 357, 358, 359, 360, 361, 362, 363, 364, 365, 366, 367, 368, 369, 370, 371, 372, 373, 374, 375, 376, 377, 378, 379, 380, 381, 382, 383, 384, 385, 386, 387, 388, 389, 390, 391, 392, 393, 394, 395, 396, 397, 398, 399, 400, 401, 402, 403, 404, 405, 406, 407, 408, 409, 410, 411, 412, 413, 414, 415, 416, 417, 418, 419, 420, 421, 422, 423, 424, 425, 426, 427, 428, 429, 430, 431, 432, 433, 434, 435, 436, 437, 438, 439, 440, 441, 442, 443, 444, 445, 446, 447, 448, 449, 450, 451, 452, 453, 454, 455, 456, 457, 458, 459, 460, 461, 462, 463, 464, 465, 466, 467, 468, 469, 470, 471, 472, 473, 474, 475, 476, 477, 478, 479, 480, 481, 482, 483, 484, 485, 486, 487, 488, 489, 490, 491, 492, 493, 494],
      "AcquisitionTime": ["112108.917500", "112110.407500", "112111.897500", "112113.387500", "112114.877500", "112116.367500", "112117.857500", "112119.347500", "112120.837500", "112122.327500", "112123.817500", "112125.307500", "112126.797500", "112128.287500", "112129.777500", "112131.267500", "112132.757500", "112134.247500", "112135.737500", "112137.227500", "112138.717500", "112140.207500", "112141.697500", "112143.187500", "112144.677500", "112146.167500", "112147.657500", "112149.147500", "112150.637500", "112152.127500", "112153.617500", "112155.107500", "112156.597500", "112158.087500", "112159.577500", "112201.067500", "112202.557500", "112204.047500", "112205.537500", "112207.027500", "112208.517500", "112210.007500", "112211.497500", "112212.987500", "112214.477500", "112215.967500", "112217.457500", "112218.947500", "112220.437500", "112221.927500", "112223.417500", "112224.907500", "112226.397500", "112227.887500", "112229.377500", "112230.867500", "112232.357500", "112233.847500", "112235.337500", "112236.827500", "112238.317500", "112239.807500", "112241.297500", "112242.787500", "112244.277500", "112245.767500", "112247.257500", "112248.747500", "112250.237500", "112251.727500", "112253.217500", "112254.707500", "112256.197500", "112257.687500", "112259.177500", "112300.667500", "112302.157500", "112303.647500", "112305.137500", "112306.627500", "112308.117500", "112309.607500", "112311.097500", "112312.587500", "112314.077500", "112315.567500", "112317.057500", "112318.547500", "112320.037500", "112321.527500", "112323.017500", "112324.507500", "112325.997500", "112327.487500", "112328.977500", "112330.467500", "112331.957500", "112333.447500", "112334.937500", "112336.427500", "112337.917500", "112339.407500", "112340.897500", "112342.387500", "112343.877500", "112345.367500", "112346.857500", "112348.347500", "112349.837500", "112351.327500", "112352.817500", "112354.307500", "112355.797500", "112357.287500", "112358.777500", "112400.267500", "112401.757500", "112403.247500", "112404.737500", "112406.227500", "112407.717500", "112409.207500", "112410.697500", "112412.187500", "112413.677500", "112415.167500", "112416.657500", "112418.147500", "112419.637500", "112421.127500", "112422.617500", "112424.107500", "112425.597500", "112427.087500", "112428.577500", "112430.067500", "112431.557500", "112433.047500", "112434.537500", "112436.027500", "112437.517500", "112439.007500", "112440.497500", "112441.987500", "112443.477500", "112444.967500", "112446.457500", "112447.947500", "112449.437500", "112450.927500", "112452.417500", "112453.907500", "112455.397500", "112456.887500", "112458.377500", "112459.867500", "112501.357500", "112502.847500", "112504.337500", "112505.827500", "112507.317500", "112508.807500", "112510.297500", "112511.787500", "112513.277500", "112514.767500", "112516.257500", "112517.747500", "112519.237500", "112520.727500", "112522.217500", "112523.707500", "112525.197500", "112526.687500", "112528.177500", "112529.667500", "112531.157500", "112532.647500", "112534.137500", "112535.627500", "112537.117500", "112538.607500", "112540.097500", "112541.587500", "112543.077500", "112544.567500", "112546.057500", "112547.547500", "112549.037500", "112550.527500", "112552.017500", "112553.507500", "112554.997500", "112556.487500", "112557.977500", "112559.467500", "112600.957500", "112602.447500", "112603.937500", "112605.427500", "112606.917500", "112608.407500", "112609.897500", "112611.387500", "112612.877500", "112614.367500", "112615.857500", "112617.347500", "112618.837500", "112620.327500", "112621.817500", "112623.307500", "112624.797500", "112626.287500", "112627.777500", "112629.267500", "112630.757500", "112632.247500", "112633.737500", "112635.227500", "112636.717500", "112638.207500", "112639.697500", "112641.187500", "112642.677500", "112644.167500", "112645.657500", "112647.147500", "112648.637500", "112650.127500", "112651.617500", "112653.107500", "112654.597500", "112656.087500", "112657.577500", "112659.067500", "112700.557500", "112702.047500", "112703.537500", "112705.027500", "112706.517500", "112708.007500", "112709.497500", "112710.987500", "112712.477500", "112713.967500", "112715.457500", "112716.947500", "112718.437500", "112719.927500", "112721.417500", "112722.907500", "112724.397500", "112725.887500", "112727.377500", "112728.867500", "112730.357500", "112731.847500", "112733.337500", "112734.827500", "112736.317500", "112737.807500", "112739.297500", "112740.787500", "112742.277500", "112743.767500", "112745.257500", "112746.747500", "112748.237500", "112749.727500", "112751.217500", "112752.707500", "112754.197500", "112755.687500", "112757.177500", "112758.667500", "112800.157500", "112801.647500", "112803.137500", "112804.627500", "112806.117500", "112807.607500", "112809.097500", "112810.587500", "112812.077500", "112813.567500", "112815.057500", "112816.547500", "112818.037500", "112819.527500", "112821.017500", "112822.507500", "112823.997500", "112825.487500", "112826.977500", "112828.467500", "112829.957500", "112831.447500", "112832.937500", "112834.427500", "112835.917500", "112837.407500", "112838.897500", "112840.387500", "112841.877500", "112843.367500", "112844.857500", "112846.347500", "112847.837500", "112849.327500", "112850.817500", "112852.307500", "112853.797500", "112855.287500", "112856.777500", "112858.267500", "112859.757500", "112901.247500", "112902.737500", "112904.227500", "112905.717500", "112907.207500", "112908.697500", "112910.187500", "112911.677500", "112913.167500", "112914.657500", "112916.147500", "112917.637500", "112919.127500", "112920.617500", "112922.107500", "112923.597500", "112925.087500", "112926.577500", "112928.067500", "112929.557500", "112931.047500", "112932.537500", "112934.027500", "112935.517500", "112937.007500", "112938.497500", "112939.987500", "112941.477500", "112942.967500", "112944.457500", "112945.947500", "112947.437500", "112948.927500", "112950.417500", "112951.907500", "112953.397500", "112954.887500", "112956.377500", "112957.867500", "112959.357500", "113000.847500", "113002.337500", "113003.827500", "113005.317500", "113006.807500", "113008.297500", "113009.787500", "113011.277500", "113012.767500", "113014.257500", "113015.747500", "113017.237500", "113018.727500", "113020.217500", "113021.707500", "113023.197500", "113024.687500", "113026.177500", "113027.667500", "113029.157500", "113030.647500", "113032.137500", "113033.627500", "113035.117500", "113036.607500", "113038.097500", "113039.587500", "113041.077500", "113042.567500", "113044.057500", "113045.547500", "113047.037500", "113048.527500", "113050.017500", "113051.507500", "113052.997500", "113054.487500", "113055.977500", "113057.467500", "113058.957500", "113100.447500", "113101.937500", "113103.427500", "113104.917500", "113106.407500", "113107.897500", "113109.387500", "113110.877500", "113112.367500", "113113.857500", "113115.347500", "113116.837500", "113118.327500", "113119.817500", "113121.307500", "113122.797500", "113124.287500", "113125.777500", "113127.267500", "113128.757500", "113130.247500", "113131.737500", "113133.227500", "113134.717500", "113136.207500", "113137.697500", "113139.187500", "113140.677500", "113142.167500", "113143.657500", "113145.147500", "113146.637500", "113148.127500", "113149.617500", "113151.107500", "113152.597500", "113154.087500", "113155.577500", "113157.067500", "113158.557500", "113200.047500", "113201.537500", "113203.027500", "113204.517500", "113206.007500", "113207.497500", "113208.987500", "113210.477500", "113211.967500", "113213.457500", "113214.947500", "113216.437500", "113217.927500", "113219.417500", "113220.907500", "113222.397500", "113223.887500", "113225.377500", "113226.867500", "113228.357500", "113229.847500", "113231.337500", "113232.827500", "113234.317500", "113235.807500", "113237.297500", "113238.787500", "113240.277500", "113241.767500", "113243.257500", "113244.747500", "113246.237500", "113247.727500", "113249.217500", "113250.707500", "113252.197500", "113253.687500", "113255.177500", "113256.667500", "113258.157500", "113259.647500", "113301.137500", "113302.627500", "113304.117500", "113305.607500", "113307.097500", "113308.587500", "113310.077500", "113311.567500", "113313.057500", "113314.547500", "113316.037500", "113317.527500", "113319.017500", "113320.507500", "113321.997500", "113323.487500"],
      "ContentTime": ["112215.959000", "112215.963000", "112215.966000", "112215.969000", "112215.971000", "112215.974000", "112215.977000", "112215.980000", "112215.983000", "112215.986000", "112215.988000", "112215.991000", "112215.994000", "112235.925000", "112235.928000", "112235.931000", "112235.933000", "112235.936000", "112235.939000", "112235.942000", "112235.944000", "112235.947000", "112235.950000", "112235.953000", "112235.956000", "112235.974000", "112235.977000", "112235.980000", "112235.984000", "112235.987000", "112235.990000", "112235.993000", "112235.996000", "112255.925000", "112255.928000", "112255.930000", "112255.933000", "112255.936000", "112255.939000", "112255.942000", "112255.945000", "112255.948000", "112255.951000", "112255.954000", "112255.957000", "112255.960000", "112255.962000", "112255.965000", "112255.968000", "112255.971000", "112255.974000", "112255.976000", "112255.979000", "112255.982000", "112315.926000", "112315.929000", "112315.931000", "112315.934000", "112315.937000", "112315.940000", "112315.943000", "112315.946000", "112315.948000", "112315.951000", "112315.954000", "112315.957000", "112315.960000", "112315.962000", "112315.965000", "112315.968000", "112315.971000", "112315.973000", "112315.976000", "112315.979000", "112335.926000", "112335.929000", "112335.932000", "112335.934000", "112335.937000", "112335.940000", "112335.943000", "112335.946000", "112335.949000", "112335.951000", "112335.954000", "112335.957000", "112335.960000", "112335.963000", "112335.965000", "112335.968000", "112335.971000", "112335.974000", "112335.977000", "112335.979000", "112415.925000", "112415.928000", "112415.931000", "112415.933000", "112415.936000", "112415.939000", "112415.942000", "112415.945000", "112415.948000", "112415.951000", "112415.953000", "112415.956000", "112415.959000", "112415.962000", "112415.965000", "112415.967000", "112415.970000", "112415.973000", "112415.976000", "112415.979000", "112415.981000", "112415.984000", "112415.987000", "112415.990000", "112415.993000", "112415.996000", "112415.998000", "112416.002000", "112416.005000", "112416.008000", "112455.925000", "112455.928000", "112455.931000", "112455.933000", "112455.936000", "112455.939000", "112455.942000", "112455.945000", "112455.947000", "112455.950000", "112455.953000", "112455.956000", "112455.959000", "112455.962000", "112455.965000", "112455.967000", "112455.970000", "112455.973000", "112455.976000", "112455.979000", "112455.982000", "112455.984000", "112455.988000", "112455.991000", "112455.994000", "112455.997000", "112456.000000", "112535.926000", "112535.929000", "112535.932000", "112535.934000", "112535.937000", "112535.940000", "112535.943000", "112535.946000", "112535.949000", "112535.951000", "112535.954000", "112535.957000", "112535.960000", "112535.963000", "112535.965000", "112535.968000", "112535.971000", "112535.974000", "112535.977000", "112535.980000", "112535.982000", "112535.985000", "112535.988000", "112535.991000", "112535.994000", "112535.997000", "112536.000000", "112615.925000", "112615.928000", "112615.931000", "112615.933000", "112615.936000", "112615.939000", "112615.942000", "112615.945000", "112615.947000", "112615.950000", "112615.953000", "112615.956000", "112615.959000", "112615.962000", "112615.965000", "112615.968000", "112615.970000", "112615.973000", "112615.976000", "112615.979000", "112615.982000", "112615.984000", "112615.987000", "112615.990000", "112615.993000", "112615.996000", "112615.999000", "112655.925000", "112655.928000", "112655.931000", "112655.934000", "112655.937000", "112655.939000", "112655.942000", "112655.945000", "112655.948000", "112655.951000", "112655.953000", "112655.956000", "112655.959000", "112655.962000", "112655.965000", "112655.968000", "112655.970000", "112655.973000", "112655.976000", "112655.979000", "112655.982000", "112655.985000", "112655.988000", "112656.004000", "112656.007000", "112656.010000", "112656.012000", "112735.925000", "112735.928000", "112735.931000", "112735.934000", "112735.942000", "112735.945000", "112735.948000", "112735.951000", "112735.954000", "112735.957000", "112735.960000", "112735.962000", "112735.965000", "112735.968000", "112735.971000", "112735.974000", "112735.977000", "112735.979000", "112735.982000", "112735.985000", "112735.988000", "112735.991000", "112735.994000", "112735.996000", "112736.007000", "112736.010000", "112736.013000", "112815.926000", "112815.929000", "112815.932000", "112815.935000", "112815.938000", "112815.941000", "112815.944000", "112815.947000", "112815.950000", "112815.953000", "112815.956000", "112815.959000", "112815.961000", "112815.964000", "112815.967000", "112815.970000", "112815.973000", "112815.976000", "112815.978000", "112815.981000", "112815.984000", "112815.987000", "112815.990000", "112815.993000", "112815.995000", "112815.998000", "112855.925000", "112855.928000", "112855.931000", "112855.934000", "112855.936000", "112855.939000", "112855.942000", "112855.945000", "112855.948000", "112855.951000", "112855.953000", "112855.956000", "112855.959000", "112855.962000", "112855.965000", "112855.968000", "112855.970000", "112855.973000", "112855.976000", "112855.979000", "112855.982000", "112855.984000", "112855.987000", "112855.990000", "112855.993000", "112855.996000", "112856.000000", "112935.925000", "112935.928000", "112935.931000", "112935.934000", "112935.936000", "112935.939000", "112935.942000", "112935.945000", "112935.948000", "112935.951000", "112935.953000", "112935.956000", "112935.959000", "112935.962000", "112935.965000", "112935.968000", "112935.971000", "112935.974000", "112935.977000", "112935.979000", "112935.982000", "112935.985000", "112935.988000", "112935.991000", "112935.994000", "112935.996000", "112936.000000", "113015.926000", "113015.929000", "113015.932000", "113015.934000", "113015.937000", "113015.940000", "113015.943000", "113015.946000", "113015.948000", "113015.951000", "113015.954000", "113015.957000", "113015.960000", "113015.963000", "113015.965000", "113015.968000", "113015.971000", "113015.974000", "113015.977000", "113015.980000", "113015.983000", "113015.985000", "113015.988000", "113015.991000", "113015.994000", "113015.997000", "113016.001000", "113055.925000", "113055.928000", "113055.931000", "113055.934000", "113055.936000", "113055.939000", "113055.942000", "113055.945000", "113055.948000", "113055.951000", "113055.953000", "113055.956000", "113055.959000", "113055.962000", "113055.965000", "113055.967000", "113055.970000", "113055.973000", "113055.976000", "113055.979000", "113055.982000", "113055.984000", "113055.987000", "113055.990000", "113055.993000", "113055.996000", "113056.000000", "113135.925000", "113135.928000", "113135.931000", "113135.934000", "113135.936000", "113135.939000", "113135.942000", "113135.945000", "113135.948000", "113135.951000", "113135.960000", "113135.963000", "113135.965000", "113135.968000", "113135.971000", "113135.974000", "113135.977000", "113135.980000", "113135.983000", "113135.985000", "113135.988000", "113135.991000", "113136.004000", "113136.007000", "113136.010000", "113136.013000", "113136.016000", "113215.925000", "113215.928000", "113215.931000", "113215.934000", "113215.936000", "113215.939000", "113215.942000", "113215.945000", "113215.948000", "113215.952000", "113215.956000", "113215.959000", "113215.962000", "113215.965000", "113215.968000", "113215.971000", "113215.974000", "113215.977000", "113215.979000", "113215.982000", "113215.985000", "113215.988000", "113215.991000", "113215.994000", "113215.996000", "113216.000000", "113255.926000", "113255.929000", "113255.932000", "113255.934000", "113255.937000", "113255.940000", "113255.943000", "113255.946000", "113255.949000", "113255.951000", "113255.954000", "113255.957000", "113255.960000", "113255.963000", "113255.966000", "113255.969000", "113255.971000", "113255.974000", "113255.977000", "113255.980000", "113255.983000", "113255.985000", "113255.988000", "113255.991000", "113255.994000", "113255.997000", "113256.001000", "113326.050000", "113326.053000", "113326.056000", "113326.059000", "113326.062000", "113326.065000", "113326.068000", "113326.071000", "113326.074000", "113326.077000", "113326.080000", "113326.083000", "113326.086000", "113326.089000", "113326.092000", "113326.095000", "113326.098000", "113326.101000", "113326.103000", "113326.106000", "113326.109000"],
