{
  "AcquisitionMatrixPE": 104,
  "AcquisitionNumber": 1,
  "AcquisitionTime": "16:28:32.680000",
  "BandwidthPerPixelPhaseEncode": 17.17,
  "BaseResolution": 104,
  "BodyPartExamined": "BRAIN",
  "CoilCombinationMethod": "Sum of Squares",
  "ConsistencyInfo": "N4_VE11C_LATEST_20160120",
  "ConversionSoftware": "dcm2niix",
  "ConversionSoftwareVersion": "v1.0.20211006",
  "DerivedVendorReportedEchoSpacing": 0.000560011,
  "DeviceSerialNumber": "167006",
  "DwellTime": 2.1e-06,
  "EchoTime": 0.037,
  "EchoTrainLength": 104,
  "EffectiveEchoSpacing": 0.000560011,
  "FlipAngle": 52,
  "HeudiconvVersion": "0.11.3.post9+gc939bf8",
  "ImageComments": "Unaliased MB4/PE3/LB",
  "ImageOrientationPatientDICOM": [0.998814, -0.0470507, -0.0125619, 0.0402911, 0.943292, -0.329509],
  "ImageOrientationText": "Tra>Cor(-19.2)>Sag(-1.6)",
  "ImageType": [
    "ORIGINAL",
    "PRIMARY",
    "M",
    "MB",
    "ND",
    "MOSAIC"
],
  "ImagingFrequency": 123.259,
  "InPlanePhaseEncodingDirectionDICOM": "COL",
  "InstitutionAddress": "Chemin Queen-Mary 4565,Montreal,District,CA,H3W 1W5",
  "InstitutionName": "IUGM",
  "InstitutionalDepartmentName": "Department",
  "MRAcquisitionType": "2D",
  "MagneticFieldStrength": 3,
  "Manufacturer": "Siemens",
  "ManufacturersModelName": "Prisma_fit",
  "MatrixCoilMode": "SENSE",
  "Modality": "MR",
  "MultibandAccelerationFactor": 4,
  "PartialFourier": 1,
  "PatientPosition": "HFS",
  "PercentPhaseFOV": 100,
  "PercentSampling": 100,
  "PhaseEncodingDirection": "j",
  "PhaseEncodingSteps": 104,
  "PhaseResolution": 1,
  "PixelBandwidth": 2290,
  "ProcedureStepDescription": "video^friends",
  "ProtocolName": "func_task-friends-s06e18a",
  "PulseSequenceDetails": "%CustomerSeq%\\cmrr_mbep2d_bold",
  "ReceiveCoilActiveElements": "HC1-7;NC1,2",
  "ReceiveCoilName": "HeadNeck_64",
  "ReconMatrixPE": 104,
  "RepetitionTime": 1.49,
  "SAR": 0.040249,
  "ScanOptions": "FS",
  "ScanningSequence": "EP",
  "SequenceName": "epfid2d1_104",
  "SequenceVariant": "SK\\SS",
  "SeriesDescription": "func_task-friends-s06e18a",
  "SeriesNumber": 10,
  "ShimSetting": [620, -7258, -8817, 570, 1, -228, -60, -11],
  "SliceThickness": 2,
  "SliceTiming": [0, 0.7825, 0.0975, 0.8825, 0.195, 0.98, 0.2925, 1.0775, 0.3925, 1.175, 0.49, 1.2725, 0.5875, 1.3725, 0.685, 0, 0.7825, 0.0975, 0.8825, 0.195, 0.98, 0.2925, 1.0775, 0.3925, 1.175, 0.49, 1.2725, 0.5875, 1.3725, 0.685, 0, 0.7825, 0.0975, 0.8825, 0.195, 0.98, 0.2925, 1.0775, 0.3925, 1.175, 0.49, 1.2725, 0.5875, 1.3725, 0.685, 0, 0.7825, 0.0975, 0.8825, 0.195, 0.98, 0.2925, 1.0775, 0.3925, 1.175, 0.49, 1.2725, 0.5875, 1.3725, 0.685],
  "SoftwareVersions": "syngo MR E11",
  "SpacingBetweenSlices": 2,
  "StationName": "MRC35049",
  "TaskName": "s06e18a",
  "TotalReadoutTime": 0.0576811,
  "TxRefAmp": 239.884,
  "WipMemBlock": "38cd0169-11ca-4af8-9b83-460a9d14991d||Sequence: R016 ve11c/master r/e634e98; Dec 19 2017 11:00:25 by eja",
  "dcmmeta_affine": [
    [-1.9976270198822021, 0.08058226108551025, -0.0547063983976841, 99.04081726074219],
    [0.0941014438867569, 1.886584997177124, -0.6572229266166687, -78.26284790039062],
    [-0.025123881176114082, 0.6590170860290527, 1.8881380558013916, -64.36077117919922],
    [0.0, 0.0, 0.0, 1.0]
],
  "dcmmeta_reorient_transform": [
    [0.0, -1.0, 0.0, 103.0],
    [1.0, 0.0, 0.0, 0.0],
    [0.0, 0.0, 1.0, 0.0],
    [0.0, 0.0, 0.0, 1.0]
],
  "dcmmeta_shape": [104, 104, 60, 435],
  "dcmmeta_slice_dim": 2,
  "dcmmeta_version": 0.6,
  "global": {
    "const": {
      "AcquisitionMatrix": [104, 0, 0, 104],
      "AngioFlag": "N",
      "BitsAllocated": 16,
      "BitsStored": 16,
      "BodyPartExamined": "BRAIN",
      "Columns": 832,
      "EchoNumbers": 1,
      "EchoTime": 37.0,
      "EchoTrainLength": 104,
      "FlipAngle": 52.0,
      "HighBit": 15,
      "ImageOrientationPatient": [0.99881350979209, -0.0470507204985, -0.0125619408283, 0.0402911299891, 0.94329250114546, -0.3295085463641],
      "ImagePositionPatient": [-863.80897135685, -768.51942347639, 252.54530281477],
      "ImageType": [
        "ORIGINAL",
        "PRIMARY",
        "M",
        "MB",
        "ND",
        "MOSAIC"
],
      "ImagedNucleus": "1H",
      "ImagingFrequency": 123.258778,
      "InPlanePhaseEncodingDirection": "COL",
      "MRAcquisitionType": "2D",
      "MagneticFieldStrength": 3.0,
      "Manufacturer": "SIEMENS",
      "ManufacturerModelName": "Prisma_fit",
      "Modality": "MR",
      "NumberOfAverages": 1.0,
      "NumberOfPhaseEncodingSteps": 104,
      "PercentPhaseFieldOfView": 100.0,
      "PercentSampling": 100.0,
      "PerformedProcedureStepStartTime": "162340.837000",
      "PhotometricInterpretation": "MONOCHROME2",
      "PixelBandwidth": 2290.0,
      "PixelRepresentation": 0,
      "PixelSpacing": [2.0, 2.0],
      "ProtocolName": "func_task-friends-s06e18a",
      "RepetitionTime": 1490.0,
      "Rows": 832,
      "SAR": 0.04024897579089,
      "SamplesPerPixel": 1,
      "ScanOptions": "FS",
      "ScanningSequence": "EP",
      "SequenceName": "epfid2d1_104",
      "SequenceVariant": [
        "SK",
        "SS"
],
      "SeriesDescription": "func_task-friends-s06e18a",
      "SeriesNumber": 10,
      "SeriesTime": "162957.516000",
      "SliceLocation": -37.7520264491,
      "SliceThickness": 2.0,
      "SmallestImagePixelValue": 0,
      "SoftwareVersions": "syngo MR E11",
      "SpacingBetweenSlices": 2.000000022974,
      "SpecificCharacterSet": "ISO_IR 100",
      "StudyID": "1",
      "StudyTime": "162340.787000",
      "TransmitCoilName": "Body",
      "VariableFlipAngleFlag": "N",
      "WindowCenterWidthExplanation": "Algo1",
      "dBdt": 0.0},
    "slices": {}
  },
  "time": {
    "samples": {
      "AcquisitionNumber": [1, 2, 3, 4, 5, 6, 7, 8, 9, 10, 11, 12, 13, 14, 15, 16, 17, 18, 19, 20, 21, 22, 23, 24, 25, 26, 27, 28, 29, 30, 31, 32, 33, 34, 35, 36, 37, 38, 39, 40, 41, 42, 43, 44, 45, 46, 47, 48, 49, 50, 51, 52, 53, 54, 55, 56, 57, 58, 59, 60, 61, 62, 63, 64, 65, 66, 67, 68, 69, 70, 71, 72, 73, 74, 75, 76, 77, 78, 79, 80, 81, 82, 83, 84, 85, 86, 87, 88, 89, 90, 91, 92, 93, 94, 95, 96, 97, 98, 99, 100, 101, 102, 103, 104, 105, 106, 107, 108, 109, 110, 111, 112, 113, 114, 115, 116, 117, 118, 119, 120, 121, 122, 123, 124, 125, 126, 127, 128, 129, 130, 131, 132, 133, 134, 135, 136, 137, 138, 139, 140, 141, 142, 143, 144, 145, 146, 147, 148, 149, 150, 151, 152, 153, 154, 155, 156, 157, 158, 159, 160, 161, 162, 163, 164, 165, 166, 167, 168, 169, 170, 171, 172, 173, 174, 175, 176, 177, 178, 179, 180, 181, 182, 183, 184, 185, 186, 187, 188, 189, 190, 191, 192, 193, 194, 195, 196, 197, 198, 199, 200, 201, 202, 203, 204, 205, 206, 207, 208, 209, 210, 211, 212, 213, 214, 215, 216, 217, 218, 219, 220, 221, 222, 223, 224, 225, 226, 227, 228, 229, 230, 231, 232, 233, 234, 235, 236, 237, 238, 239, 240, 241, 242, 243, 244, 245, 246, 247, 248, 249, 250, 251, 252, 253, 254, 255, 256, 257, 258, 259, 260, 261, 262, 263, 264, 265, 266, 267, 268, 269, 270, 271, 272, 273, 274, 275, 276, 277, 278, 279, 280, 281, 282, 283, 284, 285, 286, 287, 288, 289, 290, 291, 292, 293, 294, 295, 296, 297, 298, 299, 300, 301, 302, 303, 304, 305, 306, 307, 308, 309, 310, 311, 312, 313, 314, 315, 316, 317, 318, 319, 320, 321, 322, 323, 324, 325, 326, 327, 328, 329, 330, 331, 332, 333, 334, 335, 336, 337, 338, 339, 340, 341, 342, 343, 344, 345, 346, 347, 348, 349, 350, 351, 352, 353, 354, 355, 356, 357, 358, 359, 360, 361, 362, 363, 364, 365, 366, 367, 368, 369, 370, 371, 372, 373, 374, 375, 376, 377, 378, 379, 380, 381, 382, 383, 384, 385, 386, 387, 388, 389, 390, 391, 392, 393, 394, 395, 396, 397, 398, 399, 400, 401, 402, 403, 404, 405, 406, 407, 408, 409, 410, 411, 412, 413, 414, 415, 416, 417, 418, 419, 420, 421, 422, 423, 424, 425, 426, 427, 428, 429, 430, 431, 432, 433, 434, 435],
      "AcquisitionTime": ["162832.680000", "162834.170000", "162835.660000", "162837.150000", "162838.640000", "162840.130000", "162841.620000", "162843.110000", "162844.600000", "162846.090000", "162847.580000", "162849.070000", "162850.560000", "162852.050000", "162853.540000", "162855.030000", "162856.520000", "162858.010000", "162859.500000", "162900.990000", "162902.480000", "162903.970000", "162905.460000", "162906.950000", "162908.440000", "162909.930000", "162911.420000", "162912.910000", "162914.400000", "162915.890000", "162917.380000", "162918.870000", "162920.360000", "162921.850000", "162923.340000", "162924.830000", "162926.320000", "162927.810000", "162929.300000", "162930.790000", "162932.280000", "162933.770000", "162935.260000", "162936.750000", "162938.240000", "162939.730000", "162941.220000", "162942.710000", "162944.200000", "162945.690000", "162947.180000", "162948.670000", "162950.160000", "162951.650000", "162953.140000", "162954.630000", "162956.120000", "162957.610000", "162959.100000", "163000.590000", "163002.080000", "163003.570000", "163005.060000", "163006.550000", "163008.040000", "163009.530000", "163011.020000", "163012.510000", "163014.000000", "163015.490000", "163016.980000", "163018.470000", "163019.960000", "163021.450000", "163022.940000", "163024.430000", "163025.920000", "163027.410000", "163028.900000", "163030.390000", "163031.880000", "163033.370000", "163034.860000", "163036.350000", "163037.840000", "163039.330000", "163040.820000", "163042.310000", "163043.800000", "163045.290000", "163046.780000", "163048.270000", "163049.760000", "163051.250000", "163052.740000", "163054.230000", "163055.720000", "163057.210000", "163058.700000", "163100.190000", "163101.680000", "163103.170000", "163104.660000", "163106.150000", "163107.640000", "163109.130000", "163110.620000", "163112.110000", "163113.600000", "163115.090000", "163116.580000", "163118.070000", "163119.560000", "163121.050000", "163122.540000", "163124.030000", "163125.520000", "163127.010000", "163128.500000", "163129.990000", "163131.480000", "163132.970000", "163134.460000", "163135.950000", "163137.440000", "163138.930000", "163140.420000", "163141.910000", "163143.400000", "163144.890000", "163146.380000", "163147.870000", "163149.360000", "163150.850000", "163152.340000", "163153.830000", "163155.320000", "163156.810000", "163158.300000", "163159.790000", "163201.280000", "163202.770000", "163204.260000", "163205.750000", "163207.240000", "163208.730000", "163210.220000", "163211.710000", "163213.200000", "163214.690000", "163216.180000", "163217.670000", "163219.160000", "163220.650000", "163222.140000", "163223.630000", "163225.120000", "163226.610000", "163228.100000", "163229.590000", "163231.080000", "163232.570000", "163234.060000", "163235.550000", "163237.040000", "163238.530000", "163240.020000", "163241.510000", "163243.000000", "163244.490000", "163245.980000", "163247.470000", "163248.960000", "163250.450000", "163251.940000", "163253.430000", "163254.920000", "163256.410000", "163257.900000", "163259.390000", "163300.880000", "163302.370000", "163303.860000", "163305.350000", "163306.840000", "163308.330000", "163309.820000", "163311.310000", "163312.800000", "163314.290000", "163315.780000", "163317.270000", "163318.760000", "163320.250000", "163321.740000", "163323.230000", "163324.720000", "163326.210000", "163327.700000", "163329.190000", "163330.680000", "163332.170000", "163333.660000", "163335.150000", "163336.640000", "163338.130000", "163339.620000", "163341.110000", "163342.600000", "163344.090000", "163345.580000", "163347.070000", "163348.560000", "163350.050000", "163351.540000", "163353.030000", "163354.520000", "163356.010000", "163357.500000", "163358.990000", "163400.480000", "163401.970000", "163403.460000", "163404.950000", "163406.440000", "163407.930000", "163409.420000", "163410.910000", "163412.400000", "163413.890000", "163415.380000", "163416.870000", "163418.360000", "163419.850000", "163421.340000", "163422.830000", "163424.320000", "163425.810000", "163427.300000", "163428.790000", "163430.280000", "163431.770000", "163433.260000", "163434.750000", "163436.240000", "163437.730000", "163439.220000", "163440.710000", "163442.200000", "163443.690000", "163445.180000", "163446.670000", "163448.160000", "163449.650000", "163451.140000", "163452.630000", "163454.120000", "163455.610000", "163457.100000", "163458.590000", "163500.080000", "163501.570000", "163503.060000", "163504.550000", "163506.040000", "163507.530000", "163509.020000", "163510.510000", "163512.000000", "163513.490000", "163514.980000", "163516.470000", "163517.960000", "163519.450000", "163520.940000", "163522.430000", "163523.920000", "163525.410000", "163526.900000", "163528.390000", "163529.880000", "163531.370000", "163532.860000", "163534.350000", "163535.840000", "163537.330000", "163538.820000", "163540.310000", "163541.800000", "163543.290000", "163544.780000", "163546.270000", "163547.760000", "163549.250000", "163550.740000", "163552.230000", "163553.720000", "163555.210000", "163556.700000", "163558.190000", "163559.680000", "163601.170000", "163602.660000", "163604.150000", "163605.640000", "163607.130000", "163608.620000", "163610.110000", "163611.600000", "163613.090000", "163614.580000", "163616.070000", "163617.560000", "163619.050000", "163620.540000", "163622.030000", "163623.520000", "163625.010000", "163626.500000", "163627.990000", "163629.480000", "163630.970000", "163632.460000", "163633.950000", "163635.440000", "163636.930000", "163638.420000", "163639.910000", "163641.400000", "163642.890000", "163644.380000", "163645.870000", "163647.360000", "163648.850000", "163650.340000", "163651.830000", "163653.320000", "163654.810000", "163656.300000", "163657.790000", "163659.280000", "163700.770000", "163702.260000", "163703.750000", "163705.240000", "163706.730000", "163708.220000", "163709.710000", "163711.200000", "163712.690000", "163714.180000", "163715.670000", "163717.160000", "163718.650000", "163720.140000", "163721.630000", "163723.120000", "163724.610000", "163726.100000", "163727.590000", "163729.080000", "163730.570000", "163732.060000", "163733.550000", "163735.040000", "163736.530000", "163738.020000", "163739.510000", "163741.000000", "163742.490000", "163743.980000", "163745.470000", "163746.960000", "163748.450000", "163749.940000", "163751.430000", "163752.920000", "163754.410000", "163755.900000", "163757.390000", "163758.880000", "163800.370000", "163801.860000", "163803.350000", "163804.840000", "163806.330000", "163807.820000", "163809.310000", "163810.800000", "163812.290000", "163813.780000", "163815.270000", "163816.760000", "163818.250000", "163819.740000", "163821.230000", "163822.720000", "163824.210000", "163825.700000", "163827.190000", "163828.680000", "163830.170000", "163831.660000", "163833.150000", "163834.640000", "163836.130000", "163837.620000", "163839.110000", "163840.600000", "163842.090000", "163843.580000", "163845.070000", "163846.560000", "163848.050000", "163849.540000", "163851.030000", "163852.520000", "163854.010000", "163855.500000", "163856.990000", "163858.480000", "163859.970000", "163901.460000", "163902.950000", "163904.440000", "163905.930000", "163907.420000", "163908.910000", "163910.400000", "163911.890000", "163913.380000", "163914.870000", "163916.360000", "163917.850000", "163919.340000"],
      "ContentTime": ["162957.518000", "162957.522000", "162957.525000", "162957.527000", "162957.530000", "162957.533000", "162957.547000", "162957.549000", "162957.552000", "162957.555000", "162957.558000", "162957.561000", "162957.564000", "162957.567000", "162957.570000", "162957.573000", "162957.575000", "162957.578000", "162957.581000", "162957.584000", "162957.587000", "162957.590000", "162957.592000", "162957.595000", "162957.598000", "162957.612000", "162957.614000", "162957.617000", "162957.620000", "162957.623000", "162957.626000", "162957.628000", "163017.490000", "163017.493000", "163017.496000", "163017.498000", "163017.501000", "163017.504000", "163017.507000", "163017.510000", "163017.513000", "163017.515000", "163017.518000", "163017.521000", "163017.524000", "163017.527000", "163017.529000", "163017.532000", "163017.535000", "163017.538000", "163017.541000", "163017.543000", "163037.489000", "163037.492000", "163037.499000", "163037.502000", "163037.505000", "163037.508000", "163037.511000", "163037.513000", "163037.516000", "163037.519000", "163037.522000", "163037.525000", "163037.528000", "163037.530000", "163037.533000", "163037.536000", "163037.539000", "163037.542000", "163037.544000", "163037.547000", "163057.489000", "163057.492000", "163057.495000", "163057.498000", "163057.501000", "163057.504000", "163057.512000", "163057.515000", "163057.518000", "163057.521000", "163057.524000", "163057.527000", "163057.530000", "163057.532000", "163057.535000", "163057.538000", "163057.541000", "163057.544000", "163057.547000", "163057.550000", "163137.489000", "163137.492000", "163137.495000", "163137.498000", "163137.500000", "163137.503000", "163137.506000", "163137.509000", "163137.512000", "163137.515000", "163137.518000", "163137.520000", "163137.523000", "163137.526000", "163137.529000", "163137.532000", "163137.535000", "163137.537000", "163137.540000", "163137.543000", "163137.546000", "163137.549000", "163137.551000", "163137.554000", "163137.557000", "163137.560000", "163137.563000", "163137.566000", "163137.569000", "163137.571000", "163137.574000", "163217.490000", "163217.493000", "163217.496000", "163217.499000", "163217.501000", "163217.504000", "163217.507000", "163217.510000", "163217.513000", "163217.516000", "163217.519000", "163217.522000", "163217.524000", "163217.527000", "163217.530000", "163217.533000", "163217.536000", "163217.538000", "163217.541000", "163217.544000", "163217.547000", "163217.550000", "163217.553000", "163217.555000", "163217.558000", "163217.561000", "163217.564000", "163257.489000", "163257.503000", "163257.506000", "163257.509000", "163257.512000", "163257.514000", "163257.517000", "163257.520000", "163257.523000", "163257.526000", "163257.528000", "163257.531000", "163257.535000", "163257.537000", "163257.540000", "163257.543000", "163257.546000", "163257.549000", "163257.552000", "163257.555000", "163257.559000", "163257.561000", "163257.564000", "163257.567000", "163257.570000", "163257.573000", "163257.576000", "163337.489000", "163337.492000", "163337.495000", "163337.498000", "163337.501000", "163337.504000", "163337.506000", "163337.509000", "163337.512000", "163337.515000", "163337.518000", "163337.521000", "163337.524000", "163337.526000", "163337.529000", "163337.532000", "163337.535000", "163337.538000", "163337.541000", "163337.543000", "163337.546000", "163337.549000", "163337.552000", "163337.555000", "163337.558000", "163337.560000", "163337.563000", "163417.490000", "163417.493000", "163417.496000", "163417.499000", "163417.501000", "163417.504000", "163417.507000", "163417.510000", "163417.513000", "163417.516000", "163417.519000", "163417.521000", "163417.524000", "163417.527000", "163417.530000", "163417.533000", "163417.536000", "163417.557000", "163417.560000", "163417.562000", "163417.565000", "163417.568000", "163417.571000", "163417.574000", "163417.577000", "163417.579000", "163417.582000", "163457.490000", "163457.493000", "163457.496000", "163457.499000", "163457.509000", "163457.512000", "163457.515000", "163457.518000", "163457.521000", "163457.524000", "163457.526000", "163457.529000", "163457.532000", "163457.535000", "163457.538000", "163457.541000", "163457.544000", "163457.546000", "163457.549000", "163457.552000", "163457.555000", "163457.558000", "163457.561000", "163457.564000", "163457.567000", "163457.570000", "163457.572000", "163537.489000", "163537.492000", "163537.495000", "163537.498000", "163537.500000", "163537.503000", "163537.506000", "163537.509000", "163537.512000", "163537.515000", "163537.517000", "163537.520000", "163537.523000", "163537.526000", "163537.529000", "163537.532000", "163537.535000", "163537.538000", "163537.541000", "163537.544000", "163537.546000", "163537.549000", "163537.552000", "163537.555000", "163537.558000", "163537.561000", "163557.489000", "163557.492000", "163557.495000", "163557.498000", "163557.501000", "163557.503000", "163557.506000", "163557.509000", "163557.512000", "163557.515000", "163557.518000", "163557.521000", "163557.523000", "163557.526000", "163637.490000", "163637.493000", "163637.496000", "163637.499000", "163637.502000", "163637.504000", "163637.507000", "163637.510000", "163637.513000", "163637.516000", "163637.519000", "163637.521000", "163637.524000", "163637.527000", "163637.530000", "163637.533000", "163637.536000", "163637.538000", "163637.541000", "163637.544000", "163637.547000", "163637.550000", "163637.553000", "163637.555000", "163637.558000", "163637.561000", "163637.564000", "163717.490000", "163717.493000", "163717.496000", "163717.499000", "163717.502000", "163717.504000", "163717.507000", "163717.510000", "163717.513000", "163717.516000", "163717.518000", "163717.521000", "163717.524000", "163717.527000", "163717.530000", "163717.533000", "163717.536000", "163717.538000", "163717.541000", "163717.544000", "163717.547000", "163717.550000", "163717.553000", "163717.555000", "163717.558000", "163717.561000", "163717.564000", "163757.489000", "163757.492000", "163757.495000", "163757.498000", "163757.500000", "163757.503000", "163757.506000", "163757.509000", "163757.512000", "163757.515000", "163757.518000", "163757.520000", "163757.523000", "163757.526000", "163757.529000", "163757.532000", "163757.536000", "163757.538000", "163757.541000", "163757.544000", "163757.547000", "163757.550000", "163757.552000", "163757.555000", "163757.558000", "163757.561000", "163837.489000", "163837.492000", "163837.495000", "163837.498000", "163837.500000", "163837.503000", "163837.506000", "163837.509000", "163837.512000", "163837.515000", "163837.518000", "163837.527000", "163837.529000", "163837.532000", "163837.535000", "163837.538000", "163837.541000", "163837.544000", "163837.546000", "163837.549000", "163837.552000", "163837.555000", "163837.558000", "163837.561000", "163837.563000", "163837.566000", "163837.569000", "163917.490000", "163917.493000", "163917.496000", "163917.499000", "163917.501000", "163917.504000", "163917.507000", "163917.510000", "163917.513000", "163917.516000", "163917.518000", "163917.521000", "163917.524000", "163917.527000", "163917.530000", "163917.533000", "163917.536000", "163917.538000", "163917.541000", "163917.544000", "163917.547000", "163917.550000", "163917.552000", "163917.555000", "163917.558000", "163917.561000", "163917.564000", "163921.159000", "163921.162000", "163921.165000"],
