{
  "AcquisitionMatrixPE": 104,
  "AcquisitionNumber": 1,
  "AcquisitionTime": "16:40:39.905000",
  "BandwidthPerPixelPhaseEncode": 17.17,
  "BaseResolution": 104,
  "BodyPartExamined": "BRAIN",
  "CoilCombinationMethod": "Sum of Squares",
  "ConsistencyInfo": "N4_VE11C_LATEST_20160120",
  "ConversionSoftware": "dcm2niix",
  "ConversionSoftwareVersion": "v1.0.20211006",
  "DerivedVendorReportedEchoSpacing": 0.000560011,
  "DeviceSerialNumber": "167006",
  "DwellTime": 2.1e-06,
  "EchoTime": 0.037,
  "EchoTrainLength": 104,
  "EffectiveEchoSpacing": 0.000560011,
  "FlipAngle": 52,
  "HeudiconvVersion": "0.11.3.post9+gc939bf8",
  "ImageComments": "Unaliased MB4/PE3/LB",
  "ImageOrientationPatientDICOM": [0.998814, -0.0470507, -0.0125619, 0.0402911, 0.943292, -0.329509],
  "ImageOrientationText": "Tra>Cor(-19.2)>Sag(-1.6)",
  "ImageType": [
    "ORIGINAL",
    "PRIMARY",
    "M",
    "MB",
    "ND",
    "MOSAIC"
],
  "ImagingFrequency": 123.259,
  "InPlanePhaseEncodingDirectionDICOM": "COL",
  "InstitutionAddress": "Chemin Queen-Mary 4565,Montreal,District,CA,H3W 1W5",
  "InstitutionName": "IUGM",
  "InstitutionalDepartmentName": "Department",
  "MRAcquisitionType": "2D",
  "MagneticFieldStrength": 3,
  "Manufacturer": "Siemens",
  "ManufacturersModelName": "Prisma_fit",
  "MatrixCoilMode": "SENSE",
  "Modality": "MR",
  "MultibandAccelerationFactor": 4,
  "PartialFourier": 1,
  "PatientPosition": "HFS",
  "PercentPhaseFOV": 100,
  "PercentSampling": 100,
  "PhaseEncodingDirection": "j",
  "PhaseEncodingSteps": 104,
  "PhaseResolution": 1,
  "PixelBandwidth": 2290,
  "ProcedureStepDescription": "video^friends",
  "ProtocolName": "func_task-friends-s06e18b",
  "PulseSequenceDetails": "%CustomerSeq%\\cmrr_mbep2d_bold",
  "ReceiveCoilActiveElements": "HC1-7;NC1,2",
  "ReceiveCoilName": "HeadNeck_64",
  "ReconMatrixPE": 104,
  "RepetitionTime": 1.49,
  "SAR": 0.0402626,
  "ScanOptions": "FS",
  "ScanningSequence": "EP",
  "SequenceName": "epfid2d1_104",
  "SequenceVariant": "SK\\SS",
  "SeriesDescription": "func_task-friends-s06e18b",
  "SeriesNumber": 12,
  "ShimSetting": [620, -7258, -8817, 570, 1, -228, -60, -11],
  "SliceThickness": 2,
  "SliceTiming": [0, 0.785, 0.1, 0.8825, 0.1975, 0.98, 0.295, 1.0775, 0.3925, 1.1775, 0.49, 1.275, 0.5875, 1.3725, 0.6875, 0, 0.785, 0.1, 0.8825, 0.1975, 0.98, 0.295, 1.0775, 0.3925, 1.1775, 0.49, 1.275, 0.5875, 1.3725, 0.6875, 0, 0.785, 0.1, 0.8825, 0.1975, 0.98, 0.295, 1.0775, 0.3925, 1.1775, 0.49, 1.275, 0.5875, 1.3725, 0.6875, 0, 0.785, 0.1, 0.8825, 0.1975, 0.98, 0.295, 1.0775, 0.3925, 1.1775, 0.49, 1.275, 0.5875, 1.3725, 0.6875],
  "SoftwareVersions": "syngo MR E11",
  "SpacingBetweenSlices": 2,
  "StationName": "MRC35049",
  "TaskName": "s06e18b",
  "TotalReadoutTime": 0.0576811,
  "TxRefAmp": 239.884,
  "WipMemBlock": "7747b5ce-0507-42b2-96f3-bd7986462c87||Sequence: R016 ve11c/master r/e634e98; Dec 19 2017 11:00:25 by eja",
  "dcmmeta_affine": [
    [-1.9976270198822021, 0.08058226108551025, -0.0547063983976841, 99.04081726074219],
    [0.0941014438867569, 1.886584997177124, -0.6572229266166687, -78.26284790039062],
    [-0.025123881176114082, 0.6590170860290527, 1.8881380558013916, -64.36077117919922],
    [0.0, 0.0, 0.0, 1.0]
],
  "dcmmeta_reorient_transform": [
    [0.0, -1.0, 0.0, 103.0],
    [1.0, 0.0, 0.0, 0.0],
    [0.0, 0.0, 1.0, 0.0],
    [0.0, 0.0, 0.0, 1.0]
],
  "dcmmeta_shape": [104, 104, 60, 470],
  "dcmmeta_slice_dim": 2,
  "dcmmeta_version": 0.6,
  "global": {
    "const": {
      "AcquisitionMatrix": [104, 0, 0, 104],
      "AngioFlag": "N",
      "BitsAllocated": 16,
      "BitsStored": 16,
      "BodyPartExamined": "BRAIN",
      "Columns": 832,
      "EchoNumbers": 1,
      "EchoTime": 37.0,
      "EchoTrainLength": 104,
      "FlipAngle": 52.0,
      "HighBit": 15,
      "ImageOrientationPatient": [0.99881350979209, -0.0470507204985, -0.0125619408283, 0.0402911299891, 0.94329250114546, -0.3295085463641],
      "ImagePositionPatient": [-863.80897135685, -768.51942347639, 252.54530281477],
      "ImageType": [
        "ORIGINAL",
        "PRIMARY",
        "M",
        "MB",
        "ND",
        "MOSAIC"
],
      "ImagedNucleus": "1H",
      "ImagingFrequency": 123.258784,
      "InPlanePhaseEncodingDirection": "COL",
      "MRAcquisitionType": "2D",
      "MagneticFieldStrength": 3.0,
      "Manufacturer": "SIEMENS",
      "ManufacturerModelName": "Prisma_fit",
      "Modality": "MR",
      "NumberOfAverages": 1.0,
      "NumberOfPhaseEncodingSteps": 104,
      "PercentPhaseFieldOfView": 100.0,
      "PercentSampling": 100.0,
      "PerformedProcedureStepStartTime": "162340.837000",
      "PhotometricInterpretation": "MONOCHROME2",
      "PixelBandwidth": 2290.0,
      "PixelRepresentation": 0,
      "PixelSpacing": [2.0, 2.0],
      "ProtocolName": "func_task-friends-s06e18b",
      "RepetitionTime": 1490.0,
      "Rows": 832,
      "SAR": 0.04026257760685,
      "SamplesPerPixel": 1,
      "ScanOptions": "FS",
      "ScanningSequence": "EP",
      "SequenceName": "epfid2d1_104",
      "SequenceVariant": [
        "SK",
        "SS"
],
      "SeriesDescription": "func_task-friends-s06e18b",
      "SeriesNumber": 12,
      "SeriesTime": "164204.789000",
      "SliceLocation": -37.7520264491,
      "SliceThickness": 2.0,
      "SmallestImagePixelValue": 0,
      "SoftwareVersions": "syngo MR E11",
      "SpacingBetweenSlices": 2.000000022974,
      "SpecificCharacterSet": "ISO_IR 100",
      "StudyID": "1",
      "StudyTime": "162340.787000",
      "TransmitCoilName": "Body",
      "VariableFlipAngleFlag": "N",
      "WindowCenterWidthExplanation": "Algo1",
      "dBdt": 0.0},
    "slices": {}
  },
  "time": {
    "samples": {
      "AcquisitionNumber": [1, 2, 3, 4, 5, 6, 7, 8, 9, 10, 11, 12, 13, 14, 15, 16, 17, 18, 19, 20, 21, 22, 23, 24, 25, 26, 27, 28, 29, 30, 31, 32, 33, 34, 35, 36, 37, 38, 39, 40, 41, 42, 43, 44, 45, 46, 47, 48, 49, 50, 51, 52, 53, 54, 55, 56, 57, 58, 59, 60, 61, 62, 63, 64, 65, 66, 67, 68, 69, 70, 71, 72, 73, 74, 75, 76, 77, 78, 79, 80, 81, 82, 83, 84, 85, 86, 87, 88, 89, 90, 91, 92, 93, 94, 95, 96, 97, 98, 99, 100, 101, 102, 103, 104, 105, 106, 107, 108, 109, 110, 111, 112, 113, 114, 115, 116, 117, 118, 119, 120, 121, 122, 123, 124, 125, 126, 127, 128, 129, 130, 131, 132, 133, 134, 135, 136, 137, 138, 139, 140, 141, 142, 143, 144, 145, 146, 147, 148, 149, 150, 151, 152, 153, 154, 155, 156, 157, 158, 159, 160, 161, 162, 163, 164, 165, 166, 167, 168, 169, 170, 171, 172, 173, 174, 175, 176, 177, 178, 179, 180, 181, 182, 183, 184, 185, 186, 187, 188, 189, 190, 191, 192, 193, 194, 195, 196, 197, 198, 199, 200, 201, 202, 203, 204, 205, 206, 207, 208, 209, 210, 211, 212, 213, 214, 215, 216, 217, 218, 219, 220, 221, 222, 223, 224, 225, 226, 227, 228, 229, 230, 231, 232, 233, 234, 235, 236, 237, 238, 239, 240, 241, 242, 243, 244, 245, 246, 247, 248, 249, 250, 251, 252, 253, 254, 255, 256, 257, 258, 259, 260, 261, 262, 263, 264, 265, 266, 267, 268, 269, 270, 271, 272, 273, 274, 275, 276, 277, 278, 279, 280, 281, 282, 283, 284, 285, 286, 287, 288, 289, 290, 291, 292, 293, 294, 295, 296, 297, 298, 299, 300, 301, 302, 303, 304, 305, 306, 307, 308, 309, 310, 311, 312, 313, 314, 315, 316, 317, 318, 319, 320, 321, 322, 323, 324, 325, 326, 327, 328, 329, 330, 331, 332, 333, 334, 335, 336, 337, 338, 339, 340, 341, 342, 343, 344, 345, 346, 347, 348, 349, 350, 351, 352, 353, 354, 355, 356, 357, 358, 359, 360, 361, 362, 363, 364, 365, 366, 367, 368, 369, 370, 371, 372, 373, 374, 375, 376, 377, 378, 379, 380, 381, 382, 383, 384, 385, 386, 387, 388, 389, 390, 391, 392, 393, 394, 395, 396, 397, 398, 399, 400, 401, 402, 403, 404, 405, 406, 407, 408, 409, 410, 411, 412, 413, 414, 415, 416, 417, 418, 419, 420, 421, 422, 423, 424, 425, 426, 427, 428, 429, 430, 431, 432, 433, 434, 435, 436, 437, 438, 439, 440, 441, 442, 443, 444, 445, 446, 447, 448, 449, 450, 451, 452, 453, 454, 455, 456, 457, 458, 459, 460, 461, 462, 463, 464, 465, 466, 467, 468, 469, 470],
      "AcquisitionTime": ["164039.905000", "164041.395000", "164042.885000", "164044.375000", "164045.865000", "164047.355000", "164048.845000", "164050.335000", "164051.825000", "164053.315000", "164054.805000", "164056.295000", "164057.785000", "164059.275000", "164100.765000", "164102.255000", "164103.745000", "164105.235000", "164106.725000", "164108.215000", "164109.705000", "164111.195000", "164112.685000", "164114.175000", "164115.665000", "164117.155000", "164118.645000", "164120.135000", "164121.625000", "164123.115000", "164124.605000", "164126.095000", "164127.585000", "164129.075000", "164130.565000", "164132.055000", "164133.545000", "164135.035000", "164136.525000", "164138.015000", "164139.505000", "164140.995000", "164142.485000", "164143.975000", "164145.465000", "164146.955000", "164148.445000", "164149.935000", "164151.425000", "164152.915000", "164154.405000", "164155.895000", "164157.385000", "164158.875000", "164200.365000", "164201.855000", "164203.345000", "164204.835000", "164206.325000", "164207.815000", "164209.305000", "164210.795000", "164212.285000", "164213.775000", "164215.265000", "164216.755000", "164218.245000", "164219.735000", "164221.225000", "164222.715000", "164224.205000", "164225.695000", "164227.185000", "164228.675000", "164230.165000", "164231.655000", "164233.145000", "164234.635000", "164236.125000", "164237.615000", "164239.105000", "164240.595000", "164242.085000", "164243.575000", "164245.065000", "164246.555000", "164248.045000", "164249.535000", "164251.025000", "164252.515000", "164254.005000", "164255.495000", "164256.985000", "164258.475000", "164259.965000", "164301.455000", "164302.945000", "164304.435000", "164305.925000", "164307.415000", "164308.905000", "164310.395000", "164311.885000", "164313.375000", "164314.865000", "164316.355000", "164317.845000", "164319.335000", "164320.825000", "164322.315000", "164323.805000", "164325.295000", "164326.785000", "164328.275000", "164329.765000", "164331.255000", "164332.745000", "164334.235000", "164335.725000", "164337.215000", "164338.705000", "164340.195000", "164341.685000", "164343.175000", "164344.665000", "164346.155000", "164347.645000", "164349.135000", "164350.625000", "164352.115000", "164353.605000", "164355.095000", "164356.585000", "164358.075000", "164359.565000", "164401.055000", "164402.545000", "164404.035000", "164405.525000", "164407.015000", "164408.505000", "164409.995000", "164411.485000", "164412.975000", "164414.465000", "164415.955000", "164417.445000", "164418.935000", "164420.425000", "164421.915000", "164423.405000", "164424.895000", "164426.385000", "164427.875000", "164429.365000", "164430.855000", "164432.345000", "164433.835000", "164435.325000", "164436.815000", "164438.305000", "164439.795000", "164441.285000", "164442.775000", "164444.265000", "164445.755000", "164447.245000", "164448.735000", "164450.225000", "164451.715000", "164453.205000", "164454.695000", "164456.185000", "164457.675000", "164459.165000", "164500.655000", "164502.145000", "164503.635000", "164505.125000", "164506.615000", "164508.105000", "164509.595000", "164511.085000", "164512.575000", "164514.065000", "164515.555000", "164517.045000", "164518.535000", "164520.025000", "164521.515000", "164523.005000", "164524.495000", "164525.985000", "164527.475000", "164528.965000", "164530.455000", "164531.945000", "164533.435000", "164534.925000", "164536.415000", "164537.905000", "164539.395000", "164540.885000", "164542.375000", "164543.865000", "164545.355000", "164546.845000", "164548.335000", "164549.825000", "164551.315000", "164552.805000", "164554.295000", "164555.785000", "164557.275000", "164558.765000", "164600.255000", "164601.745000", "164603.235000", "164604.725000", "164606.215000", "164607.705000", "164609.195000", "164610.685000", "164612.175000", "164613.665000", "164615.155000", "164616.645000", "164618.135000", "164619.625000", "164621.115000", "164622.605000", "164624.095000", "164625.585000", "164627.075000", "164628.565000", "164630.055000", "164631.545000", "164633.035000", "164634.525000", "164636.015000", "164637.505000", "164638.995000", "164640.485000", "164641.975000", "164643.465000", "164644.955000", "164646.445000", "164647.935000", "164649.425000", "164650.915000", "164652.405000", "164653.895000", "164655.385000", "164656.875000", "164658.365000", "164659.855000", "164701.345000", "164702.835000", "164704.325000", "164705.815000", "164707.305000", "164708.795000", "164710.285000", "164711.775000", "164713.265000", "164714.755000", "164716.245000", "164717.735000", "164719.225000", "164720.715000", "164722.205000", "164723.695000", "164725.185000", "164726.675000", "164728.165000", "164729.655000", "164731.145000", "164732.635000", "164734.125000", "164735.615000", "164737.105000", "164738.595000", "164740.085000", "164741.575000", "164743.065000", "164744.555000", "164746.045000", "164747.535000", "164749.025000", "164750.515000", "164752.005000", "164753.495000", "164754.985000", "164756.475000", "164757.965000", "164759.455000", "164800.945000", "164802.435000", "164803.925000", "164805.415000", "164806.905000", "164808.395000", "164809.885000", "164811.375000", "164812.865000", "164814.355000", "164815.845000", "164817.335000", "164818.825000", "164820.315000", "164821.805000", "164823.295000", "164824.785000", "164826.275000", "164827.765000", "164829.255000", "164830.745000", "164832.235000", "164833.725000", "164835.215000", "164836.705000", "164838.195000", "164839.685000", "164841.175000", "164842.665000", "164844.155000", "164845.645000", "164847.135000", "164848.625000", "164850.115000", "164851.605000", "164853.095000", "164854.585000", "164856.075000", "164857.565000", "164859.055000", "164900.545000", "164902.035000", "164903.525000", "164905.015000", "164906.505000", "164907.995000", "164909.485000", "164910.975000", "164912.465000", "164913.955000", "164915.445000", "164916.935000", "164918.425000", "164919.915000", "164921.405000", "164922.895000", "164924.385000", "164925.875000", "164927.365000", "164928.855000", "164930.345000", "164931.835000", "164933.325000", "164934.815000", "164936.305000", "164937.795000", "164939.285000", "164940.775000", "164942.265000", "164943.755000", "164945.245000", "164946.735000", "164948.225000", "164949.715000", "164951.205000", "164952.695000", "164954.185000", "164955.675000", "164957.165000", "164958.655000", "165000.145000", "165001.635000", "165003.125000", "165004.615000", "165006.105000", "165007.595000", "165009.085000", "165010.575000", "165012.065000", "165013.555000", "165015.045000", "165016.535000", "165018.025000", "165019.515000", "165021.005000", "165022.495000", "165023.985000", "165025.475000", "165026.965000", "165028.455000", "165029.945000", "165031.435000", "165032.925000", "165034.415000", "165035.905000", "165037.395000", "165038.885000", "165040.375000", "165041.865000", "165043.355000", "165044.845000", "165046.335000", "165047.825000", "165049.315000", "165050.805000", "165052.295000", "165053.785000", "165055.275000", "165056.765000", "165058.255000", "165059.745000", "165101.235000", "165102.725000", "165104.215000", "165105.705000", "165107.195000", "165108.685000", "165110.175000", "165111.665000", "165113.155000", "165114.645000", "165116.135000", "165117.625000", "165119.115000", "165120.605000", "165122.095000", "165123.585000", "165125.075000", "165126.565000", "165128.055000", "165129.545000", "165131.035000", "165132.525000", "165134.015000", "165135.505000", "165136.995000", "165138.485000", "165139.975000", "165141.465000", "165142.955000", "165144.445000", "165145.935000", "165147.425000", "165148.915000", "165150.405000", "165151.895000", "165153.385000", "165154.875000", "165156.365000", "165157.855000", "165159.345000", "165200.835000", "165202.325000", "165203.815000", "165205.305000", "165206.795000", "165208.285000", "165209.775000", "165211.265000", "165212.755000", "165214.245000", "165215.735000", "165217.225000", "165218.715000"],
      "ContentTime": ["164204.791000", "164204.795000", "164204.797000", "164204.800000", "164204.803000", "164204.806000", "164204.809000", "164204.812000", "164204.815000", "164204.818000", "164204.821000", "164204.824000", "164204.827000", "164204.830000", "164204.833000", "164204.835000", "164204.838000", "164204.841000", "164204.844000", "164204.847000", "164204.849000", "164204.852000", "164204.855000", "164204.858000", "164204.861000", "164204.864000", "164204.867000", "164204.869000", "164204.872000", "164204.875000", "164224.757000", "164224.760000", "164224.763000", "164224.765000", "164224.768000", "164224.771000", "164224.774000", "164224.777000", "164224.780000", "164224.783000", "164224.785000", "164224.788000", "164224.791000", "164224.805000", "164224.808000", "164224.811000", "164224.814000", "164224.816000", "164224.819000", "164224.822000", "164244.758000", "164244.761000", "164244.764000", "164244.766000", "164244.777000", "164244.780000", "164244.783000", "164244.786000", "164244.789000", "164244.792000", "164244.794000", "164244.797000", "164244.800000", "164244.803000", "164244.806000", "164244.809000", "164244.811000", "164244.814000", "164244.817000", "164244.820000", "164304.757000", "164304.760000", "164304.763000", "164304.765000", "164304.768000", "164304.771000", "164304.774000", "164304.777000", "164304.780000", "164304.782000", "164304.785000", "164304.788000", "164304.791000", "164304.794000", "164304.797000", "164304.799000", "164304.802000", "164304.805000", "164304.808000", "164304.811000", "164344.757000", "164344.760000", "164344.769000", "164344.771000", "164344.774000", "164344.777000", "164344.780000", "164344.783000", "164344.785000", "164344.788000", "164344.791000", "164344.794000", "164344.797000", "164344.800000", "164344.802000", "164344.805000", "164344.808000", "164344.811000", "164344.814000", "164344.816000", "164344.819000", "164344.822000", "164344.825000", "164344.828000", "164344.831000", "164344.833000", "164344.836000", "164344.839000", "164344.842000", "164344.845000", "164344.848000", "164344.850000", "164344.853000", "164424.757000", "164424.760000", "164424.763000", "164424.766000", "164424.768000", "164424.771000", "164424.774000", "164424.777000", "164424.780000", "164424.783000", "164424.785000", "164424.788000", "164424.791000", "164424.794000", "164424.797000", "164424.800000", "164424.802000", "164424.805000", "164424.808000", "164424.811000", "164424.814000", "164424.817000", "164424.819000", "164424.822000", "164424.825000", "164424.828000", "164424.831000", "164504.758000", "164504.761000", "164504.764000", "164504.767000", "164504.769000", "164504.772000", "164504.791000", "164504.793000", "164504.796000", "164504.799000", "164504.802000", "164504.805000", "164504.808000", "164504.811000", "164504.821000", "164504.824000", "164504.827000", "164504.830000", "164504.833000", "164504.836000", "164504.839000", "164504.842000", "164504.844000", "164504.847000", "164504.850000", "164504.853000", "164504.856000", "164544.757000", "164544.760000", "164544.763000", "164544.765000", "164544.768000", "164544.771000", "164544.774000", "164544.783000", "164544.786000", "164544.789000", "164544.792000", "164544.795000", "164544.798000", "164544.801000", "164544.804000", "164544.807000", "164544.810000", "164544.812000", "164544.815000", "164544.818000", "164544.821000", "164544.824000", "164544.827000", "164544.830000", "164544.832000", "164544.835000", "164604.757000", "164604.760000", "164604.763000", "164604.766000", "164604.769000", "164604.772000", "164604.775000", "164604.778000", "164604.780000", "164604.783000", "164604.786000", "164604.789000", "164604.792000", "164604.795000", "164644.757000", "164644.760000", "164644.763000", "164644.766000", "164644.769000", "164644.772000", "164644.775000", "164644.778000", "164644.780000", "164644.783000", "164644.786000", "164644.789000", "164644.792000", "164644.795000", "164644.798000", "164644.801000", "164644.803000", "164644.806000", "164644.809000", "164644.812000", "164644.815000", "164644.818000", "164644.821000", "164644.823000", "164644.826000", "164644.829000", "164644.832000", "164724.758000", "164724.761000", "164724.764000", "164724.767000", "164724.770000", "164724.772000", "164724.775000", "164724.778000", "164724.781000", "164724.784000", "164724.787000", "164724.789000", "164724.792000", "164724.795000", "164724.798000", "164724.801000", "164724.804000", "164724.807000", "164724.809000", "164724.812000", "164724.815000", "164724.818000", "164724.821000", "164724.823000", "164724.826000", "164724.829000", "164724.832000", "164804.757000", "164804.760000", "164804.763000", "164804.766000", "164804.768000", "164804.771000", "164804.774000", "164804.777000", "164804.780000", "164804.782000", "164804.785000", "164804.788000", "164804.791000", "164804.794000", "164804.798000", "164804.801000", "164804.804000", "164804.807000", "164804.810000", "164804.812000", "164804.815000", "164804.818000", "164804.821000", "164804.824000", "164804.827000", "164804.830000", "164844.757000", "164844.760000", "164844.763000", "164844.766000", "164844.769000", "164844.772000", "164844.775000", "164844.778000", "164844.780000", "164844.783000", "164844.786000", "164844.789000", "164844.792000", "164844.795000", "164844.798000", "164844.800000", "164844.803000", "164844.806000", "164844.809000", "164844.812000", "164844.815000", "164844.818000", "164844.820000", "164844.823000", "164844.826000", "164844.829000", "164844.832000", "164924.758000", "164924.761000", "164924.764000", "164924.767000", "164924.770000", "164924.773000", "164924.776000", "164924.778000", "164924.781000", "164924.784000", "164924.787000", "164924.790000", "164924.793000", "164924.796000", "164924.798000", "164924.816000", "164924.819000", "164924.822000", "164924.825000", "164924.828000", "164924.831000", "164924.834000", "164924.837000", "164924.839000", "164924.842000", "164924.845000", "164924.848000", "165004.757000", "165004.760000", "165004.763000", "165004.766000", "165004.769000", "165004.772000", "165004.774000", "165004.777000", "165004.780000", "165004.783000", "165004.786000", "165004.789000", "165004.792000", "165004.794000", "165004.797000", "165004.800000", "165004.803000", "165004.806000", "165004.809000", "165004.812000", "165004.815000", "165004.818000", "165004.821000", "165004.824000", "165004.826000", "165004.829000", "165004.832000", "165044.757000", "165044.760000", "165044.763000", "165044.766000", "165044.769000", "165044.772000", "165044.774000", "165044.777000", "165044.780000", "165044.783000", "165044.786000", "165044.789000", "165044.792000", "165044.794000", "165044.797000", "165044.800000", "165044.803000", "165044.806000", "165044.809000", "165044.812000", "165044.814000", "165044.817000", "165044.820000", "165044.823000", "165044.826000", "165044.829000", "165044.832000", "165124.757000", "165124.760000", "165124.763000", "165124.766000", "165124.769000", "165124.772000", "165124.775000", "165124.778000", "165124.780000", "165124.783000", "165124.786000", "165124.789000", "165124.792000", "165124.802000", "165124.805000", "165124.808000", "165124.810000", "165124.813000", "165124.816000", "165124.819000", "165124.822000", "165124.825000", "165124.828000", "165124.831000", "165124.833000", "165124.836000", "165124.839000", "165204.758000", "165204.761000", "165204.764000", "165204.767000", "165204.770000", "165204.773000", "165204.776000", "165204.779000", "165204.781000", "165204.784000", "165204.787000", "165204.790000", "165204.793000", "165204.796000", "165204.799000", "165204.802000", "165204.805000", "165204.808000", "165204.812000", "165204.816000", "165204.819000", "165204.822000", "165204.826000", "165204.828000", "165204.831000", "165204.834000", "165221.258000", "165221.261000", "165221.264000", "165221.267000", "165221.270000", "165221.273000", "165221.275000", "165221.279000", "165221.281000", "165221.284000", "165221.287000", "165221.290000"],
