{
  "AcquisitionMatrixPE": 104,
  "AcquisitionNumber": 1,
  "AcquisitionTime": "14:07:24.590000",
  "BandwidthPerPixelPhaseEncode": 17.17,
  "BaseResolution": 104,
  "BodyPartExamined": "BRAIN",
  "CoilString": "HC1-7;NC1_2",
  "ConsistencyInfo": "N4_VE11C_LATEST_20160120",
  "ConversionSoftware": "dcm2niix",
  "ConversionSoftwareVersion": "v1.0.20200427",
  "DerivedVendorReportedEchoSpacing": 0.000560011,
  "DeviceSerialNumber": "167006",
  "DwellTime": 2.1e-06,
  "EchoTime": 0.037,
  "EchoTrainLength": 104,
  "EffectiveEchoSpacing": 0.000560011,
  "FlipAngle": 52,
  "ImageComments": "Unaliased_MB4_PE3_LB",
  "ImageOrientationPatientDICOM": [0.997833, 0.0656682, 0.00408363, -0.0617293, 0.955849, -0.287303],
  "ImageType": [
    "ORIGINAL",
    "PRIMARY",
    "M",
    "MB",
    "ND",
    "MOSAIC"
],
  "ImagingFrequency": 123.259,
  "InPlanePhaseEncodingDirectionDICOM": "COL",
  "InstitutionAddress": "Chemin_Queen-Mary_4565_Montreal_District_CA_H3W_1W5",
  "InstitutionName": "IUGM",
  "InstitutionalDepartmentName": "Department",
  "MRAcquisitionType": "2D",
  "MagneticFieldStrength": 3,
  "Manufacturer": "Siemens",
  "ManufacturersModelName": "Prisma_fit",
  "Modality": "MR",
  "MultibandAccelerationFactor": 4,
  "PartialFourier": 1,
  "PatientPosition": "HFS",
  "PercentPhaseFOV": 100,
  "PercentSampling": 100,
  "PhaseEncodingDirection": "j",
  "PhaseEncodingSteps": 104,
  "PhaseResolution": 1,
  "PixelBandwidth": 2290,
  "ProcedureStepDescription": "video_friends",
  "ProtocolName": "func_task-friends-s03e02a",
  "PulseSequenceDetails": "%CustomerSeq%_cmrr_mbep2d_bold",
  "ReceiveCoilActiveElements": "HC1-7;NC1,2",
  "ReceiveCoilName": "HeadNeck_64",
  "ReconMatrixPE": 104,
  "RepetitionTime": 1.49,
  "SAR": 0.0374639,
  "ScanOptions": "FS",
  "ScanningSequence": "EP",
  "SequenceName": "epfid2d1_104",
  "SequenceVariant": "SK_SS",
  "SeriesDescription": "func_task-friends-s03e02a",
  "SeriesNumber": 13,
  "ShimSetting": [641, -7218, -8795, 703, 112, -61, 102, -38],
  "SliceThickness": 2,
  "SliceTiming": [0, 0.785, 0.1, 0.8825, 0.1975, 0.98, 0.295, 1.08, 0.3925, 1.1775, 0.49, 1.275, 0.59, 1.3725, 0.6875, 0, 0.785, 0.1, 0.8825, 0.1975, 0.98, 0.295, 1.08, 0.3925, 1.1775, 0.49, 1.275, 0.59, 1.3725, 0.6875, 0, 0.785, 0.1, 0.8825, 0.1975, 0.98, 0.295, 1.08, 0.3925, 1.1775, 0.49, 1.275, 0.59, 1.3725, 0.6875, 0, 0.785, 0.1, 0.8825, 0.1975, 0.98, 0.295, 1.08, 0.3925, 1.1775, 0.49, 1.275, 0.59, 1.3725, 0.6875],
  "SoftwareVersions": "syngo_MR_E11",
  "SpacingBetweenSlices": 2,
  "StationName": "MRC35049",
  "TaskName": "s03e02a",
  "TotalReadoutTime": 0.0576811,
  "TxRefAmp": 246.096,
  "WipMemBlock": "a92e5f31-a337-4615-9bbc-c45cebaf6743||Sequence: R016 ve11c/master r/e634e98; Dec 19 2017 11:00:25 by eja",
  "dcmmeta_affine": [
    [-1.995666265487671, -0.12345866113901138, 0.0455399714410305, 107.9638671875],
    [-0.13133631646633148, 1.9116971492767334, -0.5728567242622375, -66.84082794189453],
    [0.008167251013219357, 0.5746060013771057, 1.9156620502471924, -48.983673095703125],
    [0.0, 0.0, 0.0, 1.0]
],
  "dcmmeta_reorient_transform": [
    [0.0, -1.0, 0.0, 103.0],
    [1.0, 0.0, 0.0, 0.0],
    [0.0, 0.0, 1.0, 0.0],
    [0.0, 0.0, 0.0, 1.0]
],
  "dcmmeta_shape": [104, 104, 60, 475],
  "dcmmeta_slice_dim": 2,
  "dcmmeta_version": 0.6,
  "global": {
    "const": {
      "AcquisitionMatrix": [104, 0, 0, 104],
      "AngioFlag": "N",
      "BitsAllocated": 16,
      "BitsStored": 16,
      "BodyPartExamined": "BRAIN",
      "Columns": 832,
      "EchoNumbers": 1,
      "EchoTime": 37.0,
      "EchoTrainLength": 104,
      "FlipAngle": 52.0,
      "HighBit": 15,
      "ImageOrientationPatient": [0.99783316108759, 0.0656681554375, 0.00408362527589, -0.0617293318099, 0.95584856397627, -0.2873029974414],
      "ImagePositionPatient": [-776.73120941674, -873.7281510918, 216.38444545238],
      "ImageType": [
        "ORIGINAL",
        "PRIMARY",
        "M",
        "MB",
        "ND",
        "MOSAIC"
],
      "ImagedNucleus": "1H",
      "ImagingFrequency": 123.259044,
      "InPlanePhaseEncodingDirection": "COL",
      "MRAcquisitionType": "2D",
      "MagneticFieldStrength": 3.0,
      "Manufacturer": "SIEMENS",
      "ManufacturerModelName": "Prisma_fit",
      "Modality": "MR",
      "NumberOfAverages": 1.0,
      "NumberOfPhaseEncodingSteps": 104,
      "PercentPhaseFieldOfView": 100.0,
      "PercentSampling": 100.0,
      "PerformedProcedureStepStartTime": "130112.021000",
      "PhotometricInterpretation": "MONOCHROME2",
      "PixelBandwidth": 2290.0,
      "PixelRepresentation": 0,
      "PixelSpacing": [2.0, 2.0],
      "ProtocolName": "func_task-friends-s03e02a",
      "RepetitionTime": 1490.0,
      "Rows": 832,
      "SAR": 0.03746388385082,
      "SamplesPerPixel": 1,
      "ScanOptions": "FS",
      "ScanningSequence": "EP",
      "SequenceName": "epfid2d1_104",
      "SequenceVariant": [
        "SK",
        "SS"
],
      "SeriesDescription": "func_task-friends-s03e02a",
      "SeriesNumber": 13,
      "SeriesTime": "140849.922000",
      "SliceLocation": -25.314639920923,
      "SliceThickness": 2.0,
      "SmallestImagePixelValue": 0,
      "SoftwareVersions": "syngo MR E11",
      "SpacingBetweenSlices": 1.9999999697524,
      "SpecificCharacterSet": "ISO_IR 100",
      "StudyID": "1",
      "StudyTime": "130111.904000",
      "TransmitCoilName": "Body",
      "VariableFlipAngleFlag": "N",
      "WindowCenterWidthExplanation": "Algo1",
      "dBdt": 0.0},
    "slices": {}
  },
  "time": {
    "samples": {
      "AcquisitionNumber": [1, 2, 3, 4, 5, 6, 7, 8, 9, 10, 11, 12, 13, 14, 15, 16, 17, 18, 19, 20, 21, 22, 23, 24, 25, 26, 27, 28, 29, 30, 31, 32, 33, 34, 35, 36, 37, 38, 39, 40, 41, 42, 43, 44, 45, 46, 47, 48, 49, 50, 51, 52, 53, 54, 55, 56, 57, 58, 59, 60, 61, 62, 63, 64, 65, 66, 67, 68, 69, 70, 71, 72, 73, 74, 75, 76, 77, 78, 79, 80, 81, 82, 83, 84, 85, 86, 87, 88, 89, 90, 91, 92, 93, 94, 95, 96, 97, 98, 99, 100, 101, 102, 103, 104, 105, 106, 107, 108, 109, 110, 111, 112, 113, 114, 115, 116, 117, 118, 119, 120, 121, 122, 123, 124, 125, 126, 127, 128, 129, 130, 131, 132, 133, 134, 135, 136, 137, 138, 139, 140, 141, 142, 143, 144, 145, 146, 147, 148, 149, 150, 151, 152, 153, 154, 155, 156, 157, 158, 159, 160, 161, 162, 163, 164, 165, 166, 167, 168, 169, 170, 171, 172, 173, 174, 175, 176, 177, 178, 179, 180, 181, 182, 183, 184, 185, 186, 187, 188, 189, 190, 191, 192, 193, 194, 195, 196, 197, 198, 199, 200, 201, 202, 203, 204, 205, 206, 207, 208, 209, 210, 211, 212, 213, 214, 215, 216, 217, 218, 219, 220, 221, 222, 223, 224, 225, 226, 227, 228, 229, 230, 231, 232, 233, 234, 235, 236, 237, 238, 239, 240, 241, 242, 243, 244, 245, 246, 247, 248, 249, 250, 251, 252, 253, 254, 255, 256, 257, 258, 259, 260, 261, 262, 263, 264, 265, 266, 267, 268, 269, 270, 271, 272, 273, 274, 275, 276, 277, 278, 279, 280, 281, 282, 283, 284, 285, 286, 287, 288, 289, 290, 291, 292, 293, 294, 295, 296, 297, 298, 299, 300, 301, 302, 303, 304, 305, 306, 307, 308, 309, 310, 311, 312, 313, 314, 315, 316, 317, 318, 319, 320, 321, 322, 323, 324, 325, 326, 327, 328, 329, 330, 331, 332, 333, 334, 335, 336, 337, 338, 339, 340, 341, 342, 343, 344, 345, 346, 347, 348, 349, 350, 351, 352, 353, 354, 355, 356, 357, 358, 359, 360, 361, 362, 363, 364, 365, 366, 367, 368, 369, 370, 371, 372, 373, 374, 375, 376, 377, 378, 379, 380, 381, 382, 383, 384, 385, 386, 387, 388, 389, 390, 391, 392, 393, 394, 395, 396, 397, 398, 399, 400, 401, 402, 403, 404, 405, 406, 407, 408, 409, 410, 411, 412, 413, 414, 415, 416, 417, 418, 419, 420, 421, 422, 423, 424, 425, 426, 427, 428, 429, 430, 431, 432, 433, 434, 435, 436, 437, 438, 439, 440, 441, 442, 443, 444, 445, 446, 447, 448, 449, 450, 451, 452, 453, 454, 455, 456, 457, 458, 459, 460, 461, 462, 463, 464, 465, 466, 467, 468, 469, 470, 471, 472, 473, 474, 475],
      "AcquisitionTime": ["140724.590000", "140726.080000", "140727.570000", "140729.060000", "140730.550000", "140732.040000", "140733.530000", "140735.020000", "140736.510000", "140738.000000", "140739.490000", "140740.980000", "140742.470000", "140743.960000", "140745.450000", "140746.940000", "140748.430000", "140749.920000", "140751.410000", "140752.900000", "140754.390000", "140755.880000", "140757.370000", "140758.860000", "140800.350000", "140801.840000", "140803.330000", "140804.820000", "140806.310000", "140807.800000", "140809.290000", "140810.780000", "140812.270000", "140813.760000", "140815.250000", "140816.740000", "140818.230000", "140819.720000", "140821.210000", "140822.700000", "140824.190000", "140825.680000", "140827.170000", "140828.660000", "140830.150000", "140831.640000", "140833.130000", "140834.620000", "140836.110000", "140837.600000", "140839.090000", "140840.580000", "140842.070000", "140843.560000", "140845.050000", "140846.540000", "140848.030000", "140849.520000", "140851.010000", "140852.500000", "140853.990000", "140855.480000", "140856.970000", "140858.460000", "140859.950000", "140901.440000", "140902.930000", "140904.420000", "140905.910000", "140907.400000", "140908.890000", "140910.380000", "140911.870000", "140913.360000", "140914.850000", "140916.340000", "140917.830000", "140919.320000", "140920.810000", "140922.300000", "140923.790000", "140925.280000", "140926.770000", "140928.260000", "140929.750000", "140931.240000", "140932.730000", "140934.220000", "140935.710000", "140937.200000", "140938.690000", "140940.180000", "140941.670000", "140943.160000", "140944.650000", "140946.140000", "140947.630000", "140949.120000", "140950.610000", "140952.100000", "140953.590000", "140955.080000", "140956.570000", "140958.060000", "140959.550000", "141001.040000", "141002.530000", "141004.020000", "141005.510000", "141007.000000", "141008.490000", "141009.980000", "141011.470000", "141012.960000", "141014.450000", "141015.940000", "141017.430000", "141018.920000", "141020.410000", "141021.900000", "141023.390000", "141024.880000", "141026.370000", "141027.860000", "141029.350000", "141030.840000", "141032.330000", "141033.820000", "141035.310000", "141036.800000", "141038.290000", "141039.780000", "141041.270000", "141042.760000", "141044.250000", "141045.740000", "141047.230000", "141048.720000", "141050.210000", "141051.700000", "141053.190000", "141054.680000", "141056.170000", "141057.660000", "141059.150000", "141100.640000", "141102.130000", "141103.620000", "141105.110000", "141106.600000", "141108.090000", "141109.580000", "141111.070000", "141112.560000", "141114.050000", "141115.540000", "141117.030000", "141118.520000", "141120.010000", "141121.500000", "141122.990000", "141124.480000", "141125.970000", "141127.460000", "141128.950000", "141130.440000", "141131.930000", "141133.420000", "141134.910000", "141136.400000", "141137.890000", "141139.380000", "141140.870000", "141142.360000", "141143.850000", "141145.340000", "141146.830000", "141148.320000", "141149.810000", "141151.300000", "141152.790000", "141154.280000", "141155.770000", "141157.260000", "141158.750000", "141200.240000", "141201.730000", "141203.220000", "141204.710000", "141206.200000", "141207.690000", "141209.180000", "141210.670000", "141212.160000", "141213.650000", "141215.140000", "141216.630000", "141218.120000", "141219.610000", "141221.100000", "141222.590000", "141224.080000", "141225.570000", "141227.060000", "141228.550000", "141230.040000", "141231.530000", "141233.020000", "141234.510000", "141236.000000", "141237.490000", "141238.980000", "141240.470000", "141241.960000", "141243.450000", "141244.940000", "141246.430000", "141247.920000", "141249.410000", "141250.900000", "141252.390000", "141253.880000", "141255.370000", "141256.860000", "141258.350000", "141259.840000", "141301.330000", "141302.820000", "141304.310000", "141305.800000", "141307.290000", "141308.780000", "141310.270000", "141311.760000", "141313.250000", "141314.740000", "141316.230000", "141317.720000", "141319.210000", "141320.700000", "141322.190000", "141323.680000", "141325.170000", "141326.660000", "141328.150000", "141329.640000", "141331.130000", "141332.620000", "141334.110000", "141335.600000", "141337.090000", "141338.580000", "141340.070000", "141341.560000", "141343.050000", "141344.540000", "141346.030000", "141347.520000", "141349.010000", "141350.500000", "141351.990000", "141353.480000", "141354.970000", "141356.460000", "141357.950000", "141359.440000", "141400.930000", "141402.420000", "141403.910000", "141405.400000", "141406.890000", "141408.380000", "141409.870000", "141411.360000", "141412.850000", "141414.340000", "141415.830000", "141417.320000", "141418.810000", "141420.300000", "141421.790000", "141423.280000", "141424.770000", "141426.260000", "141427.750000", "141429.240000", "141430.730000", "141432.220000", "141433.710000", "141435.200000", "141436.690000", "141438.180000", "141439.670000", "141441.160000", "141442.650000", "141444.140000", "141445.630000", "141447.120000", "141448.610000", "141450.100000", "141451.590000", "141453.080000", "141454.570000", "141456.060000", "141457.550000", "141459.040000", "141500.530000", "141502.020000", "141503.510000", "141505.000000", "141506.490000", "141507.980000", "141509.470000", "141510.960000", "141512.450000", "141513.940000", "141515.430000", "141516.920000", "141518.410000", "141519.900000", "141521.390000", "141522.880000", "141524.370000", "141525.860000", "141527.350000", "141528.840000", "141530.330000", "141531.820000", "141533.310000", "141534.800000", "141536.290000", "141537.780000", "141539.270000", "141540.760000", "141542.250000", "141543.740000", "141545.230000", "141546.720000", "141548.210000", "141549.700000", "141551.190000", "141552.680000", "141554.170000", "141555.660000", "141557.150000", "141558.640000", "141600.130000", "141601.620000", "141603.110000", "141604.600000", "141606.090000", "141607.580000", "141609.070000", "141610.560000", "141612.050000", "141613.540000", "141615.030000", "141616.520000", "141618.010000", "141619.500000", "141620.990000", "141622.480000", "141623.970000", "141625.460000", "141626.950000", "141628.440000", "141629.930000", "141631.420000", "141632.910000", "141634.400000", "141635.890000", "141637.380000", "141638.870000", "141640.360000", "141641.850000", "141643.340000", "141644.830000", "141646.320000", "141647.810000", "141649.300000", "141650.790000", "141652.280000", "141653.770000", "141655.260000", "141656.750000", "141658.240000", "141659.730000", "141701.220000", "141702.710000", "141704.200000", "141705.690000", "141707.180000", "141708.670000", "141710.160000", "141711.650000", "141713.140000", "141714.630000", "141716.120000", "141717.610000", "141719.100000", "141720.590000", "141722.080000", "141723.570000", "141725.060000", "141726.550000", "141728.040000", "141729.530000", "141731.020000", "141732.510000", "141734.000000", "141735.490000", "141736.980000", "141738.470000", "141739.960000", "141741.450000", "141742.940000", "141744.430000", "141745.920000", "141747.410000", "141748.900000", "141750.390000", "141751.880000", "141753.370000", "141754.860000", "141756.350000", "141757.840000", "141759.330000", "141800.820000", "141802.310000", "141803.800000", "141805.290000", "141806.780000", "141808.270000", "141809.760000", "141811.250000", "141812.740000", "141814.230000", "141815.720000", "141817.210000", "141818.700000", "141820.190000", "141821.680000", "141823.170000", "141824.660000", "141826.150000", "141827.640000", "141829.130000", "141830.620000", "141832.110000", "141833.600000", "141835.090000", "141836.580000", "141838.070000", "141839.560000", "141841.050000", "141842.540000", "141844.030000", "141845.520000", "141847.010000", "141848.500000", "141849.990000", "141851.480000", "141852.970000", "141854.460000", "141855.950000", "141857.440000", "141858.930000", "141900.420000", "141901.910000", "141903.400000", "141904.890000", "141906.380000", "141907.870000", "141909.360000", "141910.850000"],
      "ContentTime": ["140849.925000", "140849.928000", "140849.931000", "140849.934000", "140849.937000", "140849.940000", "140849.943000", "140849.946000", "140849.951000", "140849.954000", "140849.957000", "140849.960000", "140849.972000", "140849.975000", "140849.977000", "140849.980000", "140849.983000", "140849.986000", "140849.989000", "140849.992000", "140850.002000", "140850.005000", "140850.008000", "140850.011000", "140850.019000", "140850.021000", "140850.024000", "140850.027000", "140850.030000", "140850.033000", "140850.036000", "140909.893000", "140909.896000", "140909.899000", "140909.902000", "140909.905000", "140909.908000", "140909.911000", "140909.914000", "140909.917000", "140909.920000", "140909.923000", "140909.925000", "140909.929000", "140909.931000", "140909.934000", "140909.937000", "140909.940000", "140909.943000", "140909.946000", "140909.949000", "140929.893000", "140929.896000", "140929.899000", "140929.902000", "140929.905000", "140929.908000", "140929.918000", "140929.921000", "140929.924000", "140929.927000", "140929.930000", "140929.933000", "140929.936000", "140929.939000", "140929.942000", "140929.945000", "140929.949000", "140929.951000", "140929.954000", "140929.957000", "140949.893000", "140949.896000", "140949.899000", "140949.902000", "140949.905000", "140949.908000", "140949.920000", "140949.923000", "140949.926000", "140949.929000", "140949.931000", "140949.934000", "140949.937000", "140949.940000", "140949.943000", "140949.946000", "140949.949000", "140949.952000", "140949.955000", "140949.958000", "141029.894000", "141029.897000", "141029.900000", "141029.903000", "141029.906000", "141029.909000", "141029.912000", "141029.915000", "141029.918000", "141029.921000", "141029.924000", "141029.927000", "141029.930000", "141029.933000", "141029.936000", "141029.939000", "141029.941000", "141029.944000", "141029.947000", "141029.950000", "141029.953000", "141029.956000", "141029.959000", "141029.962000", "141029.965000", "141029.968000", "141029.971000", "141029.974000", "141029.977000", "141029.980000", "141029.983000", "141029.986000", "141029.989000", "141109.893000", "141109.896000", "141109.899000", "141109.907000", "141109.910000", "141109.913000", "141109.916000", "141109.919000", "141109.922000", "141109.925000", "141109.928000", "141109.931000", "141109.934000", "141109.937000", "141109.940000", "141109.943000", "141109.946000", "141109.948000", "141109.951000", "141109.955000", "141109.958000", "141109.961000", "141109.963000", "141109.967000", "141109.969000", "141109.972000", "141109.975000", "141149.893000", "141149.896000", "141149.899000", "141149.902000", "141149.905000", "141149.908000", "141149.911000", "141149.914000", "141149.917000", "141149.920000", "141149.923000", "141149.926000", "141149.929000", "141149.932000", "141149.935000", "141149.938000", "141149.942000", "141149.945000", "141149.948000", "141149.951000", "141149.954000", "141149.957000", "141149.960000", "141149.963000", "141149.966000", "141149.969000", "141229.893000", "141229.896000", "141229.899000", "141229.902000", "141229.905000", "141229.908000", "141229.911000", "141229.914000", "141229.917000", "141229.920000", "141229.923000", "141229.926000", "141229.929000", "141229.932000", "141229.935000", "141229.938000", "141229.941000", "141229.943000", "141229.963000", "141229.965000", "141229.969000", "141229.971000", "141229.974000", "141229.977000", "141229.980000", "141229.983000", "141229.986000", "141309.893000", "141309.896000", "141309.899000", "141309.902000", "141309.905000", "141309.908000", "141309.911000", "141309.914000", "141309.917000", "141309.920000", "141309.923000", "141309.926000", "141309.929000", "141309.932000", "141309.935000", "141309.938000", "141309.941000", "141309.944000", "141309.947000", "141309.950000", "141309.953000", "141309.955000", "141309.958000", "141309.961000", "141309.964000", "141309.968000", "141309.971000", "141349.893000", "141349.896000", "141349.914000", "141349.917000", "141349.920000", "141349.922000", "141349.926000", "141349.929000", "141349.931000", "141349.934000", "141349.937000", "141349.940000", "141349.943000", "141349.946000", "141349.949000", "141349.952000", "141349.955000", "141349.958000", "141349.961000", "141349.964000", "141349.967000", "141349.970000", "141349.973000", "141349.976000", "141349.979000", "141349.982000", "141349.985000", "141429.893000", "141429.896000", "141429.899000", "141429.902000", "141429.905000", "141429.908000", "141429.911000", "141429.914000", "141429.917000", "141429.920000", "141429.923000", "141429.926000", "141429.929000", "141429.932000", "141429.935000", "141429.938000", "141429.941000", "141429.944000", "141429.947000", "141429.950000", "141429.953000", "141429.956000", "141429.959000", "141429.962000", "141429.965000", "141429.968000", "141429.971000", "141509.894000", "141509.897000", "141509.900000", "141509.903000", "141509.906000", "141509.909000", "141509.912000", "141509.915000", "141509.918000", "141509.921000", "141509.924000", "141509.927000", "141509.930000", "141509.933000", "141509.936000", "141509.939000", "141509.942000", "141509.945000", "141509.948000", "141509.951000", "141509.954000", "141509.957000", "141509.960000", "141509.963000", "141509.966000", "141509.969000", "141509.971000", "141549.893000", "141549.903000", "141549.906000", "141549.918000", "141549.920000", "141549.924000", "141549.926000", "141549.929000", "141549.932000", "141549.936000", "141549.938000", "141549.941000", "141549.944000", "141549.948000", "141549.951000", "141549.956000", "141549.960000", "141549.963000", "141549.967000", "141549.970000", "141549.973000", "141549.976000", "141549.979000", "141549.982000", "141549.985000", "141549.988000", "141629.893000", "141629.897000", "141629.900000", "141629.903000", "141629.906000", "141629.909000", "141629.912000", "141629.915000", "141629.918000", "141629.921000", "141629.924000", "141629.927000", "141629.929000", "141629.933000", "141629.936000", "141629.938000", "141629.941000", "141629.945000", "141629.948000", "141629.950000", "141629.953000", "141629.956000", "141629.959000", "141629.962000", "141629.965000", "141629.968000", "141629.971000", "141709.893000", "141709.896000", "141709.899000", "141709.902000", "141709.905000", "141709.908000", "141709.911000", "141709.914000", "141709.917000", "141709.920000", "141709.923000", "141709.926000", "141709.929000", "141709.945000", "141709.948000", "141709.951000", "141709.955000", "141709.957000", "141709.960000", "141709.963000", "141709.966000", "141709.969000", "141709.972000", "141709.975000", "141709.978000", "141709.981000", "141709.984000", "141749.893000", "141749.896000", "141749.899000", "141749.902000", "141749.905000", "141749.908000", "141749.911000", "141749.924000", "141749.927000", "141749.930000", "141749.933000", "141749.936000", "141749.939000", "141749.942000", "141749.945000", "141749.948000", "141749.951000", "141749.953000", "141749.956000", "141749.959000", "141749.962000", "141749.965000", "141749.968000", "141749.971000", "141749.974000", "141749.977000", "141749.980000", "141829.893000", "141829.896000", "141829.899000", "141829.902000", "141829.905000", "141829.908000", "141829.911000", "141829.914000", "141829.917000", "141829.920000", "141829.924000", "141829.927000", "141829.930000", "141829.933000", "141829.936000", "141829.939000", "141829.942000", "141829.945000", "141829.948000", "141829.951000", "141829.954000", "141829.957000", "141829.960000", "141829.963000", "141829.966000", "141829.969000", "141829.972000", "141909.893000", "141909.896000", "141909.899000", "141909.902000", "141909.905000", "141909.908000", "141909.911000", "141909.914000", "141909.917000", "141909.920000", "141909.923000", "141909.926000", "141909.929000", "141909.932000", "141909.935000", "141909.938000", "141909.941000", "141909.944000", "141909.947000", "141909.950000", "141909.953000", "141909.956000", "141909.959000", "141909.962000", "141909.965000", "141909.968000", "141909.971000", "141912.649000", "141912.652000"],
