{
  "AcquisitionMatrixPE": 104,
  "AcquisitionNumber": 1,
  "AcquisitionTime": "14:38:53.925000",
  "BandwidthPerPixelPhaseEncode": 17.17,
  "BaseResolution": 104,
  "BodyPartExamined": "BRAIN",
  "CoilString": "HC1-7;NC1_2",
  "ConsistencyInfo": "N4_VE11C_LATEST_20160120",
  "ConversionSoftware": "dcm2niix",
  "ConversionSoftwareVersion": "v1.0.20200427",
  "DerivedVendorReportedEchoSpacing": 0.000560011,
  "DeviceSerialNumber": "167006",
  "DwellTime": 2.1e-06,
  "EchoTime": 0.037,
  "EchoTrainLength": 104,
  "EffectiveEchoSpacing": 0.000560011,
  "FlipAngle": 52,
  "ImageComments": "Unaliased_MB4_PE3_LB",
  "ImageOrientationPatientDICOM": [0.998276, 0.0522163, 0.0267982, -0.0432365, 0.963042, -0.265858],
  "ImageType": [
    "ORIGINAL",
    "PRIMARY",
    "M",
    "MB",
    "ND",
    "MOSAIC"
],
  "ImagingFrequency": 123.259,
  "InPlanePhaseEncodingDirectionDICOM": "COL",
  "InstitutionAddress": "Chemin_Queen-Mary_4565_Montreal_District_CA_H3W_1W5",
  "InstitutionName": "IUGM",
  "InstitutionalDepartmentName": "Department",
  "MRAcquisitionType": "2D",
  "MagneticFieldStrength": 3,
  "Manufacturer": "Siemens",
  "ManufacturersModelName": "Prisma_fit",
  "Modality": "MR",
  "MultibandAccelerationFactor": 4,
  "PartialFourier": 1,
  "PatientPosition": "HFS",
  "PercentPhaseFOV": 100,
  "PercentSampling": 100,
  "PhaseEncodingDirection": "j",
  "PhaseEncodingSteps": 104,
  "PhaseResolution": 1,
  "PixelBandwidth": 2290,
  "ProcedureStepDescription": "video_friends",
  "ProtocolName": "func_task-friends-s03e03a",
  "PulseSequenceDetails": "%CustomerSeq%_cmrr_mbep2d_bold",
  "ReceiveCoilActiveElements": "HC1-7;NC1,2",
  "ReceiveCoilName": "HeadNeck_64",
  "ReconMatrixPE": 104,
  "RepetitionTime": 1.49,
  "SAR": 0.0389413,
  "ScanOptions": "FS",
  "ScanningSequence": "EP",
  "SequenceName": "epfid2d1_104",
  "SequenceVariant": "SK_SS",
  "SeriesDescription": "func_task-friends-s03e03a",
  "SeriesNumber": 24,
  "ShimSetting": [638, -7226, -8807, 658, 102, -75, 88, -26],
  "SliceThickness": 2,
  "SliceTiming": [0, 0.785, 0.0975, 0.8825, 0.195, 0.98, 0.295, 1.0775, 0.3925, 1.175, 0.49, 1.275, 0.5875, 1.3725, 0.685, 0, 0.785, 0.0975, 0.8825, 0.195, 0.98, 0.295, 1.0775, 0.3925, 1.175, 0.49, 1.275, 0.5875, 1.3725, 0.685, 0, 0.785, 0.0975, 0.8825, 0.195, 0.98, 0.295, 1.0775, 0.3925, 1.175, 0.49, 1.275, 0.5875, 1.3725, 0.685, 0, 0.785, 0.0975, 0.8825, 0.195, 0.98, 0.295, 1.0775, 0.3925, 1.175, 0.49, 1.275, 0.5875, 1.3725, 0.685],
  "SoftwareVersions": "syngo_MR_E11",
  "SpacingBetweenSlices": 2,
  "StationName": "MRC35049",
  "TaskName": "s03e03a",
  "TotalReadoutTime": 0.0576811,
  "TxRefAmp": 249.334,
  "WipMemBlock": "dbe4bc50-36c7-476d-89b2-b5e7252e83c0||Sequence: R016 ve11c/master r/e634e98; Dec 19 2017 11:00:25 by eja",
  "dcmmeta_affine": [
    [-1.9965523481369019, -0.0864730253815651, 0.07937993854284286, 105.57614135742188],
    [-0.10443264991044998, 1.926084041595459, -0.5284828543663025, -69.41484069824219],
    [0.053596463054418564, 0.5317167043685913, 1.9272791147232056, -46.98955154418945],
    [0.0, 0.0, 0.0, 1.0]
],
  "dcmmeta_reorient_transform": [
    [0.0, -1.0, 0.0, 103.0],
    [1.0, 0.0, 0.0, 0.0],
    [0.0, 0.0, 1.0, 0.0],
    [0.0, 0.0, 0.0, 1.0]
],
  "dcmmeta_shape": [104, 104, 60, 454],
  "dcmmeta_slice_dim": 2,
  "dcmmeta_version": 0.6,
  "global": {
    "const": {
      "AcquisitionMatrix": [104, 0, 0, 104],
      "AngioFlag": "N",
      "BitsAllocated": 16,
      "BitsStored": 16,
      "BodyPartExamined": "BRAIN",
      "Columns": 832,
      "EchoNumbers": 1,
      "EchoTime": 37.0,
      "EchoTrainLength": 104,
      "FlipAngle": 52.0,
      "HighBit": 15,
      "ImageOrientationPatient": [0.99827616926512, 0.05221632570304, 0.02679823142364, -0.0432365142758, 0.96304202079451, -0.2658583645803],
      "ImagePositionPatient": [-791.9382874267, -868.07989301643, 181.81304886799],
      "ImageType": [
        "ORIGINAL",
        "PRIMARY",
        "M",
        "MB",
        "ND",
        "MOSAIC"
],
      "ImagedNucleus": "1H",
      "ImagingFrequency": 123.259051,
      "InPlanePhaseEncodingDirection": "COL",
      "MRAcquisitionType": "2D",
      "MagneticFieldStrength": 3.0,
      "Manufacturer": "SIEMENS",
      "ManufacturerModelName": "Prisma_fit",
      "Modality": "MR",
      "NumberOfAverages": 1.0,
      "NumberOfPhaseEncodingSteps": 104,
      "PercentPhaseFieldOfView": 100.0,
      "PercentSampling": 100.0,
      "PerformedProcedureStepStartTime": "130112.021000",
      "PhotometricInterpretation": "MONOCHROME2",
      "PixelBandwidth": 2290.0,
      "PixelRepresentation": 0,
      "PixelSpacing": [2.0, 2.0],
      "ProtocolName": "func_task-friends-s03e03a",
      "RepetitionTime": 1490.0,
      "Rows": 832,
      "SAR": 0.03894127361995,
      "SamplesPerPixel": 1,
      "ScanOptions": "FS",
      "ScanningSequence": "EP",
      "SequenceName": "epfid2d1_104",
      "SequenceVariant": [
        "SK",
        "SS"
],
      "SeriesDescription": "func_task-friends-s03e03a",
      "SeriesNumber": 24,
      "SeriesTime": "143955.035000",
      "SliceLocation": -22.748401261869,
      "SliceThickness": 2.0,
      "SmallestImagePixelValue": 0,
      "SoftwareVersions": "syngo MR E11",
      "SpacingBetweenSlices": 2.0000000591518,
      "SpecificCharacterSet": "ISO_IR 100",
      "StudyID": "1",
      "StudyTime": "130111.904000",
      "TransmitCoilName": "Body",
      "VariableFlipAngleFlag": "N",
      "WindowCenterWidthExplanation": "Algo1",
      "dBdt": 0.0},
    "slices": {}
  },
  "time": {
    "samples": {
      "AcquisitionNumber": [1, 2, 3, 4, 5, 6, 7, 8, 9, 10, 11, 12, 13, 14, 15, 16, 17, 18, 19, 20, 21, 22, 23, 24, 25, 26, 27, 28, 29, 30, 31, 32, 33, 34, 35, 36, 37, 38, 39, 40, 41, 42, 43, 44, 45, 46, 47, 48, 49, 50, 51, 52, 53, 54, 55, 56, 57, 58, 59, 60, 61, 62, 63, 64, 65, 66, 67, 68, 69, 70, 71, 72, 73, 74, 75, 76, 77, 78, 79, 80, 81, 82, 83, 84, 85, 86, 87, 88, 89, 90, 91, 92, 93, 94, 95, 96, 97, 98, 99, 100, 101, 102, 103, 104, 105, 106, 107, 108, 109, 110, 111, 112, 113, 114, 115, 116, 117, 118, 119, 120, 121, 122, 123, 124, 125, 126, 127, 128, 129, 130, 131, 132, 133, 134, 135, 136, 137, 138, 139, 140, 141, 142, 143, 144, 145, 146, 147, 148, 149, 150, 151, 152, 153, 154, 155, 156, 157, 158, 159, 160, 161, 162, 163, 164, 165, 166, 167, 168, 169, 170, 171, 172, 173, 174, 175, 176, 177, 178, 179, 180, 181, 182, 183, 184, 185, 186, 187, 188, 189, 190, 191, 192, 193, 194, 195, 196, 197, 198, 199, 200, 201, 202, 203, 204, 205, 206, 207, 208, 209, 210, 211, 212, 213, 214, 215, 216, 217, 218, 219, 220, 221, 222, 223, 224, 225, 226, 227, 228, 229, 230, 231, 232, 233, 234, 235, 236, 237, 238, 239, 240, 241, 242, 243, 244, 245, 246, 247, 248, 249, 250, 251, 252, 253, 254, 255, 256, 257, 258, 259, 260, 261, 262, 263, 264, 265, 266, 267, 268, 269, 270, 271, 272, 273, 274, 275, 276, 277, 278, 279, 280, 281, 282, 283, 284, 285, 286, 287, 288, 289, 290, 291, 292, 293, 294, 295, 296, 297, 298, 299, 300, 301, 302, 303, 304, 305, 306, 307, 308, 309, 310, 311, 312, 313, 314, 315, 316, 317, 318, 319, 320, 321, 322, 323, 324, 325, 326, 327, 328, 329, 330, 331, 332, 333, 334, 335, 336, 337, 338, 339, 340, 341, 342, 343, 344, 345, 346, 347, 348, 349, 350, 351, 352, 353, 354, 355, 356, 357, 358, 359, 360, 361, 362, 363, 364, 365, 366, 367, 368, 369, 370, 371, 372, 373, 374, 375, 376, 377, 378, 379, 380, 381, 382, 383, 384, 385, 386, 387, 388, 389, 390, 391, 392, 393, 394, 395, 396, 397, 398, 399, 400, 401, 402, 403, 404, 405, 406, 407, 408, 409, 410, 411, 412, 413, 414, 415, 416, 417, 418, 419, 420, 421, 422, 423, 424, 425, 426, 427, 428, 429, 430, 431, 432, 433, 434, 435, 436, 437, 438, 439, 440, 441, 442, 443, 444, 445, 446, 447, 448, 449, 450, 451, 452, 453, 454],
      "AcquisitionTime": ["143853.925000", "143855.415000", "143856.905000", "143858.395000", "143859.885000", "143901.375000", "143902.865000", "143904.355000", "143905.845000", "143907.335000", "143908.825000", "143910.315000", "143911.805000", "143913.295000", "143914.785000", "143916.275000", "143917.765000", "143919.255000", "143920.745000", "143922.235000", "143923.725000", "143925.215000", "143926.705000", "143928.195000", "143929.685000", "143931.175000", "143932.665000", "143934.155000", "143935.645000", "143937.135000", "143938.625000", "143940.115000", "143941.605000", "143943.095000", "143944.585000", "143946.075000", "143947.565000", "143949.055000", "143950.545000", "143952.035000", "143953.525000", "143955.015000", "143956.505000", "143957.995000", "143959.485000", "144000.975000", "144002.465000", "144003.955000", "144005.445000", "144006.935000", "144008.425000", "144009.915000", "144011.405000", "144012.895000", "144014.385000", "144015.875000", "144017.365000", "144018.855000", "144020.345000", "144021.835000", "144023.325000", "144024.815000", "144026.305000", "144027.795000", "144029.285000", "144030.775000", "144032.265000", "144033.755000", "144035.245000", "144036.735000", "144038.225000", "144039.715000", "144041.205000", "144042.695000", "144044.185000", "144045.675000", "144047.165000", "144048.655000", "144050.145000", "144051.635000", "144053.125000", "144054.615000", "144056.105000", "144057.595000", "144059.085000", "144100.575000", "144102.065000", "144103.555000", "144105.045000", "144106.535000", "144108.025000", "144109.515000", "144111.005000", "144112.495000", "144113.985000", "144115.475000", "144116.965000", "144118.455000", "144119.945000", "144121.435000", "144122.925000", "144124.415000", "144125.905000", "144127.395000", "144128.885000", "144130.375000", "144131.865000", "144133.355000", "144134.845000", "144136.335000", "144137.825000", "144139.315000", "144140.805000", "144142.295000", "144143.785000", "144145.275000", "144146.765000", "144148.255000", "144149.745000", "144151.235000", "144152.725000", "144154.215000", "144155.705000", "144157.195000", "144158.685000", "144200.175000", "144201.665000", "144203.155000", "144204.645000", "144206.135000", "144207.625000", "144209.115000", "144210.605000", "144212.095000", "144213.585000", "144215.075000", "144216.565000", "144218.055000", "144219.545000", "144221.035000", "144222.525000", "144224.015000", "144225.505000", "144226.995000", "144228.485000", "144229.975000", "144231.465000", "144232.955000", "144234.445000", "144235.935000", "144237.425000", "144238.915000", "144240.405000", "144241.895000", "144243.385000", "144244.875000", "144246.365000", "144247.855000", "144249.345000", "144250.835000", "144252.325000", "144253.815000", "144255.305000", "144256.795000", "144258.285000", "144259.775000", "144301.265000", "144302.755000", "144304.245000", "144305.735000", "144307.225000", "144308.715000", "144310.205000", "144311.695000", "144313.185000", "144314.675000", "144316.165000", "144317.655000", "144319.145000", "144320.635000", "144322.125000", "144323.615000", "144325.105000", "144326.595000", "144328.085000", "144329.575000", "144331.065000", "144332.555000", "144334.045000", "144335.535000", "144337.025000", "144338.515000", "144340.005000", "144341.495000", "144342.985000", "144344.475000", "144345.965000", "144347.455000", "144348.945000", "144350.435000", "144351.925000", "144353.415000", "144354.905000", "144356.395000", "144357.885000", "144359.375000", "144400.865000", "144402.355000", "144403.845000", "144405.335000", "144406.825000", "144408.315000", "144409.805000", "144411.295000", "144412.785000", "144414.275000", "144415.765000", "144417.255000", "144418.745000", "144420.235000", "144421.725000", "144423.215000", "144424.705000", "144426.195000", "144427.685000", "144429.175000", "144430.665000", "144432.155000", "144433.645000", "144435.135000", "144436.625000", "144438.115000", "144439.605000", "144441.095000", "144442.585000", "144444.075000", "144445.565000", "144447.055000", "144448.545000", "144450.035000", "144451.525000", "144453.015000", "144454.505000", "144455.995000", "144457.485000", "144458.975000", "144500.465000", "144501.955000", "144503.445000", "144504.935000", "144506.425000", "144507.915000", "144509.405000", "144510.895000", "144512.385000", "144513.875000", "144515.365000", "144516.855000", "144518.345000", "144519.835000", "144521.325000", "144522.815000", "144524.305000", "144525.795000", "144527.285000", "144528.775000", "144530.265000", "144531.755000", "144533.245000", "144534.735000", "144536.225000", "144537.715000", "144539.205000", "144540.695000", "144542.185000", "144543.675000", "144545.165000", "144546.655000", "144548.145000", "144549.635000", "144551.125000", "144552.615000", "144554.105000", "144555.595000", "144557.085000", "144558.575000", "144600.065000", "144601.555000", "144603.045000", "144604.535000", "144606.025000", "144607.515000", "144609.005000", "144610.495000", "144611.985000", "144613.475000", "144614.965000", "144616.455000", "144617.945000", "144619.435000", "144620.925000", "144622.415000", "144623.905000", "144625.395000", "144626.885000", "144628.375000", "144629.865000", "144631.355000", "144632.845000", "144634.335000", "144635.825000", "144637.315000", "144638.805000", "144640.295000", "144641.785000", "144643.275000", "144644.765000", "144646.255000", "144647.745000", "144649.235000", "144650.725000", "144652.215000", "144653.705000", "144655.195000", "144656.685000", "144658.175000", "144659.665000", "144701.155000", "144702.645000", "144704.135000", "144705.625000", "144707.115000", "144708.605000", "144710.095000", "144711.585000", "144713.075000", "144714.565000", "144716.055000", "144717.545000", "144719.035000", "144720.525000", "144722.015000", "144723.505000", "144724.995000", "144726.485000", "144727.975000", "144729.465000", "144730.955000", "144732.445000", "144733.935000", "144735.425000", "144736.915000", "144738.405000", "144739.895000", "144741.385000", "144742.875000", "144744.365000", "144745.855000", "144747.345000", "144748.835000", "144750.325000", "144751.815000", "144753.305000", "144754.795000", "144756.285000", "144757.775000", "144759.265000", "144800.755000", "144802.245000", "144803.735000", "144805.225000", "144806.715000", "144808.205000", "144809.695000", "144811.185000", "144812.675000", "144814.165000", "144815.655000", "144817.145000", "144818.635000", "144820.125000", "144821.615000", "144823.105000", "144824.595000", "144826.085000", "144827.575000", "144829.065000", "144830.555000", "144832.045000", "144833.535000", "144835.025000", "144836.515000", "144838.005000", "144839.495000", "144840.985000", "144842.475000", "144843.965000", "144845.455000", "144846.945000", "144848.435000", "144849.925000", "144851.415000", "144852.905000", "144854.395000", "144855.885000", "144857.375000", "144858.865000", "144900.355000", "144901.845000", "144903.335000", "144904.825000", "144906.315000", "144907.805000", "144909.295000", "144910.785000", "144912.275000", "144913.765000", "144915.255000", "144916.745000", "144918.235000", "144919.725000", "144921.215000", "144922.705000", "144924.195000", "144925.685000", "144927.175000", "144928.665000", "144930.155000", "144931.645000", "144933.135000", "144934.625000", "144936.115000", "144937.605000", "144939.095000", "144940.585000", "144942.075000", "144943.565000", "144945.055000", "144946.545000", "144948.035000", "144949.525000", "144951.015000", "144952.505000", "144953.995000", "144955.485000", "144956.975000", "144958.465000", "144959.955000", "145001.445000", "145002.935000", "145004.425000", "145005.915000", "145007.405000", "145008.895000"],
      "ContentTime": ["143955.038000", "143955.041000", "143955.044000", "143955.050000", "143955.053000", "143955.056000", "143955.059000", "144015.006000", "144015.009000", "144015.012000", "144015.015000", "144015.018000", "144015.021000", "144015.024000", "144015.027000", "144015.030000", "144015.033000", "144015.035000", "144015.039000", "144015.042000", "144015.044000", "144015.047000", "144015.051000", "144015.053000", "144015.056000", "144015.059000", "144015.063000", "144035.006000", "144035.009000", "144035.012000", "144035.015000", "144035.018000", "144035.021000", "144035.024000", "144035.027000", "144035.030000", "144035.033000", "144035.036000", "144035.039000", "144035.042000", "144035.045000", "144035.048000", "144035.051000", "144035.054000", "144035.057000", "144035.062000", "144035.070000", "144055.005000", "144055.008000", "144055.011000", "144055.014000", "144055.025000", "144055.028000", "144055.031000", "144055.034000", "144055.036000", "144055.039000", "144055.042000", "144055.051000", "144055.054000", "144055.057000", "144055.060000", "144055.063000", "144055.066000", "144055.069000", "144055.072000", "144055.075000", "144115.005000", "144115.008000", "144115.011000", "144115.014000", "144115.017000", "144115.020000", "144115.023000", "144115.026000", "144115.029000", "144115.032000", "144115.035000", "144115.038000", "144115.041000", "144115.044000", "144115.047000", "144115.065000", "144115.068000", "144115.071000", "144115.074000", "144115.077000", "144135.005000", "144135.008000", "144135.011000", "144135.014000", "144135.017000", "144135.020000", "144135.023000", "144135.026000", "144135.029000", "144135.032000", "144135.035000", "144135.038000", "144135.041000", "144135.044000", "144135.047000", "144135.050000", "144135.053000", "144135.056000", "144135.059000", "144135.062000", "144215.005000", "144215.008000", "144215.011000", "144215.014000", "144215.017000", "144215.020000", "144215.023000", "144215.026000", "144215.029000", "144215.032000", "144215.035000", "144215.038000", "144215.041000", "144215.044000", "144215.047000", "144215.050000", "144215.053000", "144215.056000", "144215.059000", "144215.062000", "144215.065000", "144215.068000", "144215.071000", "144215.073000", "144215.076000", "144215.079000", "144215.082000", "144255.006000", "144255.009000", "144255.012000", "144255.015000", "144255.018000", "144255.021000", "144255.024000", "144255.027000", "144255.030000", "144255.033000", "144255.036000", "144255.039000", "144255.042000", "144255.045000", "144255.048000", "144255.051000", "144255.054000", "144255.057000", "144255.060000", "144255.063000", "144255.066000", "144255.069000", "144255.072000", "144255.075000", "144255.078000", "144255.081000", "144255.083000", "144335.005000", "144335.008000", "144335.011000", "144335.014000", "144335.017000", "144335.020000", "144335.023000", "144335.026000", "144335.029000", "144335.032000", "144335.035000", "144335.038000", "144335.041000", "144335.044000", "144335.047000", "144335.050000", "144335.053000", "144335.056000", "144335.059000", "144335.062000", "144335.065000", "144335.068000", "144335.071000", "144335.074000", "144335.077000", "144335.080000", "144335.083000", "144415.005000", "144415.008000", "144415.011000", "144415.014000", "144415.017000", "144415.020000", "144415.023000", "144415.026000", "144415.029000", "144415.032000", "144415.035000", "144415.038000", "144415.041000", "144415.044000", "144415.047000", "144415.050000", "144415.053000", "144415.056000", "144415.059000", "144415.062000", "144415.065000", "144415.068000", "144415.071000", "144415.074000", "144415.077000", "144415.080000", "144415.083000", "144455.006000", "144455.009000", "144455.013000", "144455.016000", "144455.019000", "144455.022000", "144455.025000", "144455.028000", "144455.031000", "144455.034000", "144455.037000", "144455.040000", "144455.043000", "144455.046000", "144455.049000", "144455.052000", "144455.055000", "144455.058000", "144455.061000", "144455.064000", "144455.067000", "144455.070000", "144455.073000", "144455.077000", "144455.079000", "144455.082000", "144535.005000", "144535.008000", "144535.011000", "144535.014000", "144535.017000", "144535.020000", "144535.039000", "144535.043000", "144535.045000", "144535.048000", "144535.051000", "144535.054000", "144535.057000", "144535.060000", "144535.063000", "144535.066000", "144535.069000", "144535.072000", "144535.075000", "144535.078000", "144535.081000", "144535.084000", "144535.087000", "144535.090000", "144535.093000", "144535.096000", "144535.099000", "144615.005000", "144615.008000", "144615.011000", "144615.014000", "144615.017000", "144615.020000", "144615.023000", "144615.026000", "144615.029000", "144615.032000", "144615.035000", "144615.038000", "144615.041000", "144615.044000", "144615.047000", "144615.050000", "144615.053000", "144615.056000", "144615.059000", "144615.062000", "144615.065000", "144615.068000", "144615.071000", "144615.074000", "144615.077000", "144615.080000", "144615.083000", "144655.005000", "144655.008000", "144655.011000", "144655.014000", "144655.017000", "144655.020000", "144655.023000", "144655.026000", "144655.029000", "144655.032000", "144655.036000", "144655.039000", "144655.042000", "144655.045000", "144655.048000", "144655.051000", "144655.054000", "144655.057000", "144655.060000", "144655.063000", "144655.066000", "144655.069000", "144655.072000", "144655.075000", "144655.078000", "144655.081000", "144655.084000", "144735.006000", "144735.009000", "144735.012000", "144735.015000", "144735.018000", "144735.021000", "144735.024000", "144735.027000", "144735.030000", "144735.033000", "144735.036000", "144735.039000", "144735.042000", "144735.045000", "144735.048000", "144735.051000", "144735.054000", "144735.057000", "144735.060000", "144735.063000", "144735.066000", "144735.069000", "144735.072000", "144735.075000", "144735.078000", "144735.081000", "144735.084000", "144815.005000", "144815.008000", "144815.011000", "144815.014000", "144815.017000", "144815.020000", "144815.023000", "144815.026000", "144815.029000", "144815.032000", "144815.035000", "144815.038000", "144815.041000", "144815.044000", "144815.047000", "144815.050000", "144815.053000", "144815.056000", "144815.059000", "144815.062000", "144815.065000", "144815.068000", "144815.071000", "144815.074000", "144815.077000", "144815.080000", "144815.083000", "144855.005000", "144855.008000", "144855.011000", "144855.014000", "144855.017000", "144855.021000", "144855.024000", "144855.027000", "144855.030000", "144855.033000", "144855.037000", "144855.040000", "144855.043000", "144855.046000", "144855.049000", "144855.052000", "144855.055000", "144855.058000", "144855.061000", "144855.064000", "144855.067000", "144855.070000", "144855.073000", "144855.076000", "144855.079000", "144855.082000", "144935.006000", "144935.009000", "144935.013000", "144935.016000", "144935.019000", "144935.022000", "144935.025000", "144935.028000", "144935.031000", "144935.034000", "144935.037000", "144935.040000", "144935.043000", "144935.046000", "144935.049000", "144935.052000", "144935.056000", "144935.059000", "144935.062000", "144935.064000", "144935.068000", "144935.071000", "144935.073000", "144935.076000", "144935.080000", "144935.083000", "144935.085000", "144955.006000", "144955.009000", "144955.022000", "144955.025000", "144955.028000", "144955.031000", "144955.034000", "144955.037000", "144955.040000", "144955.043000", "144955.046000", "144955.049000", "144955.051000", "144955.055000", "145011.069000", "145011.073000", "145011.076000", "145011.079000", "145011.082000", "145011.085000", "145011.088000", "145011.091000", "145011.094000", "145011.097000", "145011.100000"],
