{
  "AcquisitionMatrixPE": 104,
  "AcquisitionNumber": 1,
  "AcquisitionTime": "10:53:27.482500",
  "BandwidthPerPixelPhaseEncode": 17.17,
  "BaseResolution": 104,
  "BodyPartExamined": "BRAIN",
  "CoilString": "HC1-7;NC1_2",
  "ConsistencyInfo": "N4_VE11C_LATEST_20160120",
  "ConversionSoftware": "dcm2niix",
  "ConversionSoftwareVersion": "v1.0.20200427",
  "DerivedVendorReportedEchoSpacing": 0.000560011,
  "DeviceSerialNumber": "167006",
  "DwellTime": 2.1e-06,
  "EchoTime": 0.037,
  "EchoTrainLength": 104,
  "EffectiveEchoSpacing": 0.000560011,
  "FlipAngle": 52,
  "ImageComments": "Unaliased_MB4_PE3_LB",
  "ImageOrientationPatientDICOM": [0.99859, -0.052593, -0.00717413, 0.046743, 0.935345, -0.350635],
  "ImageType": [
    "ORIGINAL",
    "PRIMARY",
    "M",
    "MB",
    "ND",
    "MOSAIC"
],
  "ImagingFrequency": 123.259,
  "InPlanePhaseEncodingDirectionDICOM": "COL",
  "InstitutionAddress": "Chemin_Queen-Mary_4565_Montreal_District_CA_H3W_1W5",
  "InstitutionName": "IUGM",
  "InstitutionalDepartmentName": "Department",
  "MRAcquisitionType": "2D",
  "MagneticFieldStrength": 3,
  "Manufacturer": "Siemens",
  "ManufacturersModelName": "Prisma_fit",
  "Modality": "MR",
  "MultibandAccelerationFactor": 4,
  "PartialFourier": 1,
  "PatientPosition": "HFS",
  "PercentPhaseFOV": 100,
  "PercentSampling": 100,
  "PhaseEncodingDirection": "j",
  "PhaseEncodingSteps": 104,
  "PhaseResolution": 1,
  "PixelBandwidth": 2290,
  "ProcedureStepDescription": "video_friends",
  "ProtocolName": "func_task-friends-s03e06a",
  "PulseSequenceDetails": "%CustomerSeq%_cmrr_mbep2d_bold",
  "ReceiveCoilActiveElements": "HC1-7;NC1,2",
  "ReceiveCoilName": "HeadNeck_64",
  "ReconMatrixPE": 104,
  "RepetitionTime": 1.49,
  "SAR": 0.0296686,
  "ScanOptions": "FS",
  "ScanningSequence": "EP",
  "SequenceName": "epfid2d1_104",
  "SequenceVariant": "SK_SS",
  "SeriesDescription": "func_task-friends-s03e06a",
  "SeriesNumber": 13,
  "ShimSetting": [627, -7262, -8807, 635, 4, -205, -92, -21],
  "SliceThickness": 2,
  "SliceTiming": [0, 0.785, 0.0975, 0.8825, 0.195, 0.98, 0.295, 1.0775, 0.3925, 1.175, 0.49, 1.275, 0.5875, 1.3725, 0.685, 0, 0.785, 0.0975, 0.8825, 0.195, 0.98, 0.295, 1.0775, 0.3925, 1.175, 0.49, 1.275, 0.5875, 1.3725, 0.685, 0, 0.785, 0.0975, 0.8825, 0.195, 0.98, 0.295, 1.0775, 0.3925, 1.175, 0.49, 1.275, 0.5875, 1.3725, 0.685, 0, 0.785, 0.0975, 0.8825, 0.195, 0.98, 0.295, 1.0775, 0.3925, 1.175, 0.49, 1.275, 0.5875, 1.3725, 0.685],
  "SoftwareVersions": "syngo_MR_E11",
  "SpacingBetweenSlices": 2,
  "StationName": "MRC35049",
  "TaskName": "s03e06a",
  "TotalReadoutTime": 0.0576811,
  "TxRefAmp": 216.196,
  "WipMemBlock": "a5683987-35ec-4750-8825-85505d9af83f||Sequence: R016 ve11c/master r/e634e98; Dec 19 2017 11:00:25 by eja",
  "dcmmeta_affine": [
    [-1.997180461883545, 0.09348601847887039, -0.05030245706439018, 97.99584197998047],
    [0.10518603026866913, 1.8706899881362915, -0.6996103525161743, -77.54517364501953],
    [-0.014348260127007961, 0.7012696266174316, 1.872969627380371, -61.57303237915039],
    [0.0, 0.0, 0.0, 1.0]
],
  "dcmmeta_reorient_transform": [
    [0.0, -1.0, 0.0, 103.0],
    [1.0, 0.0, 0.0, 0.0],
    [0.0, 0.0, 1.0, 0.0],
    [0.0, 0.0, 0.0, 1.0]
],
  "dcmmeta_shape": [104, 104, 60, 470],
  "dcmmeta_slice_dim": 2,
  "dcmmeta_version": 0.6,
  "global": {
    "const": {
      "AcquisitionMatrix": [104, 0, 0, 104],
      "AngioFlag": "N",
      "BitsAllocated": 16,
      "BitsStored": 16,
      "BodyPartExamined": "BRAIN",
      "Columns": 832,
      "EchoNumbers": 1,
      "EchoTime": 37.0,
      "EchoTrainLength": 104,
      "FlipAngle": 52.0,
      "HighBit": 15,
      "ImageOrientationPatient": [0.99859025969171, -0.0525930138304, -0.0071741302661, 0.04674300938725, 0.93534502365808, -0.3506348211337],
      "ImagePositionPatient": [-868.6275235041, -757.77936692457, 271.14265570372],
      "ImageType": [
        "ORIGINAL",
        "PRIMARY",
        "M",
        "MB",
        "ND",
        "MOSAIC"
],
      "ImagedNucleus": "1H",
      "ImagingFrequency": 123.259304,
      "InPlanePhaseEncodingDirection": "COL",
      "MRAcquisitionType": "2D",
      "MagneticFieldStrength": 3.0,
      "Manufacturer": "SIEMENS",
      "ManufacturerModelName": "Prisma_fit",
      "Modality": "MR",
      "NumberOfAverages": 1.0,
      "NumberOfPhaseEncodingSteps": 104,
      "PercentPhaseFieldOfView": 100.0,
      "PercentSampling": 100.0,
      "PerformedProcedureStepStartTime": "102543.308000",
      "PhotometricInterpretation": "MONOCHROME2",
      "PixelBandwidth": 2290.0,
      "PixelRepresentation": 0,
      "PixelSpacing": [2.0, 2.0],
      "ProtocolName": "func_task-friends-s03e06a",
      "RepetitionTime": 1490.0,
      "Rows": 832,
      "SAR": 0.02966860348821,
      "SamplesPerPixel": 1,
      "ScanOptions": "FS",
      "ScanningSequence": "EP",
      "SequenceName": "epfid2d1_104",
      "SequenceVariant": [
        "SK",
        "SS"
],
      "SeriesDescription": "func_task-friends-s03e06a",
      "SeriesNumber": 13,
      "SeriesTime": "105501.130000",
      "SliceLocation": -33.001223254911,
      "SliceThickness": 2.0,
      "SmallestImagePixelValue": 0,
      "SoftwareVersions": "syngo MR E11",
      "SpacingBetweenSlices": 2.0000000007827,
      "SpecificCharacterSet": "ISO_IR 100",
      "StudyID": "1",
      "StudyTime": "102543.230000",
      "TransmitCoilName": "Body",
      "VariableFlipAngleFlag": "N",
      "WindowCenterWidthExplanation": "Algo1",
      "dBdt": 0.0},
    "slices": {}
  },
  "time": {
    "samples": {
      "AcquisitionNumber": [1, 2, 3, 4, 5, 6, 7, 8, 9, 10, 11, 12, 13, 14, 15, 16, 17, 18, 19, 20, 21, 22, 23, 24, 25, 26, 27, 28, 29, 30, 31, 32, 33, 34, 35, 36, 37, 38, 39, 40, 41, 42, 43, 44, 45, 46, 47, 48, 49, 50, 51, 52, 53, 54, 55, 56, 57, 58, 59, 60, 61, 62, 63, 64, 65, 66, 67, 68, 69, 70, 71, 72, 73, 74, 75, 76, 77, 78, 79, 80, 81, 82, 83, 84, 85, 86, 87, 88, 89, 90, 91, 92, 93, 94, 95, 96, 97, 98, 99, 100, 101, 102, 103, 104, 105, 106, 107, 108, 109, 110, 111, 112, 113, 114, 115, 116, 117, 118, 119, 120, 121, 122, 123, 124, 125, 126, 127, 128, 129, 130, 131, 132, 133, 134, 135, 136, 137, 138, 139, 140, 141, 142, 143, 144, 145, 146, 147, 148, 149, 150, 151, 152, 153, 154, 155, 156, 157, 158, 159, 160, 161, 162, 163, 164, 165, 166, 167, 168, 169, 170, 171, 172, 173, 174, 175, 176, 177, 178, 179, 180, 181, 182, 183, 184, 185, 186, 187, 188, 189, 190, 191, 192, 193, 194, 195, 196, 197, 198, 199, 200, 201, 202, 203, 204, 205, 206, 207, 208, 209, 210, 211, 212, 213, 214, 215, 216, 217, 218, 219, 220, 221, 222, 223, 224, 225, 226, 227, 228, 229, 230, 231, 232, 233, 234, 235, 236, 237, 238, 239, 240, 241, 242, 243, 244, 245, 246, 247, 248, 249, 250, 251, 252, 253, 254, 255, 256, 257, 258, 259, 260, 261, 262, 263, 264, 265, 266, 267, 268, 269, 270, 271, 272, 273, 274, 275, 276, 277, 278, 279, 280, 281, 282, 283, 284, 285, 286, 287, 288, 289, 290, 291, 292, 293, 294, 295, 296, 297, 298, 299, 300, 301, 302, 303, 304, 305, 306, 307, 308, 309, 310, 311, 312, 313, 314, 315, 316, 317, 318, 319, 320, 321, 322, 323, 324, 325, 326, 327, 328, 329, 330, 331, 332, 333, 334, 335, 336, 337, 338, 339, 340, 341, 342, 343, 344, 345, 346, 347, 348, 349, 350, 351, 352, 353, 354, 355, 356, 357, 358, 359, 360, 361, 362, 363, 364, 365, 366, 367, 368, 369, 370, 371, 372, 373, 374, 375, 376, 377, 378, 379, 380, 381, 382, 383, 384, 385, 386, 387, 388, 389, 390, 391, 392, 393, 394, 395, 396, 397, 398, 399, 400, 401, 402, 403, 404, 405, 406, 407, 408, 409, 410, 411, 412, 413, 414, 415, 416, 417, 418, 419, 420, 421, 422, 423, 424, 425, 426, 427, 428, 429, 430, 431, 432, 433, 434, 435, 436, 437, 438, 439, 440, 441, 442, 443, 444, 445, 446, 447, 448, 449, 450, 451, 452, 453, 454, 455, 456, 457, 458, 459, 460, 461, 462, 463, 464, 465, 466, 467, 468, 469, 470],
      "AcquisitionTime": ["105327.482500", "105328.972500", "105330.462500", "105331.952500", "105333.442500", "105334.932500", "105336.422500", "105337.912500", "105339.402500", "105340.892500", "105342.382500", "105343.872500", "105345.362500", "105346.852500", "105348.342500", "105349.832500", "105351.322500", "105352.812500", "105354.302500", "105355.792500", "105357.282500", "105358.772500", "105400.262500", "105401.752500", "105403.242500", "105404.732500", "105406.222500", "105407.712500", "105409.202500", "105410.692500", "105412.182500", "105413.672500", "105415.162500", "105416.652500", "105418.142500", "105419.632500", "105421.122500", "105422.612500", "105424.102500", "105425.592500", "105427.082500", "105428.572500", "105430.062500", "105431.552500", "105433.042500", "105434.532500", "105436.022500", "105437.512500", "105439.002500", "105440.492500", "105441.982500", "105443.472500", "105444.962500", "105446.452500", "105447.942500", "105449.432500", "105450.922500", "105452.412500", "105453.902500", "105455.392500", "105456.882500", "105458.372500", "105459.862500", "105501.352500", "105502.842500", "105504.332500", "105505.822500", "105507.312500", "105508.802500", "105510.292500", "105511.782500", "105513.272500", "105514.762500", "105516.252500", "105517.742500", "105519.232500", "105520.722500", "105522.212500", "105523.702500", "105525.192500", "105526.682500", "105528.172500", "105529.662500", "105531.152500", "105532.642500", "105534.132500", "105535.622500", "105537.112500", "105538.602500", "105540.092500", "105541.582500", "105543.072500", "105544.562500", "105546.052500", "105547.542500", "105549.032500", "105550.522500", "105552.012500", "105553.502500", "105554.992500", "105556.482500", "105557.972500", "105559.462500", "105600.952500", "105602.442500", "105603.932500", "105605.422500", "105606.912500", "105608.402500", "105609.892500", "105611.382500", "105612.872500", "105614.362500", "105615.852500", "105617.342500", "105618.832500", "105620.322500", "105621.812500", "105623.302500", "105624.792500", "105626.282500", "105627.772500", "105629.262500", "105630.752500", "105632.242500", "105633.732500", "105635.222500", "105636.712500", "105638.202500", "105639.692500", "105641.182500", "105642.672500", "105644.162500", "105645.652500", "105647.142500", "105648.632500", "105650.122500", "105651.612500", "105653.102500", "105654.592500", "105656.082500", "105657.572500", "105659.062500", "105700.552500", "105702.042500", "105703.532500", "105705.022500", "105706.512500", "105708.002500", "105709.492500", "105710.982500", "105712.472500", "105713.962500", "105715.452500", "105716.942500", "105718.432500", "105719.922500", "105721.412500", "105722.902500", "105724.392500", "105725.882500", "105727.372500", "105728.862500", "105730.352500", "105731.842500", "105733.332500", "105734.822500", "105736.312500", "105737.802500", "105739.292500", "105740.782500", "105742.272500", "105743.762500", "105745.252500", "105746.742500", "105748.232500", "105749.722500", "105751.212500", "105752.702500", "105754.192500", "105755.682500", "105757.172500", "105758.662500", "105800.152500", "105801.642500", "105803.132500", "105804.622500", "105806.112500", "105807.602500", "105809.092500", "105810.582500", "105812.072500", "105813.562500", "105815.052500", "105816.542500", "105818.032500", "105819.522500", "105821.012500", "105822.502500", "105823.992500", "105825.482500", "105826.972500", "105828.462500", "105829.952500", "105831.442500", "105832.932500", "105834.422500", "105835.912500", "105837.402500", "105838.892500", "105840.382500", "105841.872500", "105843.362500", "105844.852500", "105846.342500", "105847.832500", "105849.322500", "105850.812500", "105852.302500", "105853.792500", "105855.282500", "105856.772500", "105858.262500", "105859.752500", "105901.242500", "105902.732500", "105904.222500", "105905.712500", "105907.202500", "105908.692500", "105910.182500", "105911.672500", "105913.162500", "105914.652500", "105916.142500", "105917.632500", "105919.122500", "105920.612500", "105922.102500", "105923.592500", "105925.082500", "105926.572500", "105928.062500", "105929.552500", "105931.042500", "105932.532500", "105934.022500", "105935.512500", "105937.002500", "105938.492500", "105939.982500", "105941.472500", "105942.962500", "105944.452500", "105945.942500", "105947.432500", "105948.922500", "105950.412500", "105951.902500", "105953.392500", "105954.882500", "105956.372500", "105957.862500", "105959.352500", "110000.842500", "110002.332500", "110003.822500", "110005.312500", "110006.802500", "110008.292500", "110009.782500", "110011.272500", "110012.762500", "110014.252500", "110015.742500", "110017.232500", "110018.722500", "110020.212500", "110021.702500", "110023.192500", "110024.682500", "110026.172500", "110027.662500", "110029.152500", "110030.642500", "110032.132500", "110033.622500", "110035.112500", "110036.602500", "110038.092500", "110039.582500", "110041.072500", "110042.562500", "110044.052500", "110045.542500", "110047.032500", "110048.522500", "110050.012500", "110051.502500", "110052.992500", "110054.482500", "110055.972500", "110057.462500", "110058.952500", "110100.442500", "110101.932500", "110103.422500", "110104.912500", "110106.402500", "110107.892500", "110109.382500", "110110.872500", "110112.362500", "110113.852500", "110115.342500", "110116.832500", "110118.322500", "110119.812500", "110121.302500", "110122.792500", "110124.282500", "110125.772500", "110127.262500", "110128.752500", "110130.242500", "110131.732500", "110133.222500", "110134.712500", "110136.202500", "110137.692500", "110139.182500", "110140.672500", "110142.162500", "110143.652500", "110145.142500", "110146.632500", "110148.122500", "110149.612500", "110151.102500", "110152.592500", "110154.082500", "110155.572500", "110157.062500", "110158.552500", "110200.042500", "110201.532500", "110203.022500", "110204.512500", "110206.002500", "110207.492500", "110208.982500", "110210.472500", "110211.962500", "110213.452500", "110214.942500", "110216.432500", "110217.922500", "110219.412500", "110220.902500", "110222.392500", "110223.882500", "110225.372500", "110226.862500", "110228.352500", "110229.842500", "110231.332500", "110232.822500", "110234.312500", "110235.802500", "110237.292500", "110238.782500", "110240.272500", "110241.762500", "110243.252500", "110244.742500", "110246.232500", "110247.722500", "110249.212500", "110250.702500", "110252.192500", "110253.682500", "110255.172500", "110256.662500", "110258.152500", "110259.642500", "110301.132500", "110302.622500", "110304.112500", "110305.602500", "110307.092500", "110308.582500", "110310.072500", "110311.562500", "110313.052500", "110314.542500", "110316.032500", "110317.522500", "110319.012500", "110320.502500", "110321.992500", "110323.482500", "110324.972500", "110326.462500", "110327.952500", "110329.442500", "110330.932500", "110332.422500", "110333.912500", "110335.402500", "110336.892500", "110338.382500", "110339.872500", "110341.362500", "110342.852500", "110344.342500", "110345.832500", "110347.322500", "110348.812500", "110350.302500", "110351.792500", "110353.282500", "110354.772500", "110356.262500", "110357.752500", "110359.242500", "110400.732500", "110402.222500", "110403.712500", "110405.202500", "110406.692500", "110408.182500", "110409.672500", "110411.162500", "110412.652500", "110414.142500", "110415.632500", "110417.122500", "110418.612500", "110420.102500", "110421.592500", "110423.082500", "110424.572500", "110426.062500", "110427.552500", "110429.042500", "110430.532500", "110432.022500", "110433.512500", "110435.002500", "110436.492500", "110437.982500", "110439.472500", "110440.962500", "110442.452500", "110443.942500", "110445.432500", "110446.922500", "110448.412500", "110449.902500", "110451.392500", "110452.882500", "110454.372500", "110455.862500", "110457.352500", "110458.842500", "110500.332500", "110501.822500", "110503.312500", "110504.802500", "110506.292500"],
      "ContentTime": ["105501.132000", "105501.135000", "105501.138000", "105501.141000", "105501.144000", "105501.147000", "105501.150000", "105501.153000", "105501.156000", "105501.159000", "105501.161000", "105501.164000", "105501.167000", "105501.170000", "105501.173000", "105501.176000", "105501.179000", "105501.181000", "105501.184000", "105501.187000", "105501.190000", "105501.193000", "105501.195000", "105501.198000", "105501.201000", "105501.204000", "105501.207000", "105501.210000", "105501.213000", "105501.215000", "105501.218000", "105501.221000", "105501.224000", "105501.227000", "105501.229000", "105501.239000", "105501.241000", "105501.244000", "105501.247000", "105521.104000", "105521.107000", "105521.110000", "105521.113000", "105521.115000", "105521.118000", "105521.121000", "105521.124000", "105521.127000", "105521.129000", "105521.137000", "105521.140000", "105521.143000", "105521.145000", "105521.148000", "105521.151000", "105521.154000", "105521.157000", "105521.160000", "105521.163000", "105541.104000", "105541.107000", "105541.110000", "105541.113000", "105541.115000", "105541.118000", "105541.121000", "105541.124000", "105541.127000", "105541.130000", "105541.132000", "105541.135000", "105541.138000", "105541.141000", "105541.144000", "105541.147000", "105541.149000", "105541.152000", "105541.155000", "105541.158000", "105601.105000", "105601.108000", "105601.111000", "105601.114000", "105601.116000", "105601.119000", "105601.122000", "105601.125000", "105601.128000", "105601.130000", "105601.133000", "105601.136000", "105601.139000", "105601.161000", "105601.164000", "105601.167000", "105601.170000", "105601.172000", "105601.175000", "105601.178000", "105641.104000", "105641.107000", "105641.110000", "105641.113000", "105641.115000", "105641.118000", "105641.125000", "105641.128000", "105641.131000", "105641.134000", "105641.136000", "105641.139000", "105641.142000", "105641.145000", "105641.148000", "105641.151000", "105641.153000", "105641.156000", "105641.159000", "105641.162000", "105641.165000", "105641.168000", "105641.170000", "105641.173000", "105641.176000", "105641.179000", "105641.182000", "105641.185000", "105641.188000", "105641.190000", "105721.104000", "105721.107000", "105721.110000", "105721.113000", "105721.116000", "105721.118000", "105721.121000", "105721.124000", "105721.127000", "105721.130000", "105721.133000", "105721.136000", "105721.139000", "105721.142000", "105721.144000", "105721.147000", "105721.150000", "105721.153000", "105721.156000", "105721.159000", "105721.162000", "105721.164000", "105721.167000", "105721.175000", "105721.177000", "105721.180000", "105721.183000", "105801.104000", "105801.107000", "105801.110000", "105801.113000", "105801.116000", "105801.118000", "105801.121000", "105801.124000", "105801.127000", "105801.130000", "105801.133000", "105801.135000", "105801.139000", "105801.141000", "105801.144000", "105801.147000", "105801.150000", "105801.153000", "105801.156000", "105801.159000", "105801.162000", "105801.164000", "105801.167000", "105801.170000", "105801.173000", "105801.176000", "105821.105000", "105821.108000", "105821.111000", "105821.114000", "105821.116000", "105821.119000", "105821.123000", "105821.125000", "105821.128000", "105821.131000", "105821.134000", "105821.137000", "105821.140000", "105821.142000", "105901.104000", "105901.107000", "105901.115000", "105901.117000", "105901.120000", "105901.123000", "105901.126000", "105901.129000", "105901.132000", "105901.135000", "105901.138000", "105901.140000", "105901.143000", "105901.146000", "105901.149000", "105901.152000", "105901.155000", "105901.157000", "105901.160000", "105901.163000", "105901.166000", "105901.169000", "105901.172000", "105901.175000", "105901.182000", "105901.185000", "105901.188000", "105941.104000", "105941.113000", "105941.116000", "105941.119000", "105941.122000", "105941.125000", "105941.128000", "105941.130000", "105941.133000", "105941.136000", "105941.139000", "105941.142000", "105941.145000", "105941.148000", "105941.150000", "105941.153000", "105941.156000", "105941.174000", "105941.176000", "105941.179000", "105941.182000", "105941.188000", "105941.190000", "105941.193000", "105941.196000", "105941.199000", "105941.202000", "110021.104000", "110021.107000", "110021.110000", "110021.113000", "110021.116000", "110021.118000", "110021.121000", "110021.124000", "110021.127000", "110021.130000", "110021.137000", "110021.139000", "110021.142000", "110021.145000", "110021.149000", "110021.152000", "110021.155000", "110021.158000", "110021.161000", "110021.164000", "110021.166000", "110021.169000", "110021.172000", "110021.175000", "110021.178000", "110021.181000", "110101.105000", "110101.108000", "110101.111000", "110101.114000", "110101.117000", "110101.119000", "110101.122000", "110101.125000", "110101.128000", "110101.131000", "110101.134000", "110101.137000", "110101.139000", "110101.142000", "110101.145000", "110101.148000", "110101.151000", "110101.154000", "110101.157000", "110101.160000", "110101.162000", "110101.165000", "110101.168000", "110101.171000", "110101.174000", "110101.177000", "110101.180000", "110141.104000", "110141.107000", "110141.110000", "110141.113000", "110141.116000", "110141.119000", "110141.121000", "110141.124000", "110141.127000", "110141.130000", "110141.133000", "110141.136000", "110141.138000", "110141.142000", "110141.144000", "110141.147000", "110141.150000", "110141.153000", "110141.156000", "110141.159000", "110141.162000", "110141.164000", "110141.167000", "110141.170000", "110141.173000", "110141.176000", "110141.179000", "110221.104000", "110221.107000", "110221.110000", "110221.113000", "110221.116000", "110221.119000", "110221.121000", "110221.124000", "110221.127000", "110221.130000", "110221.133000", "110221.136000", "110221.139000", "110221.141000", "110221.144000", "110221.147000", "110221.150000", "110221.153000", "110221.156000", "110221.159000", "110221.162000", "110221.164000", "110221.167000", "110221.170000", "110221.173000", "110221.176000", "110221.179000", "110301.105000", "110301.108000", "110301.111000", "110301.114000", "110301.117000", "110301.119000", "110301.122000", "110301.125000", "110301.128000", "110301.131000", "110301.134000", "110301.137000", "110301.140000", "110301.142000", "110301.145000", "110301.148000", "110301.151000", "110301.154000", "110301.157000", "110301.160000", "110301.162000", "110301.165000", "110301.168000", "110301.171000", "110301.174000", "110301.177000", "110301.180000", "110341.104000", "110341.107000", "110341.110000", "110341.113000", "110341.116000", "110341.119000", "110341.122000", "110341.125000", "110341.128000", "110341.130000", "110341.133000", "110341.136000", "110341.139000", "110341.142000", "110341.145000", "110341.148000", "110341.150000", "110341.153000", "110341.156000", "110341.159000", "110341.162000", "110341.165000", "110341.168000", "110341.171000", "110341.173000", "110341.176000", "110341.179000", "110421.104000", "110421.107000", "110421.110000", "110421.113000", "110421.124000", "110421.127000", "110421.129000", "110421.132000", "110421.135000", "110421.138000", "110421.141000", "110421.144000", "110421.147000", "110421.150000", "110421.153000", "110421.157000", "110421.160000", "110421.162000", "110421.165000", "110421.168000", "110421.171000", "110421.174000", "110421.177000", "110421.180000", "110421.182000", "110421.185000", "110501.104000", "110501.107000", "110501.110000", "110501.113000", "110501.116000", "110501.119000", "110501.122000", "110501.125000", "110501.127000", "110501.130000", "110501.133000", "110501.136000", "110501.139000", "110501.142000", "110501.145000", "110501.148000", "110501.150000", "110501.153000", "110501.156000", "110501.159000", "110501.162000", "110501.165000", "110501.168000", "110501.171000", "110501.174000", "110501.176000", "110501.179000", "110508.903000", "110508.906000", "110508.909000", "110508.912000", "110508.922000", "110508.925000"],
