{
  "AcquisitionMatrixPE": 104,
  "AcquisitionNumber": 1,
  "AcquisitionTime": "10:40:57.810000",
  "BandwidthPerPixelPhaseEncode": 17.17,
  "BaseResolution": 104,
  "BodyPartExamined": "BRAIN",
  "CoilString": "HC1-7;NC1_2",
  "ConsistencyInfo": "N4_VE11C_LATEST_20160120",
  "ConversionSoftware": "dcm2niix",
  "ConversionSoftwareVersion": "v1.0.20200427",
  "DerivedVendorReportedEchoSpacing": 0.000560011,
  "DeviceSerialNumber": "167006",
  "DwellTime": 2.1e-06,
  "EchoTime": 0.037,
  "EchoTrainLength": 104,
  "EffectiveEchoSpacing": 0.000560011,
  "FlipAngle": 52,
  "ImageComments": "Unaliased_MB4_PE3_LB",
  "ImageOrientationPatientDICOM": [0.99859, -0.052593, -0.00717413, 0.046743, 0.935345, -0.350635],
  "ImageType": [
    "ORIGINAL",
    "PRIMARY",
    "M",
    "MB",
    "ND",
    "MOSAIC"
],
  "ImagingFrequency": 123.259,
  "InPlanePhaseEncodingDirectionDICOM": "COL",
  "InstitutionAddress": "Chemin_Queen-Mary_4565_Montreal_District_CA_H3W_1W5",
  "InstitutionName": "IUGM",
  "InstitutionalDepartmentName": "Department",
  "MRAcquisitionType": "2D",
  "MagneticFieldStrength": 3,
  "Manufacturer": "Siemens",
  "ManufacturersModelName": "Prisma_fit",
  "Modality": "MR",
  "MultibandAccelerationFactor": 4,
  "PartialFourier": 1,
  "PatientPosition": "HFS",
  "PercentPhaseFOV": 100,
  "PercentSampling": 100,
  "PhaseEncodingDirection": "j",
  "PhaseEncodingSteps": 104,
  "PhaseResolution": 1,
  "PixelBandwidth": 2290,
  "ProcedureStepDescription": "video_friends",
  "ProtocolName": "func_task-friends-s03e05b",
  "PulseSequenceDetails": "%CustomerSeq%_cmrr_mbep2d_bold",
  "ReceiveCoilActiveElements": "HC1-7;NC1,2",
  "ReceiveCoilName": "HeadNeck_64",
  "ReconMatrixPE": 104,
  "RepetitionTime": 1.49,
  "SAR": 0.0296722,
  "ScanOptions": "FS",
  "ScanningSequence": "EP",
  "SequenceName": "epfid2d1_104",
  "SequenceVariant": "SK_SS",
  "SeriesDescription": "func_task-friends-s03e05b",
  "SeriesNumber": 11,
  "ShimSetting": [627, -7262, -8807, 635, 4, -205, -92, -21],
  "SliceThickness": 2,
  "SliceTiming": [0, 0.7825, 0.0975, 0.8825, 0.195, 0.98, 0.2925, 1.0775, 0.3925, 1.175, 0.49, 1.2725, 0.5875, 1.3725, 0.685, 0, 0.7825, 0.0975, 0.8825, 0.195, 0.98, 0.2925, 1.0775, 0.3925, 1.175, 0.49, 1.2725, 0.5875, 1.3725, 0.685, 0, 0.7825, 0.0975, 0.8825, 0.195, 0.98, 0.2925, 1.0775, 0.3925, 1.175, 0.49, 1.2725, 0.5875, 1.3725, 0.685, 0, 0.7825, 0.0975, 0.8825, 0.195, 0.98, 0.2925, 1.0775, 0.3925, 1.175, 0.49, 1.2725, 0.5875, 1.3725, 0.685],
  "SoftwareVersions": "syngo_MR_E11",
  "SpacingBetweenSlices": 2,
  "StationName": "MRC35049",
  "TaskName": "s03e05b",
  "TotalReadoutTime": 0.0576811,
  "TxRefAmp": 216.196,
  "WipMemBlock": "50275dd6-7939-418e-8b7f-953cbce950c8||Sequence: R016 ve11c/master r/e634e98; Dec 19 2017 11:00:25 by eja",
  "dcmmeta_affine": [
    [-1.997180461883545, 0.09348601847887039, -0.05030245706439018, 97.99584197998047],
    [0.10518603026866913, 1.8706899881362915, -0.6996103525161743, -77.54517364501953],
    [-0.014348260127007961, 0.7012696266174316, 1.872969627380371, -61.57303237915039],
    [0.0, 0.0, 0.0, 1.0]
],
  "dcmmeta_reorient_transform": [
    [0.0, -1.0, 0.0, 103.0],
    [1.0, 0.0, 0.0, 0.0],
    [0.0, 0.0, 1.0, 0.0],
    [0.0, 0.0, 0.0, 1.0]
],
  "dcmmeta_shape": [104, 104, 60, 484],
  "dcmmeta_slice_dim": 2,
  "dcmmeta_version": 0.6,
  "global": {
    "const": {
      "AcquisitionMatrix": [104, 0, 0, 104],
      "AngioFlag": "N",
      "BitsAllocated": 16,
      "BitsStored": 16,
      "BodyPartExamined": "BRAIN",
      "Columns": 832,
      "EchoNumbers": 1,
      "EchoTime": 37.0,
      "EchoTrainLength": 104,
      "FlipAngle": 52.0,
      "HighBit": 15,
      "ImageOrientationPatient": [0.99859025969171, -0.0525930138304, -0.0071741302661, 0.04674300938725, 0.93534502365808, -0.3506348211337],
      "ImagePositionPatient": [-868.6275235041, -757.77936692457, 271.14265570372],
      "ImageType": [
        "ORIGINAL",
        "PRIMARY",
        "M",
        "MB",
        "ND",
        "MOSAIC"
],
      "ImagedNucleus": "1H",
      "ImagingFrequency": 123.259299,
      "InPlanePhaseEncodingDirection": "COL",
      "MRAcquisitionType": "2D",
      "MagneticFieldStrength": 3.0,
      "Manufacturer": "SIEMENS",
      "ManufacturerModelName": "Prisma_fit",
      "Modality": "MR",
      "NumberOfAverages": 1.0,
      "NumberOfPhaseEncodingSteps": 104,
      "PercentPhaseFieldOfView": 100.0,
      "PercentSampling": 100.0,
      "PerformedProcedureStepStartTime": "102543.308000",
      "PhotometricInterpretation": "MONOCHROME2",
      "PixelBandwidth": 2290.0,
      "PixelRepresentation": 0,
      "PixelSpacing": [2.0, 2.0],
      "ProtocolName": "func_task-friends-s03e05b",
      "RepetitionTime": 1490.0,
      "Rows": 832,
      "SAR": 0.02967221328781,
      "SamplesPerPixel": 1,
      "ScanOptions": "FS",
      "ScanningSequence": "EP",
      "SequenceName": "epfid2d1_104",
      "SequenceVariant": [
        "SK",
        "SS"
],
      "SeriesDescription": "func_task-friends-s03e05b",
      "SeriesNumber": 11,
      "SeriesTime": "104217.834000",
      "SliceLocation": -33.001223254911,
      "SliceThickness": 2.0,
      "SmallestImagePixelValue": 0,
      "SoftwareVersions": "syngo MR E11",
      "SpacingBetweenSlices": 2.0000000007827,
      "SpecificCharacterSet": "ISO_IR 100",
      "StudyID": "1",
      "StudyTime": "102543.230000",
      "TransmitCoilName": "Body",
      "VariableFlipAngleFlag": "N",
      "WindowCenterWidthExplanation": "Algo1",
      "dBdt": 0.0},
    "slices": {}
  },
  "time": {
    "samples": {
      "AcquisitionNumber": [1, 2, 3, 4, 5, 6, 7, 8, 9, 10, 11, 12, 13, 14, 15, 16, 17, 18, 19, 20, 21, 22, 23, 24, 25, 26, 27, 28, 29, 30, 31, 32, 33, 34, 35, 36, 37, 38, 39, 40, 41, 42, 43, 44, 45, 46, 47, 48, 49, 50, 51, 52, 53, 54, 55, 56, 57, 58, 59, 60, 61, 62, 63, 64, 65, 66, 67, 68, 69, 70, 71, 72, 73, 74, 75, 76, 77, 78, 79, 80, 81, 82, 83, 84, 85, 86, 87, 88, 89, 90, 91, 92, 93, 94, 95, 96, 97, 98, 99, 100, 101, 102, 103, 104, 105, 106, 107, 108, 109, 110, 111, 112, 113, 114, 115, 116, 117, 118, 119, 120, 121, 122, 123, 124, 125, 126, 127, 128, 129, 130, 131, 132, 133, 134, 135, 136, 137, 138, 139, 140, 141, 142, 143, 144, 145, 146, 147, 148, 149, 150, 151, 152, 153, 154, 155, 156, 157, 158, 159, 160, 161, 162, 163, 164, 165, 166, 167, 168, 169, 170, 171, 172, 173, 174, 175, 176, 177, 178, 179, 180, 181, 182, 183, 184, 185, 186, 187, 188, 189, 190, 191, 192, 193, 194, 195, 196, 197, 198, 199, 200, 201, 202, 203, 204, 205, 206, 207, 208, 209, 210, 211, 212, 213, 214, 215, 216, 217, 218, 219, 220, 221, 222, 223, 224, 225, 226, 227, 228, 229, 230, 231, 232, 233, 234, 235, 236, 237, 238, 239, 240, 241, 242, 243, 244, 245, 246, 247, 248, 249, 250, 251, 252, 253, 254, 255, 256, 257, 258, 259, 260, 261, 262, 263, 264, 265, 266, 267, 268, 269, 270, 271, 272, 273, 274, 275, 276, 277, 278, 279, 280, 281, 282, 283, 284, 285, 286, 287, 288, 289, 290, 291, 292, 293, 294, 295, 296, 297, 298, 299, 300, 301, 302, 303, 304, 305, 306, 307, 308, 309, 310, 311, 312, 313, 314, 315, 316, 317, 318, 319, 320, 321, 322, 323, 324, 325, 326, 327, 328, 329, 330, 331, 332, 333, 334, 335, 336, 337, 338, 339, 340, 341, 342, 343, 344, 345, 346, 347, 348, 349, 350, 351, 352, 353, 354, 355, 356, 357, 358, 359, 360, 361, 362, 363, 364, 365, 366, 367, 368, 369, 370, 371, 372, 373, 374, 375, 376, 377, 378, 379, 380, 381, 382, 383, 384, 385, 386, 387, 388, 389, 390, 391, 392, 393, 394, 395, 396, 397, 398, 399, 400, 401, 402, 403, 404, 405, 406, 407, 408, 409, 410, 411, 412, 413, 414, 415, 416, 417, 418, 419, 420, 421, 422, 423, 424, 425, 426, 427, 428, 429, 430, 431, 432, 433, 434, 435, 436, 437, 438, 439, 440, 441, 442, 443, 444, 445, 446, 447, 448, 449, 450, 451, 452, 453, 454, 455, 456, 457, 458, 459, 460, 461, 462, 463, 464, 465, 466, 467, 468, 469, 470, 471, 472, 473, 474, 475, 476, 477, 478, 479, 480, 481, 482, 483, 484],
      "AcquisitionTime": ["104057.810000", "104059.300000", "104100.790000", "104102.280000", "104103.770000", "104105.260000", "104106.750000", "104108.240000", "104109.730000", "104111.220000", "104112.710000", "104114.200000", "104115.690000", "104117.180000", "104118.670000", "104120.160000", "104121.650000", "104123.140000", "104124.630000", "104126.120000", "104127.610000", "104129.100000", "104130.590000", "104132.080000", "104133.570000", "104135.060000", "104136.550000", "104138.040000", "104139.530000", "104141.020000", "104142.510000", "104144.000000", "104145.490000", "104146.980000", "104148.470000", "104149.960000", "104151.450000", "104152.940000", "104154.430000", "104155.920000", "104157.410000", "104158.900000", "104200.390000", "104201.880000", "104203.370000", "104204.860000", "104206.350000", "104207.840000", "104209.330000", "104210.820000", "104212.310000", "104213.800000", "104215.290000", "104216.780000", "104218.270000", "104219.760000", "104221.250000", "104222.740000", "104224.230000", "104225.720000", "104227.210000", "104228.700000", "104230.190000", "104231.680000", "104233.170000", "104234.660000", "104236.150000", "104237.640000", "104239.130000", "104240.620000", "104242.110000", "104243.600000", "104245.090000", "104246.580000", "104248.070000", "104249.560000", "104251.050000", "104252.540000", "104254.030000", "104255.520000", "104257.010000", "104258.500000", "104259.990000", "104301.480000", "104302.970000", "104304.460000", "104305.950000", "104307.440000", "104308.930000", "104310.420000", "104311.910000", "104313.400000", "104314.890000", "104316.380000", "104317.870000", "104319.360000", "104320.850000", "104322.340000", "104323.830000", "104325.320000", "104326.810000", "104328.300000", "104329.790000", "104331.280000", "104332.770000", "104334.260000", "104335.750000", "104337.240000", "104338.730000", "104340.220000", "104341.710000", "104343.200000", "104344.690000", "104346.180000", "104347.670000", "104349.160000", "104350.650000", "104352.140000", "104353.630000", "104355.120000", "104356.610000", "104358.100000", "104359.590000", "104401.080000", "104402.570000", "104404.060000", "104405.550000", "104407.040000", "104408.530000", "104410.020000", "104411.510000", "104413.000000", "104414.490000", "104415.980000", "104417.470000", "104418.960000", "104420.450000", "104421.940000", "104423.430000", "104424.920000", "104426.410000", "104427.900000", "104429.390000", "104430.880000", "104432.370000", "104433.860000", "104435.350000", "104436.840000", "104438.330000", "104439.820000", "104441.310000", "104442.800000", "104444.290000", "104445.780000", "104447.270000", "104448.760000", "104450.250000", "104451.740000", "104453.230000", "104454.720000", "104456.210000", "104457.700000", "104459.190000", "104500.680000", "104502.170000", "104503.660000", "104505.150000", "104506.640000", "104508.130000", "104509.620000", "104511.110000", "104512.600000", "104514.090000", "104515.580000", "104517.070000", "104518.560000", "104520.050000", "104521.540000", "104523.030000", "104524.520000", "104526.010000", "104527.500000", "104528.990000", "104530.480000", "104531.970000", "104533.460000", "104534.950000", "104536.440000", "104537.930000", "104539.420000", "104540.910000", "104542.400000", "104543.890000", "104545.380000", "104546.870000", "104548.360000", "104549.850000", "104551.340000", "104552.830000", "104554.320000", "104555.810000", "104557.300000", "104558.790000", "104600.280000", "104601.770000", "104603.260000", "104604.750000", "104606.240000", "104607.730000", "104609.220000", "104610.710000", "104612.200000", "104613.690000", "104615.180000", "104616.670000", "104618.160000", "104619.650000", "104621.140000", "104622.630000", "104624.120000", "104625.610000", "104627.100000", "104628.590000", "104630.080000", "104631.570000", "104633.060000", "104634.550000", "104636.040000", "104637.530000", "104639.020000", "104640.510000", "104642.000000", "104643.490000", "104644.980000", "104646.470000", "104647.960000", "104649.450000", "104650.940000", "104652.430000", "104653.920000", "104655.410000", "104656.900000", "104658.390000", "104659.880000", "104701.370000", "104702.860000", "104704.350000", "104705.840000", "104707.330000", "104708.820000", "104710.310000", "104711.800000", "104713.290000", "104714.780000", "104716.270000", "104717.760000", "104719.250000", "104720.740000", "104722.230000", "104723.720000", "104725.210000", "104726.700000", "104728.190000", "104729.680000", "104731.170000", "104732.660000", "104734.150000", "104735.640000", "104737.130000", "104738.620000", "104740.110000", "104741.600000", "104743.090000", "104744.580000", "104746.070000", "104747.560000", "104749.050000", "104750.540000", "104752.030000", "104753.520000", "104755.010000", "104756.500000", "104757.990000", "104759.480000", "104800.970000", "104802.460000", "104803.950000", "104805.440000", "104806.930000", "104808.420000", "104809.910000", "104811.400000", "104812.890000", "104814.380000", "104815.870000", "104817.360000", "104818.850000", "104820.340000", "104821.830000", "104823.320000", "104824.810000", "104826.300000", "104827.790000", "104829.280000", "104830.770000", "104832.260000", "104833.750000", "104835.240000", "104836.730000", "104838.220000", "104839.710000", "104841.200000", "104842.690000", "104844.180000", "104845.670000", "104847.160000", "104848.650000", "104850.140000", "104851.630000", "104853.120000", "104854.610000", "104856.100000", "104857.590000", "104859.080000", "104900.570000", "104902.060000", "104903.550000", "104905.040000", "104906.530000", "104908.020000", "104909.510000", "104911.000000", "104912.490000", "104913.980000", "104915.470000", "104916.960000", "104918.450000", "104919.940000", "104921.430000", "104922.920000", "104924.410000", "104925.900000", "104927.390000", "104928.880000", "104930.370000", "104931.860000", "104933.350000", "104934.840000", "104936.330000", "104937.820000", "104939.310000", "104940.800000", "104942.290000", "104943.780000", "104945.270000", "104946.760000", "104948.250000", "104949.740000", "104951.230000", "104952.720000", "104954.210000", "104955.700000", "104957.190000", "104958.680000", "105000.170000", "105001.660000", "105003.150000", "105004.640000", "105006.130000", "105007.620000", "105009.110000", "105010.600000", "105012.090000", "105013.580000", "105015.070000", "105016.560000", "105018.050000", "105019.540000", "105021.030000", "105022.520000", "105024.010000", "105025.500000", "105026.990000", "105028.480000", "105029.970000", "105031.460000", "105032.950000", "105034.440000", "105035.930000", "105037.420000", "105038.910000", "105040.400000", "105041.890000", "105043.380000", "105044.870000", "105046.360000", "105047.850000", "105049.340000", "105050.830000", "105052.320000", "105053.810000", "105055.300000", "105056.790000", "105058.280000", "105059.770000", "105101.260000", "105102.750000", "105104.240000", "105105.730000", "105107.220000", "105108.710000", "105110.200000", "105111.690000", "105113.180000", "105114.670000", "105116.160000", "105117.650000", "105119.140000", "105120.630000", "105122.120000", "105123.610000", "105125.100000", "105126.590000", "105128.080000", "105129.570000", "105131.060000", "105132.550000", "105134.040000", "105135.530000", "105137.020000", "105138.510000", "105140.000000", "105141.490000", "105142.980000", "105144.470000", "105145.960000", "105147.450000", "105148.940000", "105150.430000", "105151.920000", "105153.410000", "105154.900000", "105156.390000", "105157.880000", "105159.370000", "105200.860000", "105202.350000", "105203.840000", "105205.330000", "105206.820000", "105208.310000", "105209.800000", "105211.290000", "105212.780000", "105214.270000", "105215.760000", "105217.250000", "105218.740000", "105220.230000", "105221.720000", "105223.210000", "105224.700000", "105226.190000", "105227.680000", "105229.170000", "105230.660000", "105232.150000", "105233.640000", "105235.130000", "105236.620000", "105238.110000", "105239.600000", "105241.090000", "105242.580000", "105244.070000", "105245.560000", "105247.050000", "105248.540000", "105250.030000", "105251.520000", "105253.010000", "105254.500000", "105255.990000", "105257.480000"],
      "ContentTime": ["104217.837000", "104217.840000", "104217.843000", "104217.846000", "104217.849000", "104217.852000", "104217.855000", "104217.858000", "104217.860000", "104217.863000", "104217.866000", "104217.869000", "104217.872000", "104217.878000", "104217.881000", "104217.884000", "104217.887000", "104217.890000", "104217.892000", "104217.895000", "104217.898000", "104217.902000", "104217.904000", "104217.908000", "104217.910000", "104217.913000", "104217.916000", "104217.919000", "104237.799000", "104237.802000", "104237.805000", "104237.808000", "104237.810000", "104237.813000", "104237.816000", "104237.819000", "104237.822000", "104237.825000", "104237.828000", "104237.831000", "104237.834000", "104237.837000", "104237.840000", "104237.842000", "104237.845000", "104237.848000", "104237.851000", "104237.854000", "104257.799000", "104257.802000", "104257.805000", "104257.808000", "104257.827000", "104257.830000", "104257.833000", "104257.835000", "104257.838000", "104257.841000", "104257.844000", "104257.847000", "104257.849000", "104257.852000", "104257.859000", "104257.861000", "104257.864000", "104257.867000", "104257.870000", "104257.873000", "104317.799000", "104317.802000", "104317.805000", "104317.808000", "104317.810000", "104317.824000", "104317.827000", "104317.830000", "104317.833000", "104317.836000", "104317.839000", "104317.842000", "104317.844000", "104317.847000", "104317.850000", "104317.853000", "104317.856000", "104317.858000", "104317.861000", "104317.864000", "104357.799000", "104357.834000", "104357.837000", "104357.840000", "104357.843000", "104357.846000", "104357.849000", "104357.852000", "104357.854000", "104357.857000", "104357.860000", "104357.863000", "104357.866000", "104357.868000", "104357.872000", "104357.874000", "104357.877000", "104357.880000", "104357.883000", "104357.886000", "104357.889000", "104357.891000", "104357.894000", "104357.897000", "104357.900000", "104357.903000", "104357.906000", "104357.909000", "104357.911000", "104357.914000", "104357.917000", "104357.920000", "104437.800000", "104437.803000", "104437.806000", "104437.809000", "104437.812000", "104437.814000", "104437.817000", "104437.820000", "104437.823000", "104437.826000", "104437.829000", "104437.831000", "104437.834000", "104437.837000", "104437.840000", "104437.843000", "104437.846000", "104437.849000", "104437.851000", "104437.854000", "104437.857000", "104437.860000", "104437.863000", "104437.865000", "104437.868000", "104437.871000", "104437.874000", "104517.799000", "104517.850000", "104517.852000", "104517.855000", "104517.858000", "104517.861000", "104517.864000", "104517.867000", "104517.870000", "104517.873000", "104517.875000", "104517.878000", "104517.881000", "104517.884000", "104517.887000", "104517.890000", "104517.893000", "104517.895000", "104517.898000", "104517.901000", "104517.904000", "104517.907000", "104517.909000", "104517.912000", "104517.915000", "104517.918000", "104557.799000", "104557.876000", "104557.879000", "104557.881000", "104557.884000", "104557.887000", "104557.890000", "104557.893000", "104557.896000", "104557.899000", "104557.901000", "104557.904000", "104557.907000", "104557.910000", "104557.914000", "104557.917000", "104557.919000", "104557.922000", "104557.925000", "104557.928000", "104557.931000", "104557.934000", "104557.936000", "104557.939000", "104557.942000", "104557.945000", "104557.948000", "104637.799000", "104637.802000", "104637.805000", "104637.808000", "104637.811000", "104637.813000", "104637.816000", "104637.819000", "104637.822000", "104637.825000", "104637.828000", "104637.830000", "104637.833000", "104637.836000", "104637.851000", "104637.854000", "104637.857000", "104637.859000", "104637.862000", "104637.865000", "104637.868000", "104637.871000", "104637.874000", "104637.877000", "104637.880000", "104637.882000", "104637.885000", "104717.814000", "104717.817000", "104717.820000", "104717.823000", "104717.826000", "104717.828000", "104717.831000", "104717.834000", "104717.837000", "104717.840000", "104717.843000", "104717.846000", "104717.849000", "104717.851000", "104717.854000", "104717.857000", "104717.860000", "104717.863000", "104717.866000", "104717.869000", "104717.871000", "104717.874000", "104717.877000", "104717.890000", "104717.893000", "104717.896000", "104717.899000", "104757.799000", "104757.802000", "104757.805000", "104757.808000", "104757.810000", "104757.813000", "104757.816000", "104757.819000", "104757.822000", "104757.825000", "104757.828000", "104757.830000", "104757.833000", "104757.836000", "104757.839000", "104757.842000", "104757.845000", "104757.847000", "104757.850000", "104757.853000", "104757.856000", "104757.859000", "104757.862000", "104757.865000", "104757.868000", "104757.870000", "104757.873000", "104817.799000", "104817.802000", "104817.805000", "104817.808000", "104817.811000", "104817.814000", "104817.817000", "104817.819000", "104817.822000", "104817.825000", "104817.828000", "104817.831000", "104817.834000", "104857.799000", "104857.802000", "104857.812000", "104857.815000", "104857.818000", "104857.820000", "104857.823000", "104857.826000", "104857.829000", "104857.832000", "104857.835000", "104857.837000", "104857.840000", "104857.843000", "104857.846000", "104857.849000", "104857.852000", "104857.854000", "104857.857000", "104857.860000", "104857.863000", "104857.866000", "104857.869000", "104857.872000", "104857.875000", "104857.877000", "104857.880000", "104937.799000", "104937.802000", "104937.805000", "104937.808000", "104937.811000", "104937.814000", "104937.816000", "104937.819000", "104937.822000", "104937.825000", "104937.828000", "104937.831000", "104937.834000", "104937.837000", "104937.839000", "104937.842000", "104937.845000", "104937.848000", "104937.851000", "104937.854000", "104937.857000", "104937.860000", "104937.862000", "104937.865000", "104937.868000", "104937.871000", "104937.874000", "105017.799000", "105017.802000", "105017.805000", "105017.808000", "105017.811000", "105017.813000", "105017.816000", "105017.819000", "105017.822000", "105017.825000", "105017.828000", "105017.830000", "105017.833000", "105017.836000", "105017.839000", "105017.842000", "105017.845000", "105017.848000", "105017.850000", "105017.853000", "105017.856000", "105017.859000", "105017.862000", "105017.865000", "105017.868000", "105017.870000", "105017.873000", "105057.799000", "105057.802000", "105057.805000", "105057.808000", "105057.811000", "105057.813000", "105057.816000", "105057.819000", "105057.822000", "105057.825000", "105057.828000", "105057.831000", "105057.833000", "105057.836000", "105057.839000", "105057.842000", "105057.845000", "105057.848000", "105057.851000", "105057.858000", "105057.861000", "105057.864000", "105057.867000", "105057.870000", "105057.872000", "105057.875000", "105057.878000", "105137.806000", "105137.809000", "105137.812000", "105137.815000", "105137.818000", "105137.821000", "105137.831000", "105137.834000", "105137.837000", "105137.839000", "105137.842000", "105137.845000", "105137.848000", "105137.851000", "105137.854000", "105137.857000", "105137.860000", "105137.862000", "105137.865000", "105137.868000", "105137.871000", "105137.874000", "105137.877000", "105137.880000", "105137.882000", "105137.885000", "105137.888000", "105217.799000", "105217.802000", "105217.805000", "105217.808000", "105217.811000", "105217.813000", "105217.816000", "105217.819000", "105217.822000", "105217.825000", "105217.828000", "105217.831000", "105217.834000", "105217.836000", "105217.839000", "105217.842000", "105217.845000", "105217.848000", "105217.850000", "105217.853000", "105217.856000", "105217.860000", "105217.863000", "105217.866000", "105217.869000", "105217.871000", "105257.799000", "105257.802000", "105257.805000", "105257.808000", "105257.811000", "105257.814000", "105257.816000", "105257.819000", "105257.831000", "105257.833000", "105257.836000", "105257.839000", "105257.842000", "105257.845000", "105257.848000", "105257.851000", "105257.854000", "105257.856000", "105257.859000", "105257.862000", "105257.865000", "105257.868000", "105257.871000", "105257.874000", "105257.876000", "105257.879000", "105257.882000", "105259.761000", "105259.764000"],
