{
  "AcquisitionMatrixPE": 104,
  "AcquisitionNumber": 1,
  "AcquisitionTime": "11:31:4.457500",
  "BandwidthPerPixelPhaseEncode": 17.17,
  "BaseResolution": 104,
  "BodyPartExamined": "BRAIN",
  "CoilString": "HC1-7;NC1_2",
  "ConsistencyInfo": "N4_VE11C_LATEST_20160120",
  "ConversionSoftware": "dcm2niix",
  "ConversionSoftwareVersion": "v1.0.20200427",
  "DerivedVendorReportedEchoSpacing": 0.000560011,
  "DeviceSerialNumber": "167006",
  "DwellTime": 2.1e-06,
  "EchoTime": 0.037,
  "EchoTrainLength": 104,
  "EffectiveEchoSpacing": 0.000560011,
  "FlipAngle": 52,
  "ImageComments": "Unaliased_MB4_PE3_LB",
  "ImageOrientationPatientDICOM": [0.99859, -0.052593, -0.00717413, 0.046743, 0.935345, -0.350635],
  "ImageType": [
    "ORIGINAL",
    "PRIMARY",
    "M",
    "MB",
    "ND",
    "MOSAIC"
],
  "ImagingFrequency": 123.259,
  "InPlanePhaseEncodingDirectionDICOM": "COL",
  "InstitutionAddress": "Chemin_Queen-Mary_4565_Montreal_District_CA_H3W_1W5",
  "InstitutionName": "IUGM",
  "InstitutionalDepartmentName": "Department",
  "MRAcquisitionType": "2D",
  "MagneticFieldStrength": 3,
  "Manufacturer": "Siemens",
  "ManufacturersModelName": "Prisma_fit",
  "Modality": "MR",
  "MultibandAccelerationFactor": 4,
  "PartialFourier": 1,
  "PatientPosition": "HFS",
  "PercentPhaseFOV": 100,
  "PercentSampling": 100,
  "PhaseEncodingDirection": "j",
  "PhaseEncodingSteps": 104,
  "PhaseResolution": 1,
  "PixelBandwidth": 2290,
  "ProcedureStepDescription": "video_friends",
  "ProtocolName": "func_task-friends-s03e07b",
  "PulseSequenceDetails": "%CustomerSeq%_cmrr_mbep2d_bold",
  "ReceiveCoilActiveElements": "HC1-7;NC1,2",
  "ReceiveCoilName": "HeadNeck_64",
  "ReconMatrixPE": 104,
  "RepetitionTime": 1.49,
  "SAR": 0.0296678,
  "ScanOptions": "FS",
  "ScanningSequence": "EP",
  "SequenceName": "epfid2d1_104",
  "SequenceVariant": "SK_SS",
  "SeriesDescription": "func_task-friends-s03e07b",
  "SeriesNumber": 19,
  "ShimSetting": [627, -7262, -8807, 635, 4, -205, -92, -21],
  "SliceThickness": 2,
  "SliceTiming": [0, 0.785, 0.0975, 0.8825, 0.195, 0.98, 0.295, 1.0775, 0.3925, 1.175, 0.49, 1.275, 0.5875, 1.3725, 0.685, 0, 0.785, 0.0975, 0.8825, 0.195, 0.98, 0.295, 1.0775, 0.3925, 1.175, 0.49, 1.275, 0.5875, 1.3725, 0.685, 0, 0.785, 0.0975, 0.8825, 0.195, 0.98, 0.295, 1.0775, 0.3925, 1.175, 0.49, 1.275, 0.5875, 1.3725, 0.685, 0, 0.785, 0.0975, 0.8825, 0.195, 0.98, 0.295, 1.0775, 0.3925, 1.175, 0.49, 1.275, 0.5875, 1.3725, 0.685],
  "SoftwareVersions": "syngo_MR_E11",
  "SpacingBetweenSlices": 2,
  "StationName": "MRC35049",
  "TaskName": "s03e07b",
  "TotalReadoutTime": 0.0576811,
  "TxRefAmp": 216.196,
  "WipMemBlock": "a72fb3cf-a31c-4964-8c1c-1525845cccd4||Sequence: R016 ve11c/master r/e634e98; Dec 19 2017 11:00:25 by eja",
  "dcmmeta_affine": [
    [-1.997180461883545, 0.09348601847887039, -0.05030245706439018, 97.99584197998047],
    [0.10518603026866913, 1.8706899881362915, -0.6996103525161743, -77.54517364501953],
    [-0.014348260127007961, 0.7012696266174316, 1.872969627380371, -61.57303237915039],
    [0.0, 0.0, 0.0, 1.0]
],
  "dcmmeta_reorient_transform": [
    [0.0, -1.0, 0.0, 103.0],
    [1.0, 0.0, 0.0, 0.0],
    [0.0, 0.0, 1.0, 0.0],
    [0.0, 0.0, 0.0, 1.0]
],
  "dcmmeta_shape": [104, 104, 60, 467],
  "dcmmeta_slice_dim": 2,
  "dcmmeta_version": 0.6,
  "global": {
    "const": {
      "AcquisitionMatrix": [104, 0, 0, 104],
      "AngioFlag": "N",
      "BitsAllocated": 16,
      "BitsStored": 16,
      "BodyPartExamined": "BRAIN",
      "Columns": 832,
      "EchoNumbers": 1,
      "EchoTime": 37.0,
      "EchoTrainLength": 104,
      "FlipAngle": 52.0,
      "HighBit": 15,
      "ImageOrientationPatient": [0.99859025969171, -0.0525930138304, -0.0071741302661, 0.04674300938725, 0.93534502365808, -0.3506348211337],
      "ImagePositionPatient": [-868.6275235041, -757.77936692457, 271.14265570372],
      "ImageType": [
        "ORIGINAL",
        "PRIMARY",
        "M",
        "MB",
        "ND",
        "MOSAIC"
],
      "ImagedNucleus": "1H",
      "ImagingFrequency": 123.25931,
      "InPlanePhaseEncodingDirection": "COL",
      "MRAcquisitionType": "2D",
      "MagneticFieldStrength": 3.0,
      "Manufacturer": "SIEMENS",
      "ManufacturerModelName": "Prisma_fit",
      "Modality": "MR",
      "NumberOfAverages": 1.0,
      "NumberOfPhaseEncodingSteps": 104,
      "PercentPhaseFieldOfView": 100.0,
      "PercentSampling": 100.0,
      "PerformedProcedureStepStartTime": "102543.308000",
      "PhotometricInterpretation": "MONOCHROME2",
      "PixelBandwidth": 2290.0,
      "PixelRepresentation": 0,
      "PixelSpacing": [2.0, 2.0],
      "ProtocolName": "func_task-friends-s03e07b",
      "RepetitionTime": 1490.0,
      "Rows": 832,
      "SAR": 0.02966780399664,
      "SamplesPerPixel": 1,
      "ScanOptions": "FS",
      "ScanningSequence": "EP",
      "SequenceName": "epfid2d1_104",
      "SequenceVariant": [
        "SK",
        "SS"
],
      "SeriesDescription": "func_task-friends-s03e07b",
      "SeriesNumber": 19,
      "SeriesTime": "113221.140000",
      "SliceLocation": -33.001223254911,
      "SliceThickness": 2.0,
      "SmallestImagePixelValue": 0,
      "SoftwareVersions": "syngo MR E11",
      "SpacingBetweenSlices": 2.0000000007827,
      "SpecificCharacterSet": "ISO_IR 100",
      "StudyID": "1",
      "StudyTime": "102543.230000",
      "TransmitCoilName": "Body",
      "VariableFlipAngleFlag": "N",
      "WindowCenterWidthExplanation": "Algo1",
      "dBdt": 0.0},
    "slices": {}
  },
  "time": {
    "samples": {
      "AcquisitionNumber": [1, 2, 3, 4, 5, 6, 7, 8, 9, 10, 11, 12, 13, 14, 15, 16, 17, 18, 19, 20, 21, 22, 23, 24, 25, 26, 27, 28, 29, 30, 31, 32, 33, 34, 35, 36, 37, 38, 39, 40, 41, 42, 43, 44, 45, 46, 47, 48, 49, 50, 51, 52, 53, 54, 55, 56, 57, 58, 59, 60, 61, 62, 63, 64, 65, 66, 67, 68, 69, 70, 71, 72, 73, 74, 75, 76, 77, 78, 79, 80, 81, 82, 83, 84, 85, 86, 87, 88, 89, 90, 91, 92, 93, 94, 95, 96, 97, 98, 99, 100, 101, 102, 103, 104, 105, 106, 107, 108, 109, 110, 111, 112, 113, 114, 115, 116, 117, 118, 119, 120, 121, 122, 123, 124, 125, 126, 127, 128, 129, 130, 131, 132, 133, 134, 135, 136, 137, 138, 139, 140, 141, 142, 143, 144, 145, 146, 147, 148, 149, 150, 151, 152, 153, 154, 155, 156, 157, 158, 159, 160, 161, 162, 163, 164, 165, 166, 167, 168, 169, 170, 171, 172, 173, 174, 175, 176, 177, 178, 179, 180, 181, 182, 183, 184, 185, 186, 187, 188, 189, 190, 191, 192, 193, 194, 195, 196, 197, 198, 199, 200, 201, 202, 203, 204, 205, 206, 207, 208, 209, 210, 211, 212, 213, 214, 215, 216, 217, 218, 219, 220, 221, 222, 223, 224, 225, 226, 227, 228, 229, 230, 231, 232, 233, 234, 235, 236, 237, 238, 239, 240, 241, 242, 243, 244, 245, 246, 247, 248, 249, 250, 251, 252, 253, 254, 255, 256, 257, 258, 259, 260, 261, 262, 263, 264, 265, 266, 267, 268, 269, 270, 271, 272, 273, 274, 275, 276, 277, 278, 279, 280, 281, 282, 283, 284, 285, 286, 287, 288, 289, 290, 291, 292, 293, 294, 295, 296, 297, 298, 299, 300, 301, 302, 303, 304, 305, 306, 307, 308, 309, 310, 311, 312, 313, 314, 315, 316, 317, 318, 319, 320, 321, 322, 323, 324, 325, 326, 327, 328, 329, 330, 331, 332, 333, 334, 335, 336, 337, 338, 339, 340, 341, 342, 343, 344, 345, 346, 347, 348, 349, 350, 351, 352, 353, 354, 355, 356, 357, 358, 359, 360, 361, 362, 363, 364, 365, 366, 367, 368, 369, 370, 371, 372, 373, 374, 375, 376, 377, 378, 379, 380, 381, 382, 383, 384, 385, 386, 387, 388, 389, 390, 391, 392, 393, 394, 395, 396, 397, 398, 399, 400, 401, 402, 403, 404, 405, 406, 407, 408, 409, 410, 411, 412, 413, 414, 415, 416, 417, 418, 419, 420, 421, 422, 423, 424, 425, 426, 427, 428, 429, 430, 431, 432, 433, 434, 435, 436, 437, 438, 439, 440, 441, 442, 443, 444, 445, 446, 447, 448, 449, 450, 451, 452, 453, 454, 455, 456, 457, 458, 459, 460, 461, 462, 463, 464, 465, 466, 467],
      "AcquisitionTime": ["113104.457500", "113105.947500", "113107.437500", "113108.927500", "113110.417500", "113111.907500", "113113.397500", "113114.887500", "113116.377500", "113117.867500", "113119.357500", "113120.847500", "113122.337500", "113123.827500", "113125.317500", "113126.807500", "113128.297500", "113129.787500", "113131.277500", "113132.767500", "113134.257500", "113135.747500", "113137.237500", "113138.727500", "113140.217500", "113141.707500", "113143.197500", "113144.687500", "113146.177500", "113147.667500", "113149.157500", "113150.647500", "113152.137500", "113153.627500", "113155.117500", "113156.607500", "113158.097500", "113159.587500", "113201.077500", "113202.567500", "113204.057500", "113205.547500", "113207.037500", "113208.527500", "113210.017500", "113211.507500", "113212.997500", "113214.487500", "113215.977500", "113217.467500", "113218.957500", "113220.447500", "113221.937500", "113223.427500", "113224.917500", "113226.407500", "113227.897500", "113229.387500", "113230.877500", "113232.367500", "113233.857500", "113235.347500", "113236.837500", "113238.327500", "113239.817500", "113241.307500", "113242.797500", "113244.287500", "113245.777500", "113247.267500", "113248.757500", "113250.247500", "113251.737500", "113253.227500", "113254.717500", "113256.207500", "113257.697500", "113259.187500", "113300.677500", "113302.167500", "113303.657500", "113305.147500", "113306.637500", "113308.127500", "113309.617500", "113311.107500", "113312.597500", "113314.087500", "113315.577500", "113317.067500", "113318.557500", "113320.047500", "113321.537500", "113323.027500", "113324.517500", "113326.007500", "113327.497500", "113328.987500", "113330.477500", "113331.967500", "113333.457500", "113334.947500", "113336.437500", "113337.927500", "113339.417500", "113340.907500", "113342.397500", "113343.887500", "113345.377500", "113346.867500", "113348.357500", "113349.847500", "113351.337500", "113352.827500", "113354.317500", "113355.807500", "113357.297500", "113358.787500", "113400.277500", "113401.767500", "113403.257500", "113404.747500", "113406.237500", "113407.727500", "113409.217500", "113410.707500", "113412.197500", "113413.687500", "113415.177500", "113416.667500", "113418.157500", "113419.647500", "113421.137500", "113422.627500", "113424.117500", "113425.607500", "113427.097500", "113428.587500", "113430.077500", "113431.567500", "113433.057500", "113434.547500", "113436.037500", "113437.527500", "113439.017500", "113440.507500", "113441.997500", "113443.487500", "113444.977500", "113446.467500", "113447.957500", "113449.447500", "113450.937500", "113452.427500", "113453.917500", "113455.407500", "113456.897500", "113458.387500", "113459.877500", "113501.367500", "113502.857500", "113504.347500", "113505.837500", "113507.327500", "113508.817500", "113510.307500", "113511.797500", "113513.287500", "113514.777500", "113516.267500", "113517.757500", "113519.247500", "113520.737500", "113522.227500", "113523.717500", "113525.207500", "113526.697500", "113528.187500", "113529.677500", "113531.167500", "113532.657500", "113534.147500", "113535.637500", "113537.127500", "113538.617500", "113540.107500", "113541.597500", "113543.087500", "113544.577500", "113546.067500", "113547.557500", "113549.047500", "113550.537500", "113552.027500", "113553.517500", "113555.007500", "113556.497500", "113557.987500", "113559.477500", "113600.967500", "113602.457500", "113603.947500", "113605.437500", "113606.927500", "113608.417500", "113609.907500", "113611.397500", "113612.887500", "113614.377500", "113615.867500", "113617.357500", "113618.847500", "113620.337500", "113621.827500", "113623.317500", "113624.807500", "113626.297500", "113627.787500", "113629.277500", "113630.767500", "113632.257500", "113633.747500", "113635.237500", "113636.727500", "113638.217500", "113639.707500", "113641.197500", "113642.687500", "113644.177500", "113645.667500", "113647.157500", "113648.647500", "113650.137500", "113651.627500", "113653.117500", "113654.607500", "113656.097500", "113657.587500", "113659.077500", "113700.567500", "113702.057500", "113703.547500", "113705.037500", "113706.527500", "113708.017500", "113709.507500", "113710.997500", "113712.487500", "113713.977500", "113715.467500", "113716.957500", "113718.447500", "113719.937500", "113721.427500", "113722.917500", "113724.407500", "113725.897500", "113727.387500", "113728.877500", "113730.367500", "113731.857500", "113733.347500", "113734.837500", "113736.327500", "113737.817500", "113739.307500", "113740.797500", "113742.287500", "113743.777500", "113745.267500", "113746.757500", "113748.247500", "113749.737500", "113751.227500", "113752.717500", "113754.207500", "113755.697500", "113757.187500", "113758.677500", "113800.167500", "113801.657500", "113803.147500", "113804.637500", "113806.127500", "113807.617500", "113809.107500", "113810.597500", "113812.087500", "113813.577500", "113815.067500", "113816.557500", "113818.047500", "113819.537500", "113821.027500", "113822.517500", "113824.007500", "113825.497500", "113826.987500", "113828.477500", "113829.967500", "113831.457500", "113832.947500", "113834.437500", "113835.927500", "113837.417500", "113838.907500", "113840.397500", "113841.887500", "113843.377500", "113844.867500", "113846.357500", "113847.847500", "113849.337500", "113850.827500", "113852.317500", "113853.807500", "113855.297500", "113856.787500", "113858.277500", "113859.767500", "113901.257500", "113902.747500", "113904.237500", "113905.727500", "113907.217500", "113908.707500", "113910.197500", "113911.687500", "113913.177500", "113914.667500", "113916.157500", "113917.647500", "113919.137500", "113920.627500", "113922.117500", "113923.607500", "113925.097500", "113926.587500", "113928.077500", "113929.567500", "113931.057500", "113932.547500", "113934.037500", "113935.527500", "113937.017500", "113938.507500", "113939.997500", "113941.487500", "113942.977500", "113944.467500", "113945.957500", "113947.447500", "113948.937500", "113950.427500", "113951.917500", "113953.407500", "113954.897500", "113956.387500", "113957.877500", "113959.367500", "114000.857500", "114002.347500", "114003.837500", "114005.327500", "114006.817500", "114008.307500", "114009.797500", "114011.287500", "114012.777500", "114014.267500", "114015.757500", "114017.247500", "114018.737500", "114020.227500", "114021.717500", "114023.207500", "114024.697500", "114026.187500", "114027.677500", "114029.167500", "114030.657500", "114032.147500", "114033.637500", "114035.127500", "114036.617500", "114038.107500", "114039.597500", "114041.087500", "114042.577500", "114044.067500", "114045.557500", "114047.047500", "114048.537500", "114050.027500", "114051.517500", "114053.007500", "114054.497500", "114055.987500", "114057.477500", "114058.967500", "114100.457500", "114101.947500", "114103.437500", "114104.927500", "114106.417500", "114107.907500", "114109.397500", "114110.887500", "114112.377500", "114113.867500", "114115.357500", "114116.847500", "114118.337500", "114119.827500", "114121.317500", "114122.807500", "114124.297500", "114125.787500", "114127.277500", "114128.767500", "114130.257500", "114131.747500", "114133.237500", "114134.727500", "114136.217500", "114137.707500", "114139.197500", "114140.687500", "114142.177500", "114143.667500", "114145.157500", "114146.647500", "114148.137500", "114149.627500", "114151.117500", "114152.607500", "114154.097500", "114155.587500", "114157.077500", "114158.567500", "114200.057500", "114201.547500", "114203.037500", "114204.527500", "114206.017500", "114207.507500", "114208.997500", "114210.487500", "114211.977500", "114213.467500", "114214.957500", "114216.447500", "114217.937500", "114219.427500", "114220.917500", "114222.407500", "114223.897500", "114225.387500", "114226.877500", "114228.367500", "114229.857500", "114231.347500", "114232.837500", "114234.327500", "114235.817500", "114237.307500", "114238.797500"],
      "ContentTime": ["113221.143000", "113221.146000", "113221.153000", "113221.156000", "113221.159000", "113221.161000", "113221.164000", "113221.167000", "113221.170000", "113221.173000", "113221.176000", "113221.182000", "113221.184000", "113221.187000", "113221.190000", "113221.193000", "113221.196000", "113221.199000", "113221.201000", "113221.210000", "113221.212000", "113221.215000", "113241.104000", "113241.107000", "113241.110000", "113241.123000", "113241.126000", "113241.129000", "113241.131000", "113241.134000", "113241.137000", "113241.140000", "113241.143000", "113241.146000", "113241.148000", "113241.151000", "113241.154000", "113241.157000", "113241.166000", "113241.168000", "113241.171000", "113241.174000", "113301.105000", "113301.108000", "113301.111000", "113301.114000", "113301.116000", "113301.119000", "113301.122000", "113301.125000", "113301.144000", "113301.146000", "113301.149000", "113301.152000", "113301.155000", "113301.158000", "113301.161000", "113301.164000", "113301.167000", "113301.169000", "113301.172000", "113301.175000", "113321.105000", "113321.108000", "113321.111000", "113321.114000", "113321.117000", "113321.119000", "113321.122000", "113321.125000", "113321.128000", "113321.131000", "113321.133000", "113321.136000", "113321.139000", "113321.142000", "113321.145000", "113321.148000", "113321.150000", "113321.153000", "113321.156000", "113321.159000", "113341.104000", "113341.107000", "113341.110000", "113341.112000", "113341.115000", "113341.118000", "113341.121000", "113341.124000", "113341.127000", "113341.130000", "113341.132000", "113341.135000", "113341.138000", "113341.141000", "113341.144000", "113341.146000", "113341.149000", "113341.152000", "113341.155000", "113341.158000", "113341.161000", "113421.104000", "113421.107000", "113421.110000", "113421.113000", "113421.116000", "113421.118000", "113421.121000", "113421.124000", "113421.127000", "113421.130000", "113421.132000", "113421.135000", "113421.138000", "113421.141000", "113421.144000", "113421.147000", "113421.150000", "113421.152000", "113421.155000", "113421.165000", "113421.168000", "113421.171000", "113421.174000", "113421.176000", "113421.179000", "113421.182000", "113421.185000", "113421.188000", "113501.104000", "113501.107000", "113501.110000", "113501.113000", "113501.116000", "113501.118000", "113501.121000", "113501.124000", "113501.127000", "113501.130000", "113501.133000", "113501.136000", "113501.138000", "113501.141000", "113501.144000", "113501.147000", "113501.150000", "113501.153000", "113501.156000", "113501.159000", "113501.161000", "113501.164000", "113501.167000", "113501.170000", "113501.173000", "113501.175000", "113501.178000", "113541.105000", "113541.108000", "113541.111000", "113541.114000", "113541.117000", "113541.120000", "113541.122000", "113541.125000", "113541.128000", "113541.131000", "113541.134000", "113541.137000", "113541.139000", "113541.142000", "113541.145000", "113541.148000", "113541.151000", "113541.154000", "113541.157000", "113541.159000", "113541.162000", "113541.165000", "113541.168000", "113541.171000", "113541.174000", "113541.176000", "113541.179000", "113621.104000", "113621.107000", "113621.110000", "113621.113000", "113621.116000", "113621.118000", "113621.121000", "113621.124000", "113621.127000", "113621.130000", "113621.133000", "113621.135000", "113621.138000", "113621.141000", "113621.144000", "113621.147000", "113621.150000", "113621.152000", "113621.155000", "113621.158000", "113621.161000", "113621.164000", "113621.167000", "113621.170000", "113621.173000", "113621.175000", "113621.178000", "113701.104000", "113701.107000", "113701.110000", "113701.113000", "113701.115000", "113701.118000", "113701.121000", "113701.124000", "113701.127000", "113701.130000", "113701.132000", "113701.135000", "113701.138000", "113701.141000", "113701.144000", "113701.159000", "113701.162000", "113701.164000", "113701.167000", "113701.170000", "113701.173000", "113701.176000", "113701.179000", "113701.182000", "113701.184000", "113701.187000", "113701.190000", "113741.105000", "113741.108000", "113741.111000", "113741.114000", "113741.117000", "113741.119000", "113741.122000", "113741.125000", "113741.129000", "113741.132000", "113741.135000", "113741.138000", "113741.141000", "113741.143000", "113741.146000", "113741.149000", "113741.160000", "113741.162000", "113741.165000", "113741.168000", "113741.171000", "113741.174000", "113741.177000", "113741.179000", "113741.182000", "113741.185000", "113821.104000", "113821.107000", "113821.110000", "113821.113000", "113821.116000", "113821.118000", "113821.121000", "113821.124000", "113821.127000", "113821.130000", "113821.133000", "113821.135000", "113821.138000", "113821.141000", "113821.144000", "113821.147000", "113821.150000", "113821.153000", "113821.156000", "113821.158000", "113821.161000", "113821.164000", "113821.167000", "113821.170000", "113821.173000", "113821.176000", "113821.178000", "113901.104000", "113901.107000", "113901.110000", "113901.113000", "113901.116000", "113901.119000", "113901.121000", "113901.124000", "113901.127000", "113901.130000", "113901.133000", "113901.136000", "113901.139000", "113901.142000", "113901.144000", "113901.147000", "113901.150000", "113901.153000", "113901.156000", "113901.159000", "113901.162000", "113901.164000", "113901.167000", "113901.170000", "113901.173000", "113901.176000", "113901.179000", "113941.104000", "113941.107000", "113941.110000", "113941.113000", "113941.116000", "113941.119000", "113941.122000", "113941.124000", "113941.127000", "113941.130000", "113941.133000", "113941.136000", "113941.139000", "113941.142000", "113941.145000", "113941.147000", "113941.150000", "113941.153000", "113941.156000", "113941.159000", "113941.162000", "113941.164000", "113941.167000", "113941.170000", "113941.173000", "113941.176000", "113941.179000", "114021.105000", "114021.108000", "114021.111000", "114021.114000", "114021.117000", "114021.120000", "114021.122000", "114021.125000", "114021.128000", "114021.131000", "114021.134000", "114021.137000", "114021.139000", "114021.142000", "114021.145000", "114021.148000", "114021.151000", "114021.154000", "114021.157000", "114021.159000", "114021.162000", "114021.165000", "114021.168000", "114021.171000", "114021.174000", "114021.177000", "114021.179000", "114101.104000", "114101.107000", "114101.110000", "114101.113000", "114101.116000", "114101.118000", "114101.121000", "114101.124000", "114101.127000", "114101.130000", "114101.133000", "114101.135000", "114101.138000", "114101.141000", "114101.144000", "114101.147000", "114101.156000", "114101.158000", "114101.161000", "114101.164000", "114101.167000", "114101.170000", "114101.173000", "114101.176000", "114101.179000", "114101.181000", "114101.184000", "114141.104000", "114141.107000", "114141.110000", "114141.113000", "114141.116000", "114141.119000", "114141.122000", "114141.125000", "114141.127000", "114141.131000", "114141.134000", "114141.137000", "114141.140000", "114141.143000", "114141.146000", "114141.159000", "114141.162000", "114141.165000", "114141.167000", "114141.170000", "114141.173000", "114141.176000", "114141.179000", "114141.182000", "114141.185000", "114141.187000", "114221.105000", "114221.108000", "114221.111000", "114221.114000", "114221.117000", "114221.120000", "114221.123000", "114221.125000", "114221.128000", "114221.131000", "114221.134000", "114221.137000", "114221.140000", "114221.143000", "114221.145000", "114221.148000", "114221.151000", "114221.154000", "114221.157000", "114221.160000", "114221.162000", "114221.165000", "114221.168000", "114221.171000", "114221.174000", "114221.177000", "114221.180000", "114240.779000", "114240.890000", "114240.893000", "114240.896000", "114240.898000", "114240.901000", "114240.904000", "114240.907000", "114240.910000", "114240.913000", "114240.916000", "114240.918000", "114240.921000", "114240.924000"],
