{
  "AcquisitionMatrixPE": 104,
  "AcquisitionNumber": 1,
  "AcquisitionTime": "17:56:1.145000",
  "BandwidthPerPixelPhaseEncode": 17.17,
  "BaseResolution": 104,
  "BodyPartExamined": "BRAIN",
  "CoilCombinationMethod": "Sum of Squares",
  "ConsistencyInfo": "N4_VE11C_LATEST_20160120",
  "ConversionSoftware": "dcm2niix",
  "ConversionSoftwareVersion": "v1.0.20211006",
  "DerivedVendorReportedEchoSpacing": 0.000560011,
  "DeviceSerialNumber": "167006",
  "DwellTime": 2.1e-06,
  "EchoTime": 0.037,
  "EchoTrainLength": 104,
  "EffectiveEchoSpacing": 0.000560011,
  "FlipAngle": 52,
  "HeudiconvVersion": "0.11.3.post9+gc939bf8",
  "ImageComments": "Unaliased MB4/PE3/LB",
  "ImageOrientationPatientDICOM": [0.995545, 0.09323, 0.0140895, -0.0825485, 0.934011, -0.347576],
  "ImageOrientationText": "Tra>Cor(-20.2)>Sag(2.6)",
  "ImageType": [
    "ORIGINAL",
    "PRIMARY",
    "M",
    "MB",
    "ND",
    "MOSAIC"
],
  "ImagingFrequency": 123.259,
  "InPlanePhaseEncodingDirectionDICOM": "COL",
  "InstitutionAddress": "Chemin Queen-Mary 4565,Montreal,District,CA,H3W 1W5",
  "InstitutionName": "IUGM",
  "InstitutionalDepartmentName": "Department",
  "MRAcquisitionType": "2D",
  "MagneticFieldStrength": 3,
  "Manufacturer": "Siemens",
  "ManufacturersModelName": "Prisma_fit",
  "MatrixCoilMode": "SENSE",
  "Modality": "MR",
  "MultibandAccelerationFactor": 4,
  "PartialFourier": 1,
  "PatientPosition": "HFS",
  "PercentPhaseFOV": 100,
  "PercentSampling": 100,
  "PhaseEncodingDirection": "j",
  "PhaseEncodingSteps": 104,
  "PhaseResolution": 1,
  "PixelBandwidth": 2290,
  "ProcedureStepDescription": "video^friends",
  "ProtocolName": "func_task-friends-s06e18a",
  "PulseSequenceDetails": "%CustomerSeq%\\cmrr_mbep2d_bold",
  "ReceiveCoilActiveElements": "HC1-7;NC1,2",
  "ReceiveCoilName": "HeadNeck_64",
  "ReconMatrixPE": 104,
  "RepetitionTime": 1.49,
  "SAR": 0.0444155,
  "ScanOptions": "FS",
  "ScanningSequence": "EP",
  "SequenceName": "epfid2d1_104",
  "SequenceVariant": "SK\\SS",
  "SeriesDescription": "func_task-friends-s06e18a",
  "SeriesNumber": 12,
  "ShimSetting": [638, -7199, -8792, 680, 117, -13, -17, 0],
  "SliceThickness": 2,
  "SliceTiming": [0, 0.7825, 0.0975, 0.88, 0.195, 0.98, 0.2925, 1.0775, 0.3925, 1.175, 0.49, 1.2725, 0.5875, 1.37, 0.685, 0, 0.7825, 0.0975, 0.88, 0.195, 0.98, 0.2925, 1.0775, 0.3925, 1.175, 0.49, 1.2725, 0.5875, 1.37, 0.685, 0, 0.7825, 0.0975, 0.88, 0.195, 0.98, 0.2925, 1.0775, 0.3925, 1.175, 0.49, 1.2725, 0.5875, 1.37, 0.685, 0, 0.7825, 0.0975, 0.88, 0.195, 0.98, 0.2925, 1.0775, 0.3925, 1.175, 0.49, 1.2725, 0.5875, 1.37, 0.685],
  "SoftwareVersions": "syngo MR E11",
  "SpacingBetweenSlices": 2,
  "StationName": "MRC35049",
  "TaskName": "s06e18a",
  "TotalReadoutTime": 0.0576811,
  "TxRefAmp": 246.942,
  "WipMemBlock": "7e87839a-bc5f-4963-a455-fb4887aa9198||Sequence: R017 ve11c/master r/75a17815+; Jun 28 2022 16:32:11 by eja",
  "dcmmeta_affine": [
    [-1.9910898208618164, -0.1650969684123993, 0.09112857282161713, 108.3935775756836],
    [-0.18646009266376495, 1.8680223226547241, -0.6897284388542175, -60.36752700805664],
    [0.028179064393043518, 0.6951515078544617, 1.8750921487808228, -58.97623825073242],
    [0.0, 0.0, 0.0, 1.0]
],
  "dcmmeta_reorient_transform": [
    [0.0, -1.0, 0.0, 103.0],
    [1.0, 0.0, 0.0, 0.0],
    [0.0, 0.0, 1.0, 0.0],
    [0.0, 0.0, 0.0, 1.0]
],
  "dcmmeta_shape": [104, 104, 60, 435],
  "dcmmeta_slice_dim": 2,
  "dcmmeta_version": 0.6,
  "global": {
    "const": {
      "AcquisitionMatrix": [104, 0, 0, 104],
      "AngioFlag": "N",
      "BitsAllocated": 16,
      "BitsStored": 16,
      "BodyPartExamined": "BRAIN",
      "Columns": 832,
      "EchoNumbers": 1,
      "EchoTime": 37.0,
      "EchoTrainLength": 104,
      "FlipAngle": 52.0,
      "HighBit": 15,
      "ImageOrientationPatient": [0.99554489797313, 0.09323004455553, 0.01408953199517, -0.0825484833685, 0.93401115251554, -0.3475757685313],
      "ImagePositionPatient": [-756.04998313186, -879.87036253235, 255.40234986926],
      "ImageType": [
        "ORIGINAL",
        "PRIMARY",
        "M",
        "MB",
        "ND",
        "MOSAIC"
],
      "ImagedNucleus": "1H",
      "ImagingFrequency": 123.258784,
      "InPlanePhaseEncodingDirection": "COL",
      "MRAcquisitionType": "2D",
      "MagneticFieldStrength": 3.0,
      "Manufacturer": "SIEMENS",
      "ManufacturerModelName": "Prisma_fit",
      "Modality": "MR",
      "NumberOfAverages": 1.0,
      "NumberOfPhaseEncodingSteps": 104,
      "PercentPhaseFieldOfView": 100.0,
      "PercentSampling": 100.0,
      "PerformedProcedureStepStartTime": "173559.363000",
      "PhotometricInterpretation": "MONOCHROME2",
      "PixelBandwidth": 2290.0,
      "PixelRepresentation": 0,
      "PixelSpacing": [2.0, 2.0],
      "ProtocolName": "func_task-friends-s06e18a",
      "RepetitionTime": 1490.0,
      "Rows": 832,
      "SAR": 0.04441545781975,
      "SamplesPerPixel": 1,
      "ScanOptions": "FS",
      "ScanningSequence": "EP",
      "SequenceName": "epfid2d1_104",
      "SequenceVariant": [
        "SK",
        "SS"
],
      "SeriesDescription": "func_task-friends-s06e18a",
      "SeriesNumber": 12,
      "SeriesTime": "175719.188000",
      "SliceLocation": -29.535463335344,
      "SliceThickness": 2.0,
      "SmallestImagePixelValue": 0,
      "SoftwareVersions": "syngo MR E11",
      "SpacingBetweenSlices": 2.0000000287878,
      "SpecificCharacterSet": "ISO_IR 100",
      "StudyID": "1",
      "StudyTime": "173559.278000",
      "TransmitCoilName": "Body",
      "VariableFlipAngleFlag": "N",
      "WindowCenterWidthExplanation": "Algo1",
      "dBdt": 0.0},
    "slices": {}
  },
  "time": {
    "samples": {
      "AcquisitionNumber": [1, 2, 3, 4, 5, 6, 7, 8, 9, 10, 11, 12, 13, 14, 15, 16, 17, 18, 19, 20, 21, 22, 23, 24, 25, 26, 27, 28, 29, 30, 31, 32, 33, 34, 35, 36, 37, 38, 39, 40, 41, 42, 43, 44, 45, 46, 47, 48, 49, 50, 51, 52, 53, 54, 55, 56, 57, 58, 59, 60, 61, 62, 63, 64, 65, 66, 67, 68, 69, 70, 71, 72, 73, 74, 75, 76, 77, 78, 79, 80, 81, 82, 83, 84, 85, 86, 87, 88, 89, 90, 91, 92, 93, 94, 95, 96, 97, 98, 99, 100, 101, 102, 103, 104, 105, 106, 107, 108, 109, 110, 111, 112, 113, 114, 115, 116, 117, 118, 119, 120, 121, 122, 123, 124, 125, 126, 127, 128, 129, 130, 131, 132, 133, 134, 135, 136, 137, 138, 139, 140, 141, 142, 143, 144, 145, 146, 147, 148, 149, 150, 151, 152, 153, 154, 155, 156, 157, 158, 159, 160, 161, 162, 163, 164, 165, 166, 167, 168, 169, 170, 171, 172, 173, 174, 175, 176, 177, 178, 179, 180, 181, 182, 183, 184, 185, 186, 187, 188, 189, 190, 191, 192, 193, 194, 195, 196, 197, 198, 199, 200, 201, 202, 203, 204, 205, 206, 207, 208, 209, 210, 211, 212, 213, 214, 215, 216, 217, 218, 219, 220, 221, 222, 223, 224, 225, 226, 227, 228, 229, 230, 231, 232, 233, 234, 235, 236, 237, 238, 239, 240, 241, 242, 243, 244, 245, 246, 247, 248, 249, 250, 251, 252, 253, 254, 255, 256, 257, 258, 259, 260, 261, 262, 263, 264, 265, 266, 267, 268, 269, 270, 271, 272, 273, 274, 275, 276, 277, 278, 279, 280, 281, 282, 283, 284, 285, 286, 287, 288, 289, 290, 291, 292, 293, 294, 295, 296, 297, 298, 299, 300, 301, 302, 303, 304, 305, 306, 307, 308, 309, 310, 311, 312, 313, 314, 315, 316, 317, 318, 319, 320, 321, 322, 323, 324, 325, 326, 327, 328, 329, 330, 331, 332, 333, 334, 335, 336, 337, 338, 339, 340, 341, 342, 343, 344, 345, 346, 347, 348, 349, 350, 351, 352, 353, 354, 355, 356, 357, 358, 359, 360, 361, 362, 363, 364, 365, 366, 367, 368, 369, 370, 371, 372, 373, 374, 375, 376, 377, 378, 379, 380, 381, 382, 383, 384, 385, 386, 387, 388, 389, 390, 391, 392, 393, 394, 395, 396, 397, 398, 399, 400, 401, 402, 403, 404, 405, 406, 407, 408, 409, 410, 411, 412, 413, 414, 415, 416, 417, 418, 419, 420, 421, 422, 423, 424, 425, 426, 427, 428, 429, 430, 431, 432, 433, 434, 435],
      "AcquisitionTime": ["175601.145000", "175602.635000", "175604.125000", "175605.615000", "175607.105000", "175608.595000", "175610.085000", "175611.575000", "175613.065000", "175614.555000", "175616.045000", "175617.535000", "175619.025000", "175620.515000", "175622.005000", "175623.495000", "175624.985000", "175626.475000", "175627.965000", "175629.455000", "175630.945000", "175632.435000", "175633.925000", "175635.415000", "175636.905000", "175638.395000", "175639.885000", "175641.375000", "175642.865000", "175644.355000", "175645.845000", "175647.335000", "175648.825000", "175650.315000", "175651.805000", "175653.295000", "175654.785000", "175656.275000", "175657.765000", "175659.255000", "175700.745000", "175702.235000", "175703.725000", "175705.215000", "175706.705000", "175708.195000", "175709.685000", "175711.175000", "175712.665000", "175714.155000", "175715.645000", "175717.135000", "175718.625000", "175720.115000", "175721.605000", "175723.095000", "175724.585000", "175726.075000", "175727.565000", "175729.055000", "175730.545000", "175732.035000", "175733.525000", "175735.015000", "175736.505000", "175737.995000", "175739.485000", "175740.975000", "175742.465000", "175743.955000", "175745.445000", "175746.935000", "175748.425000", "175749.915000", "175751.405000", "175752.895000", "175754.385000", "175755.875000", "175757.365000", "175758.855000", "175800.345000", "175801.835000", "175803.325000", "175804.815000", "175806.305000", "175807.795000", "175809.285000", "175810.775000", "175812.265000", "175813.755000", "175815.245000", "175816.735000", "175818.225000", "175819.715000", "175821.205000", "175822.695000", "175824.185000", "175825.675000", "175827.165000", "175828.655000", "175830.145000", "175831.635000", "175833.125000", "175834.615000", "175836.105000", "175837.595000", "175839.085000", "175840.575000", "175842.065000", "175843.555000", "175845.045000", "175846.535000", "175848.025000", "175849.515000", "175851.005000", "175852.495000", "175853.985000", "175855.475000", "175856.965000", "175858.455000", "175859.945000", "175901.435000", "175902.925000", "175904.415000", "175905.905000", "175907.395000", "175908.885000", "175910.375000", "175911.865000", "175913.355000", "175914.845000", "175916.335000", "175917.825000", "175919.315000", "175920.805000", "175922.295000", "175923.785000", "175925.275000", "175926.765000", "175928.255000", "175929.745000", "175931.235000", "175932.725000", "175934.215000", "175935.705000", "175937.195000", "175938.685000", "175940.175000", "175941.665000", "175943.155000", "175944.645000", "175946.135000", "175947.625000", "175949.115000", "175950.605000", "175952.095000", "175953.585000", "175955.075000", "175956.565000", "175958.055000", "175959.545000", "180001.035000", "180002.525000", "180004.015000", "180005.505000", "180006.995000", "180008.485000", "180009.975000", "180011.465000", "180012.955000", "180014.445000", "180015.935000", "180017.425000", "180018.915000", "180020.405000", "180021.895000", "180023.385000", "180024.875000", "180026.365000", "180027.855000", "180029.345000", "180030.835000", "180032.325000", "180033.815000", "180035.305000", "180036.795000", "180038.285000", "180039.775000", "180041.265000", "180042.755000", "180044.245000", "180045.735000", "180047.225000", "180048.715000", "180050.205000", "180051.695000", "180053.185000", "180054.675000", "180056.165000", "180057.655000", "180059.145000", "180100.635000", "180102.125000", "180103.615000", "180105.105000", "180106.595000", "180108.085000", "180109.575000", "180111.065000", "180112.555000", "180114.045000", "180115.535000", "180117.025000", "180118.515000", "180120.005000", "180121.495000", "180122.985000", "180124.475000", "180125.965000", "180127.455000", "180128.945000", "180130.435000", "180131.925000", "180133.415000", "180134.905000", "180136.395000", "180137.885000", "180139.375000", "180140.865000", "180142.355000", "180143.845000", "180145.335000", "180146.825000", "180148.315000", "180149.805000", "180151.295000", "180152.785000", "180154.275000", "180155.765000", "180157.255000", "180158.745000", "180200.235000", "180201.725000", "180203.215000", "180204.705000", "180206.195000", "180207.685000", "180209.175000", "180210.665000", "180212.155000", "180213.645000", "180215.135000", "180216.625000", "180218.115000", "180219.605000", "180221.095000", "180222.585000", "180224.075000", "180225.565000", "180227.055000", "180228.545000", "180230.035000", "180231.525000", "180233.015000", "180234.505000", "180235.995000", "180237.485000", "180238.975000", "180240.465000", "180241.955000", "180243.445000", "180244.935000", "180246.425000", "180247.915000", "180249.405000", "180250.895000", "180252.385000", "180253.875000", "180255.365000", "180256.855000", "180258.345000", "180259.835000", "180301.325000", "180302.815000", "180304.305000", "180305.795000", "180307.285000", "180308.775000", "180310.265000", "180311.755000", "180313.245000", "180314.735000", "180316.225000", "180317.715000", "180319.205000", "180320.695000", "180322.185000", "180323.675000", "180325.165000", "180326.655000", "180328.145000", "180329.635000", "180331.125000", "180332.615000", "180334.105000", "180335.595000", "180337.085000", "180338.575000", "180340.065000", "180341.555000", "180343.045000", "180344.535000", "180346.025000", "180347.515000", "180349.005000", "180350.495000", "180351.985000", "180353.475000", "180354.965000", "180356.455000", "180357.945000", "180359.435000", "180400.925000", "180402.415000", "180403.905000", "180405.395000", "180406.885000", "180408.375000", "180409.865000", "180411.355000", "180412.845000", "180414.335000", "180415.825000", "180417.315000", "180418.805000", "180420.295000", "180421.785000", "180423.275000", "180424.765000", "180426.255000", "180427.745000", "180429.235000", "180430.725000", "180432.215000", "180433.705000", "180435.195000", "180436.685000", "180438.175000", "180439.665000", "180441.155000", "180442.645000", "180444.135000", "180445.625000", "180447.115000", "180448.605000", "180450.095000", "180451.585000", "180453.075000", "180454.565000", "180456.055000", "180457.545000", "180459.035000", "180500.525000", "180502.015000", "180503.505000", "180504.995000", "180506.485000", "180507.975000", "180509.465000", "180510.955000", "180512.445000", "180513.935000", "180515.425000", "180516.915000", "180518.405000", "180519.895000", "180521.385000", "180522.875000", "180524.365000", "180525.855000", "180527.345000", "180528.835000", "180530.325000", "180531.815000", "180533.305000", "180534.795000", "180536.285000", "180537.775000", "180539.265000", "180540.755000", "180542.245000", "180543.735000", "180545.225000", "180546.715000", "180548.205000", "180549.695000", "180551.185000", "180552.675000", "180554.165000", "180555.655000", "180557.145000", "180558.635000", "180600.125000", "180601.615000", "180603.105000", "180604.595000", "180606.085000", "180607.575000", "180609.065000", "180610.555000", "180612.045000", "180613.535000", "180615.025000", "180616.515000", "180618.005000", "180619.495000", "180620.985000", "180622.475000", "180623.965000", "180625.455000", "180626.945000", "180628.435000", "180629.925000", "180631.415000", "180632.905000", "180634.395000", "180635.885000", "180637.375000", "180638.865000", "180640.355000", "180641.845000", "180643.335000", "180644.825000", "180646.315000", "180647.805000"],
      "ContentTime": ["175719.190000", "175719.194000", "175719.197000", "175719.200000", "175719.202000", "175719.205000", "175719.212000", "175719.214000", "175719.217000", "175719.220000", "175719.223000", "175719.226000", "175719.229000", "175719.231000", "175719.234000", "175719.237000", "175719.240000", "175719.243000", "175719.245000", "175719.248000", "175719.251000", "175719.254000", "175719.267000", "175719.269000", "175719.272000", "175719.275000", "175719.278000", "175719.281000", "175719.284000", "175739.164000", "175739.167000", "175739.170000", "175739.173000", "175739.175000", "175739.178000", "175739.181000", "175739.184000", "175739.187000", "175739.189000", "175739.192000", "175739.195000", "175739.198000", "175739.201000", "175739.203000", "175739.206000", "175739.209000", "175739.212000", "175739.215000", "175739.218000", "175759.164000", "175759.167000", "175759.170000", "175759.172000", "175759.175000", "175759.178000", "175759.181000", "175759.184000", "175759.186000", "175759.189000", "175759.192000", "175759.195000", "175759.198000", "175759.200000", "175759.213000", "175759.216000", "175759.219000", "175759.222000", "175759.225000", "175759.228000", "175819.164000", "175819.167000", "175819.170000", "175819.173000", "175819.175000", "175819.178000", "175819.181000", "175819.184000", "175819.187000", "175819.190000", "175819.193000", "175819.196000", "175819.199000", "175819.202000", "175819.205000", "175819.208000", "175819.210000", "175819.213000", "175819.216000", "175819.219000", "175859.164000", "175859.167000", "175859.170000", "175859.173000", "175859.175000", "175859.178000", "175859.181000", "175859.184000", "175859.186000", "175859.189000", "175859.192000", "175859.205000", "175859.208000", "175859.211000", "175859.214000", "175859.216000", "175859.219000", "175859.222000", "175859.225000", "175859.228000", "175859.231000", "175859.233000", "175859.236000", "175859.239000", "175859.242000", "175859.245000", "175859.247000", "175859.250000", "175859.253000", "175859.256000", "175939.163000", "175939.166000", "175939.169000", "175939.172000", "175939.175000", "175939.177000", "175939.180000", "175939.183000", "175939.186000", "175939.189000", "175939.192000", "175939.194000", "175939.197000", "175939.201000", "175939.205000", "175939.208000", "175939.210000", "175939.213000", "175939.216000", "175939.219000", "175939.222000", "175939.225000", "175939.227000", "175939.230000", "175939.233000", "175939.236000", "180019.164000", "180019.167000", "180019.170000", "180019.173000", "180019.175000", "180019.178000", "180019.181000", "180019.184000", "180019.187000", "180019.190000", "180019.192000", "180019.195000", "180019.198000", "180019.201000", "180019.204000", "180019.207000", "180019.209000", "180019.212000", "180019.215000", "180019.218000", "180019.221000", "180019.224000", "180019.227000", "180019.229000", "180019.232000", "180019.235000", "180019.238000", "180059.164000", "180059.167000", "180059.170000", "180059.178000", "180059.181000", "180059.184000", "180059.187000", "180059.190000", "180059.192000", "180059.195000", "180059.198000", "180059.201000", "180059.204000", "180059.207000", "180059.209000", "180059.218000", "180059.221000", "180059.224000", "180059.227000", "180059.230000", "180059.233000", "180059.236000", "180059.239000", "180059.242000", "180059.244000", "180059.247000", "180059.250000", "180139.164000", "180139.167000", "180139.170000", "180139.173000", "180139.175000", "180139.178000", "180139.181000", "180139.184000", "180139.187000", "180139.190000", "180139.192000", "180139.195000", "180139.198000", "180139.201000", "180139.204000", "180139.206000", "180139.209000", "180139.212000", "180139.215000", "180139.218000", "180139.221000", "180139.223000", "180139.226000", "180139.229000", "180139.239000", "180139.242000", "180139.245000", "180219.164000", "180219.167000", "180219.170000", "180219.173000", "180219.176000", "180219.179000", "180219.181000", "180219.184000", "180219.187000", "180219.190000", "180219.193000", "180219.196000", "180219.198000", "180219.201000", "180219.204000", "180219.207000", "180219.210000", "180219.213000", "180219.221000", "180219.223000", "180219.226000", "180219.229000", "180219.232000", "180219.235000", "180219.238000", "180219.240000", "180219.243000", "180259.164000", "180259.167000", "180259.170000", "180259.173000", "180259.175000", "180259.178000", "180259.188000", "180259.191000", "180259.194000", "180259.197000", "180259.199000", "180259.202000", "180259.205000", "180259.208000", "180259.211000", "180259.214000", "180259.217000", "180259.219000", "180259.222000", "180259.225000", "180259.228000", "180259.231000", "180259.234000", "180259.236000", "180259.239000", "180259.242000", "180259.245000", "180339.164000", "180339.167000", "180339.170000", "180339.173000", "180339.176000", "180339.178000", "180339.181000", "180339.184000", "180339.187000", "180339.190000", "180339.193000", "180339.195000", "180339.198000", "180339.201000", "180339.204000", "180339.207000", "180339.210000", "180339.213000", "180339.216000", "180339.219000", "180339.222000", "180339.225000", "180339.228000", "180339.231000", "180339.234000", "180339.237000", "180419.163000", "180419.166000", "180419.169000", "180419.172000", "180419.175000", "180419.177000", "180419.180000", "180419.183000", "180419.186000", "180419.189000", "180419.192000", "180419.195000", "180419.197000", "180419.200000", "180419.203000", "180419.206000", "180419.209000", "180419.212000", "180419.214000", "180419.217000", "180419.220000", "180419.223000", "180419.226000", "180419.229000", "180419.232000", "180419.243000", "180419.246000", "180459.164000", "180459.167000", "180459.170000", "180459.173000", "180459.176000", "180459.179000", "180459.181000", "180459.184000", "180459.187000", "180459.190000", "180459.193000", "180459.196000", "180459.198000", "180459.201000", "180459.204000", "180459.207000", "180459.210000", "180459.213000", "180459.216000", "180459.218000", "180459.221000", "180459.224000", "180459.227000", "180459.230000", "180459.233000", "180459.235000", "180459.246000", "180539.164000", "180539.167000", "180539.170000", "180539.173000", "180539.175000", "180539.178000", "180539.181000", "180539.184000", "180539.187000", "180539.190000", "180539.192000", "180539.195000", "180539.198000", "180539.201000", "180539.204000", "180539.217000", "180539.220000", "180539.223000", "180539.225000", "180539.228000", "180539.231000", "180539.234000", "180539.237000", "180539.240000", "180539.242000", "180539.245000", "180539.248000", "180619.164000", "180619.167000", "180619.170000", "180619.173000", "180619.176000", "180619.179000", "180619.181000", "180619.184000", "180619.187000", "180619.190000", "180619.193000", "180619.196000", "180619.199000", "180619.201000", "180619.204000", "180619.207000", "180619.210000", "180619.213000", "180619.216000", "180619.219000", "180619.222000", "180619.224000", "180619.227000", "180619.230000", "180619.233000", "180619.236000", "180619.239000", "180649.986000", "180649.989000", "180649.992000", "180649.995000", "180649.998000", "180650.002000", "180650.005000", "180650.008000", "180650.011000", "180650.014000", "180650.017000", "180650.020000", "180650.023000", "180650.026000", "180650.029000", "180650.032000", "180650.035000", "180650.038000", "180650.041000", "180650.044000", "180650.047000"],
