{
  "AcquisitionMatrixPE": 104,
  "AcquisitionNumber": 1,
  "AcquisitionTime": "18:25:25.530000",
  "BandwidthPerPixelPhaseEncode": 17.17,
  "BaseResolution": 104,
  "BodyPartExamined": "BRAIN",
  "CoilCombinationMethod": "Sum of Squares",
  "ConsistencyInfo": "N4_VE11C_LATEST_20160120",
  "ConversionSoftware": "dcm2niix",
  "ConversionSoftwareVersion": "v1.0.20211006",
  "DerivedVendorReportedEchoSpacing": 0.000560011,
  "DeviceSerialNumber": "167006",
  "DwellTime": 2.1e-06,
  "EchoTime": 0.037,
  "EchoTrainLength": 104,
  "EffectiveEchoSpacing": 0.000560011,
  "FlipAngle": 52,
  "HeudiconvVersion": "0.11.3.post9+gc939bf8",
  "ImageComments": "Unaliased MB4/PE3/LB",
  "ImageOrientationPatientDICOM": [0.995545, 0.09323, 0.0140895, -0.0825485, 0.934011, -0.347576],
  "ImageOrientationText": "Tra>Cor(-20.2)>Sag(2.6)",
  "ImageType": [
    "ORIGINAL",
    "PRIMARY",
    "M",
    "MB",
    "ND",
    "MOSAIC"
],
  "ImagingFrequency": 123.259,
  "InPlanePhaseEncodingDirectionDICOM": "COL",
  "InstitutionAddress": "Chemin Queen-Mary 4565,Montreal,District,CA,H3W 1W5",
  "InstitutionName": "IUGM",
  "InstitutionalDepartmentName": "Department",
  "MRAcquisitionType": "2D",
  "MagneticFieldStrength": 3,
  "Manufacturer": "Siemens",
  "ManufacturersModelName": "Prisma_fit",
  "MatrixCoilMode": "SENSE",
  "Modality": "MR",
  "MultibandAccelerationFactor": 4,
  "PartialFourier": 1,
  "PatientPosition": "HFS",
  "PercentPhaseFOV": 100,
  "PercentSampling": 100,
  "PhaseEncodingDirection": "j",
  "PhaseEncodingSteps": 104,
  "PhaseResolution": 1,
  "PixelBandwidth": 2290,
  "ProcedureStepDescription": "video^friends",
  "ProtocolName": "func_task-friends-s06e19a",
  "PulseSequenceDetails": "%CustomerSeq%\\cmrr_mbep2d_bold",
  "ReceiveCoilActiveElements": "HC1-7;NC1,2",
  "ReceiveCoilName": "HeadNeck_64",
  "ReconMatrixPE": 104,
  "RepetitionTime": 1.49,
  "SAR": 0.0444155,
  "ScanOptions": "FS",
  "ScanningSequence": "EP",
  "SequenceName": "epfid2d1_104",
  "SequenceVariant": "SK\\SS",
  "SeriesDescription": "func_task-friends-s06e19a",
  "SeriesNumber": 18,
  "ShimSetting": [638, -7199, -8792, 680, 117, -13, -17, 0],
  "SliceThickness": 2,
  "SliceTiming": [0, 0.785, 0.0975, 0.8825, 0.195, 0.98, 0.295, 1.0775, 0.3925, 1.175, 0.49, 1.275, 0.5875, 1.3725, 0.685, 0, 0.785, 0.0975, 0.8825, 0.195, 0.98, 0.295, 1.0775, 0.3925, 1.175, 0.49, 1.275, 0.5875, 1.3725, 0.685, 0, 0.785, 0.0975, 0.8825, 0.195, 0.98, 0.295, 1.0775, 0.3925, 1.175, 0.49, 1.275, 0.5875, 1.3725, 0.685, 0, 0.785, 0.0975, 0.8825, 0.195, 0.98, 0.295, 1.0775, 0.3925, 1.175, 0.49, 1.275, 0.5875, 1.3725, 0.685],
  "SoftwareVersions": "syngo MR E11",
  "SpacingBetweenSlices": 2,
  "StationName": "MRC35049",
  "TaskName": "s06e19a",
  "TotalReadoutTime": 0.0576811,
  "TxRefAmp": 246.942,
  "WipMemBlock": "692e36b9-ab3b-4155-9b39-1693eeaad62d||Sequence: R017 ve11c/master r/75a17815+; Jun 28 2022 16:32:11 by eja",
  "dcmmeta_affine": [
    [-1.9910898208618164, -0.1650969684123993, 0.09112857282161713, 108.3935775756836],
    [-0.18646009266376495, 1.8680223226547241, -0.6897284388542175, -60.36752700805664],
    [0.028179064393043518, 0.6951515078544617, 1.8750921487808228, -58.97623825073242],
    [0.0, 0.0, 0.0, 1.0]
],
  "dcmmeta_reorient_transform": [
    [0.0, -1.0, 0.0, 103.0],
    [1.0, 0.0, 0.0, 0.0],
    [0.0, 0.0, 1.0, 0.0],
    [0.0, 0.0, 0.0, 1.0]
],
  "dcmmeta_shape": [104, 104, 60, 434],
  "dcmmeta_slice_dim": 2,
  "dcmmeta_version": 0.6,
  "global": {
    "const": {
      "AcquisitionMatrix": [104, 0, 0, 104],
      "AngioFlag": "N",
      "BitsAllocated": 16,
      "BitsStored": 16,
      "BodyPartExamined": "BRAIN",
      "Columns": 832,
      "EchoNumbers": 1,
      "EchoTime": 37.0,
      "EchoTrainLength": 104,
      "FlipAngle": 52.0,
      "HighBit": 15,
      "ImageOrientationPatient": [0.99554489797313, 0.09323004455553, 0.01408953199517, -0.0825484833685, 0.93401115251554, -0.3475757685313],
      "ImagePositionPatient": [-756.04998313186, -879.87036253235, 255.40234986926],
      "ImageType": [
        "ORIGINAL",
        "PRIMARY",
        "M",
        "MB",
        "ND",
        "MOSAIC"
],
      "ImagedNucleus": "1H",
      "ImagingFrequency": 123.258801,
      "InPlanePhaseEncodingDirection": "COL",
      "MRAcquisitionType": "2D",
      "MagneticFieldStrength": 3.0,
      "Manufacturer": "SIEMENS",
      "ManufacturerModelName": "Prisma_fit",
      "Modality": "MR",
      "NumberOfAverages": 1.0,
      "NumberOfPhaseEncodingSteps": 104,
      "PercentPhaseFieldOfView": 100.0,
      "PercentSampling": 100.0,
      "PerformedProcedureStepStartTime": "173559.363000",
      "PhotometricInterpretation": "MONOCHROME2",
      "PixelBandwidth": 2290.0,
      "PixelRepresentation": 0,
      "PixelSpacing": [2.0, 2.0],
      "ProtocolName": "func_task-friends-s06e19a",
      "RepetitionTime": 1490.0,
      "Rows": 832,
      "SAR": 0.04441545855955,
      "SamplesPerPixel": 1,
      "ScanOptions": "FS",
      "ScanningSequence": "EP",
      "SequenceName": "epfid2d1_104",
      "SequenceVariant": [
        "SK",
        "SS"
],
      "SeriesDescription": "func_task-friends-s06e19a",
      "SeriesNumber": 18,
      "SeriesTime": "182639.191000",
      "SliceLocation": -29.535463335344,
      "SliceThickness": 2.0,
      "SmallestImagePixelValue": 0,
      "SoftwareVersions": "syngo MR E11",
      "SpacingBetweenSlices": 2.0000000287878,
      "SpecificCharacterSet": "ISO_IR 100",
      "StudyID": "1",
      "StudyTime": "173559.278000",
      "TransmitCoilName": "Body",
      "VariableFlipAngleFlag": "N",
      "WindowCenterWidthExplanation": "Algo1",
      "dBdt": 0.0},
    "slices": {}
  },
  "time": {
    "samples": {
      "AcquisitionNumber": [1, 2, 3, 4, 5, 6, 7, 8, 9, 10, 11, 12, 13, 14, 15, 16, 17, 18, 19, 20, 21, 22, 23, 24, 25, 26, 27, 28, 29, 30, 31, 32, 33, 34, 35, 36, 37, 38, 39, 40, 41, 42, 43, 44, 45, 46, 47, 48, 49, 50, 51, 52, 53, 54, 55, 56, 57, 58, 59, 60, 61, 62, 63, 64, 65, 66, 67, 68, 69, 70, 71, 72, 73, 74, 75, 76, 77, 78, 79, 80, 81, 82, 83, 84, 85, 86, 87, 88, 89, 90, 91, 92, 93, 94, 95, 96, 97, 98, 99, 100, 101, 102, 103, 104, 105, 106, 107, 108, 109, 110, 111, 112, 113, 114, 115, 116, 117, 118, 119, 120, 121, 122, 123, 124, 125, 126, 127, 128, 129, 130, 131, 132, 133, 134, 135, 136, 137, 138, 139, 140, 141, 142, 143, 144, 145, 146, 147, 148, 149, 150, 151, 152, 153, 154, 155, 156, 157, 158, 159, 160, 161, 162, 163, 164, 165, 166, 167, 168, 169, 170, 171, 172, 173, 174, 175, 176, 177, 178, 179, 180, 181, 182, 183, 184, 185, 186, 187, 188, 189, 190, 191, 192, 193, 194, 195, 196, 197, 198, 199, 200, 201, 202, 203, 204, 205, 206, 207, 208, 209, 210, 211, 212, 213, 214, 215, 216, 217, 218, 219, 220, 221, 222, 223, 224, 225, 226, 227, 228, 229, 230, 231, 232, 233, 234, 235, 236, 237, 238, 239, 240, 241, 242, 243, 244, 245, 246, 247, 248, 249, 250, 251, 252, 253, 254, 255, 256, 257, 258, 259, 260, 261, 262, 263, 264, 265, 266, 267, 268, 269, 270, 271, 272, 273, 274, 275, 276, 277, 278, 279, 280, 281, 282, 283, 284, 285, 286, 287, 288, 289, 290, 291, 292, 293, 294, 295, 296, 297, 298, 299, 300, 301, 302, 303, 304, 305, 306, 307, 308, 309, 310, 311, 312, 313, 314, 315, 316, 317, 318, 319, 320, 321, 322, 323, 324, 325, 326, 327, 328, 329, 330, 331, 332, 333, 334, 335, 336, 337, 338, 339, 340, 341, 342, 343, 344, 345, 346, 347, 348, 349, 350, 351, 352, 353, 354, 355, 356, 357, 358, 359, 360, 361, 362, 363, 364, 365, 366, 367, 368, 369, 370, 371, 372, 373, 374, 375, 376, 377, 378, 379, 380, 381, 382, 383, 384, 385, 386, 387, 388, 389, 390, 391, 392, 393, 394, 395, 396, 397, 398, 399, 400, 401, 402, 403, 404, 405, 406, 407, 408, 409, 410, 411, 412, 413, 414, 415, 416, 417, 418, 419, 420, 421, 422, 423, 424, 425, 426, 427, 428, 429, 430, 431, 432, 433, 434],
      "AcquisitionTime": ["182525.530000", "182527.020000", "182528.510000", "182530.000000", "182531.490000", "182532.980000", "182534.470000", "182535.960000", "182537.450000", "182538.940000", "182540.430000", "182541.920000", "182543.410000", "182544.900000", "182546.390000", "182547.880000", "182549.370000", "182550.860000", "182552.350000", "182553.840000", "182555.330000", "182556.820000", "182558.310000", "182559.800000", "182601.290000", "182602.780000", "182604.270000", "182605.760000", "182607.250000", "182608.740000", "182610.230000", "182611.720000", "182613.210000", "182614.700000", "182616.190000", "182617.680000", "182619.170000", "182620.660000", "182622.150000", "182623.640000", "182625.130000", "182626.620000", "182628.110000", "182629.600000", "182631.090000", "182632.580000", "182634.070000", "182635.560000", "182637.050000", "182638.540000", "182640.030000", "182641.520000", "182643.010000", "182644.500000", "182645.990000", "182647.480000", "182648.970000", "182650.460000", "182651.950000", "182653.440000", "182654.930000", "182656.420000", "182657.910000", "182659.400000", "182700.890000", "182702.380000", "182703.870000", "182705.360000", "182706.850000", "182708.340000", "182709.830000", "182711.320000", "182712.810000", "182714.300000", "182715.790000", "182717.280000", "182718.770000", "182720.260000", "182721.750000", "182723.240000", "182724.730000", "182726.220000", "182727.710000", "182729.200000", "182730.690000", "182732.180000", "182733.670000", "182735.160000", "182736.650000", "182738.140000", "182739.630000", "182741.120000", "182742.610000", "182744.100000", "182745.590000", "182747.080000", "182748.570000", "182750.060000", "182751.550000", "182753.040000", "182754.530000", "182756.020000", "182757.510000", "182759.000000", "182800.490000", "182801.980000", "182803.470000", "182804.960000", "182806.450000", "182807.940000", "182809.430000", "182810.920000", "182812.410000", "182813.900000", "182815.390000", "182816.880000", "182818.370000", "182819.860000", "182821.350000", "182822.840000", "182824.330000", "182825.820000", "182827.310000", "182828.800000", "182830.290000", "182831.780000", "182833.270000", "182834.760000", "182836.250000", "182837.740000", "182839.230000", "182840.720000", "182842.210000", "182843.700000", "182845.190000", "182846.680000", "182848.170000", "182849.660000", "182851.150000", "182852.640000", "182854.130000", "182855.620000", "182857.110000", "182858.600000", "182900.090000", "182901.580000", "182903.070000", "182904.560000", "182906.050000", "182907.540000", "182909.030000", "182910.520000", "182912.010000", "182913.500000", "182914.990000", "182916.480000", "182917.970000", "182919.460000", "182920.950000", "182922.440000", "182923.930000", "182925.420000", "182926.910000", "182928.400000", "182929.890000", "182931.380000", "182932.870000", "182934.360000", "182935.850000", "182937.340000", "182938.830000", "182940.320000", "182941.810000", "182943.300000", "182944.790000", "182946.280000", "182947.770000", "182949.260000", "182950.750000", "182952.240000", "182953.730000", "182955.220000", "182956.710000", "182958.200000", "182959.690000", "183001.180000", "183002.670000", "183004.160000", "183005.650000", "183007.140000", "183008.630000", "183010.120000", "183011.610000", "183013.100000", "183014.590000", "183016.080000", "183017.570000", "183019.060000", "183020.550000", "183022.040000", "183023.530000", "183025.020000", "183026.510000", "183028.000000", "183029.490000", "183030.980000", "183032.470000", "183033.960000", "183035.450000", "183036.940000", "183038.430000", "183039.920000", "183041.410000", "183042.900000", "183044.390000", "183045.880000", "183047.370000", "183048.860000", "183050.350000", "183051.840000", "183053.330000", "183054.820000", "183056.310000", "183057.800000", "183059.290000", "183100.780000", "183102.270000", "183103.760000", "183105.250000", "183106.740000", "183108.230000", "183109.720000", "183111.210000", "183112.700000", "183114.190000", "183115.680000", "183117.170000", "183118.660000", "183120.150000", "183121.640000", "183123.130000", "183124.620000", "183126.110000", "183127.600000", "183129.090000", "183130.580000", "183132.070000", "183133.560000", "183135.050000", "183136.540000", "183138.030000", "183139.520000", "183141.010000", "183142.500000", "183143.990000", "183145.480000", "183146.970000", "183148.460000", "183149.950000", "183151.440000", "183152.930000", "183154.420000", "183155.910000", "183157.400000", "183158.890000", "183200.380000", "183201.870000", "183203.360000", "183204.850000", "183206.340000", "183207.830000", "183209.320000", "183210.810000", "183212.300000", "183213.790000", "183215.280000", "183216.770000", "183218.260000", "183219.750000", "183221.240000", "183222.730000", "183224.220000", "183225.710000", "183227.200000", "183228.690000", "183230.180000", "183231.670000", "183233.160000", "183234.650000", "183236.140000", "183237.630000", "183239.120000", "183240.610000", "183242.100000", "183243.590000", "183245.080000", "183246.570000", "183248.060000", "183249.550000", "183251.040000", "183252.530000", "183254.020000", "183255.510000", "183257.000000", "183258.490000", "183259.980000", "183301.470000", "183302.960000", "183304.450000", "183305.940000", "183307.430000", "183308.920000", "183310.410000", "183311.900000", "183313.390000", "183314.880000", "183316.370000", "183317.860000", "183319.350000", "183320.840000", "183322.330000", "183323.820000", "183325.310000", "183326.800000", "183328.290000", "183329.780000", "183331.270000", "183332.760000", "183334.250000", "183335.740000", "183337.230000", "183338.720000", "183340.210000", "183341.700000", "183343.190000", "183344.680000", "183346.170000", "183347.660000", "183349.150000", "183350.640000", "183352.130000", "183353.620000", "183355.110000", "183356.600000", "183358.090000", "183359.580000", "183401.070000", "183402.560000", "183404.050000", "183405.540000", "183407.030000", "183408.520000", "183410.010000", "183411.500000", "183412.990000", "183414.480000", "183415.970000", "183417.460000", "183418.950000", "183420.440000", "183421.930000", "183423.420000", "183424.910000", "183426.400000", "183427.890000", "183429.380000", "183430.870000", "183432.360000", "183433.850000", "183435.340000", "183436.830000", "183438.320000", "183439.810000", "183441.300000", "183442.790000", "183444.280000", "183445.770000", "183447.260000", "183448.750000", "183450.240000", "183451.730000", "183453.220000", "183454.710000", "183456.200000", "183457.690000", "183459.180000", "183500.670000", "183502.160000", "183503.650000", "183505.140000", "183506.630000", "183508.120000", "183509.610000", "183511.100000", "183512.590000", "183514.080000", "183515.570000", "183517.060000", "183518.550000", "183520.040000", "183521.530000", "183523.020000", "183524.510000", "183526.000000", "183527.490000", "183528.980000", "183530.470000", "183531.960000", "183533.450000", "183534.940000", "183536.430000", "183537.920000", "183539.410000", "183540.900000", "183542.390000", "183543.880000", "183545.370000", "183546.860000", "183548.350000", "183549.840000", "183551.330000", "183552.820000", "183554.310000", "183555.800000", "183557.290000", "183558.780000", "183600.270000", "183601.760000", "183603.250000", "183604.740000", "183606.230000", "183607.720000", "183609.210000", "183610.700000"],
      "ContentTime": ["182639.194000", "182639.198000", "182639.201000", "182639.204000", "182639.207000", "182639.210000", "182639.213000", "182639.216000", "182639.234000", "182639.237000", "182639.245000", "182639.248000", "182639.268000", "182639.271000", "182639.273000", "182639.276000", "182639.279000", "182639.282000", "182639.285000", "182639.288000", "182639.290000", "182639.293000", "182639.300000", "182639.303000", "182639.306000", "182659.164000", "182659.167000", "182659.169000", "182659.172000", "182659.175000", "182659.178000", "182659.181000", "182659.184000", "182659.186000", "182659.189000", "182659.192000", "182659.195000", "182659.198000", "182659.200000", "182659.203000", "182659.206000", "182659.209000", "182659.212000", "182659.214000", "182659.229000", "182659.232000", "182719.163000", "182719.169000", "182719.172000", "182719.175000", "182719.178000", "182719.181000", "182719.183000", "182719.186000", "182719.189000", "182719.192000", "182719.195000", "182719.198000", "182719.201000", "182719.204000", "182719.207000", "182719.210000", "182719.213000", "182719.216000", "182719.218000", "182719.221000", "182739.164000", "182739.167000", "182739.170000", "182739.172000", "182739.175000", "182739.178000", "182739.181000", "182739.184000", "182739.187000", "182739.189000", "182739.192000", "182739.195000", "182739.198000", "182739.201000", "182739.204000", "182739.206000", "182739.209000", "182739.212000", "182739.215000", "182739.218000", "182819.164000", "182819.167000", "182819.170000", "182819.172000", "182819.175000", "182819.178000", "182819.181000", "182819.187000", "182819.190000", "182819.193000", "182819.196000", "182819.199000", "182819.201000", "182819.204000", "182819.207000", "182819.210000", "182819.213000", "182819.215000", "182819.218000", "182819.221000", "182819.224000", "182819.227000", "182819.230000", "182819.232000", "182819.235000", "182819.239000", "182819.242000", "182819.245000", "182819.248000", "182859.164000", "182859.172000", "182859.175000", "182859.178000", "182859.181000", "182859.184000", "182859.187000", "182859.189000", "182859.192000", "182859.195000", "182859.198000", "182859.201000", "182859.203000", "182859.206000", "182859.209000", "182859.212000", "182859.215000", "182859.218000", "182859.220000", "182859.223000", "182859.226000", "182859.229000", "182859.232000", "182859.235000", "182859.237000", "182859.240000", "182859.243000", "182939.163000", "182939.166000", "182939.169000", "182939.172000", "182939.175000", "182939.177000", "182939.180000", "182939.183000", "182939.186000", "182939.189000", "182939.191000", "182939.194000", "182939.197000", "182939.200000", "182939.203000", "182939.206000", "182939.209000", "182939.212000", "182939.215000", "182939.217000", "182939.220000", "182939.223000", "182939.226000", "182939.229000", "182939.231000", "182939.234000", "182939.237000", "183019.164000", "183019.167000", "183019.170000", "183019.173000", "183019.175000", "183019.178000", "183019.181000", "183019.184000", "183019.187000", "183019.190000", "183019.192000", "183019.195000", "183019.198000", "183019.201000", "183019.204000", "183019.207000", "183019.210000", "183019.212000", "183019.215000", "183019.218000", "183019.221000", "183019.224000", "183019.227000", "183019.229000", "183019.232000", "183019.235000", "183019.238000", "183059.164000", "183059.167000", "183059.170000", "183059.173000", "183059.185000", "183059.188000", "183059.191000", "183059.194000", "183059.197000", "183059.200000", "183059.202000", "183059.205000", "183059.208000", "183059.211000", "183059.214000", "183059.217000", "183059.220000", "183059.222000", "183059.225000", "183059.228000", "183059.231000", "183059.234000", "183059.237000", "183059.239000", "183059.242000", "183059.255000", "183059.258000", "183139.164000", "183139.167000", "183139.170000", "183139.173000", "183139.176000", "183139.178000", "183139.181000", "183139.184000", "183139.187000", "183139.190000", "183139.192000", "183139.195000", "183139.198000", "183139.201000", "183139.209000", "183139.212000", "183139.215000", "183139.218000", "183139.221000", "183139.224000", "183139.227000", "183139.229000", "183139.232000", "183139.235000", "183139.238000", "183139.241000", "183139.243000", "183219.164000", "183219.167000", "183219.170000", "183219.173000", "183219.176000", "183219.179000", "183219.182000", "183219.184000", "183219.187000", "183219.190000", "183219.193000", "183219.196000", "183219.199000", "183219.202000", "183219.204000", "183219.207000", "183219.210000", "183219.213000", "183219.216000", "183219.219000", "183219.222000", "183219.224000", "183219.227000", "183219.230000", "183219.233000", "183219.236000", "183259.164000", "183259.167000", "183259.170000", "183259.173000", "183259.176000", "183259.178000", "183259.181000", "183259.184000", "183259.187000", "183259.190000", "183259.193000", "183259.195000", "183259.198000", "183259.201000", "183259.204000", "183259.207000", "183259.210000", "183259.212000", "183259.215000", "183259.218000", "183259.221000", "183259.224000", "183259.227000", "183259.230000", "183259.233000", "183259.235000", "183259.238000", "183339.164000", "183339.167000", "183339.170000", "183339.173000", "183339.175000", "183339.178000", "183339.181000", "183339.184000", "183339.187000", "183339.190000", "183339.192000", "183339.195000", "183339.198000", "183339.201000", "183339.204000", "183339.207000", "183339.210000", "183339.212000", "183339.215000", "183339.218000", "183339.221000", "183339.224000", "183339.236000", "183339.239000", "183339.242000", "183339.245000", "183339.248000", "183419.163000", "183419.166000", "183419.169000", "183419.172000", "183419.175000", "183419.177000", "183419.180000", "183419.183000", "183419.186000", "183419.189000", "183419.192000", "183419.194000", "183419.197000", "183419.200000", "183419.203000", "183419.206000", "183419.209000", "183419.211000", "183419.214000", "183419.217000", "183419.220000", "183419.223000", "183419.226000", "183419.229000", "183419.232000", "183419.234000", "183419.237000", "183459.164000", "183459.167000", "183459.170000", "183459.173000", "183459.176000", "183459.178000", "183459.181000", "183459.184000", "183459.187000", "183459.190000", "183459.193000", "183459.195000", "183459.198000", "183459.201000", "183459.204000", "183459.207000", "183459.210000", "183459.221000", "183459.224000", "183459.227000", "183459.230000", "183459.233000", "183459.236000", "183459.239000", "183459.241000", "183459.244000", "183459.247000", "183539.164000", "183539.167000", "183539.170000", "183539.173000", "183539.185000", "183539.188000", "183539.191000", "183539.194000", "183539.197000", "183539.199000", "183539.202000", "183539.205000", "183539.208000", "183539.211000", "183539.214000", "183539.217000", "183539.219000", "183539.222000", "183539.225000", "183539.228000", "183539.231000", "183539.234000", "183539.237000", "183539.239000", "183539.242000", "183539.245000", "183539.248000", "183613.240000", "183613.244000", "183613.247000", "183613.249000", "183613.252000", "183613.255000", "183613.258000", "183613.261000", "183613.265000", "183613.267000", "183613.270000", "183613.273000", "183613.276000", "183613.279000", "183613.282000", "183613.285000", "183613.288000", "183613.291000", "183613.293000", "183613.296000", "183613.299000", "183613.302000", "183613.305000"],
      "InstanceCreationTime": ["182639.194000", "182639.198000", "182639.201000", "182639.204000", "182639.207000", "182639.210000", "182639.213000", "182639.216000", "182639.234000", "182639.237000", "182639.245000", "182639.248000", "182639.268000", "182639.271000", "182639.273000", "182639.276000", "182639.279000", "182639.282000", "182639.285000", "182639.288000", "182639.290000", "182639.293000", "182639.300000", "182639.303000", "182639.306000", "182659.164000", "182659.167000", "182659.169000", "182659.172000", "182659.175000", "182659.178000", "182659.181000", "182659.184000", "182659.186000", "182659.189000", "182659.192000", "182659.195000", "182659.198000", "182659.200000", "182659.203000", "182659.206000", "182659.209000", "182659.212000", "182659.214000", "182659.229000", "182659.232000", "182719.163000", "182719.169000", "182719.172000", "182719.175000", "182719.178000", "182719.181000", "182719.183000", "182719.186000", "182719.189000", "182719.192000", "182719.195000", "182719.198000", "182719.201000", "182719.204000", "182719.207000", "182719.210000", "182719.213000", "182719.216000", "182719.218000", "182719.221000", "182739.164000", "182739.167000", "182739.170000", "182739.172000", "182739.175000", "182739.178000", "182739.181000", "182739.184000", "182739.187000", "182739.189000", "182739.192000", "182739.195000", "182739.198000", "182739.201000", "182739.204000", "182739.206000", "182739.209000", "182739.212000", "182739.215000", "182739.218000", "182819.164000", "182819.167000", "182819.170000", "182819.172000", "182819.175000", "182819.178000", "182819.181000", "182819.187000", "182819.190000", "182819.193000", "182819.196000", "182819.199000", "182819.201000", "182819.204000", "182819.207000", "182819.210000", "182819.213000", "182819.215000", "182819.218000", "182819.221000", "182819.224000", "182819.227000", "182819.230000", "182819.232000", "182819.235000", "182819.239000", "182819.242000", "182819.245000", "182819.248000", "182859.164000", "182859.172000", "182859.175000", "182859.178000", "182859.181000", "182859.184000", "182859.187000", "182859.189000", "182859.192000", "182859.195000", "182859.198000", "182859.201000", "182859.203000", "182859.206000", "182859.209000", "182859.212000", "182859.215000", "182859.218000", "182859.220000", "182859.223000", "182859.226000", "182859.229000", "182859.232000", "182859.235000", "182859.237000", "182859.240000", "182859.243000", "182939.163000", "182939.166000", "182939.169000", "182939.172000", "182939.175000", "182939.177000", "182939.180000", "182939.183000", "182939.186000", "182939.189000", "182939.191000", "182939.194000", "182939.197000", "182939.200000", "182939.203000", "182939.206000", "182939.209000", "182939.212000", "182939.215000", "182939.217000", "182939.220000", "182939.223000", "182939.226000", "182939.229000", "182939.231000", "182939.234000", "182939.237000", "183019.164000", "183019.167000", "183019.170000", "183019.173000", "183019.175000", "183019.178000", "183019.181000", "183019.184000", "183019.187000", "183019.190000", "183019.192000", "183019.195000", "183019.198000", "183019.201000", "183019.204000", "183019.207000", "183019.210000", "183019.212000", "183019.215000", "183019.218000", "183019.221000", "183019.224000", "183019.227000", "183019.229000", "183019.232000", "183019.235000", "183019.238000", "183059.164000", "183059.167000", "183059.170000", "183059.173000", "183059.185000", "183059.188000", "183059.191000", "183059.194000", "183059.197000", "183059.200000", "183059.202000", "183059.205000", "183059.208000", "183059.211000", "183059.214000", "183059.217000", "183059.220000", "183059.222000", "183059.225000", "183059.228000", "183059.231000", "183059.234000", "183059.237000", "183059.239000", "183059.242000", "183059.255000", "183059.258000", "183139.164000", "183139.167000", "183139.170000", "183139.173000", "183139.176000", "183139.178000", "183139.181000", "183139.184000", "183139.187000", "183139.190000", "183139.192000", "183139.195000", "183139.198000", "183139.201000", "183139.209000", "183139.212000", "183139.215000", "183139.218000", "183139.221000", "183139.224000", "183139.227000", "183139.229000", "183139.232000", "183139.235000", "183139.238000", "183139.241000", "183139.243000", "183219.164000", "183219.167000", "183219.170000", "183219.173000", "183219.176000", "183219.179000", "183219.182000", "183219.184000", "183219.187000", "183219.190000", "183219.193000", "183219.196000", "183219.199000", "183219.202000", "183219.204000", "183219.207000", "183219.210000", "183219.213000", "183219.216000", "183219.219000", "183219.222000", "183219.224000", "183219.227000", "183219.230000", "183219.233000", "183219.236000", "183259.164000", "183259.167000", "183259.170000", "183259.173000", "183259.176000", "183259.178000", "183259.181000", "183259.184000", "183259.187000", "183259.190000", "183259.193000", "183259.195000", "183259.198000", "183259.201000", "183259.204000", "183259.207000", "183259.210000", "183259.212000", "183259.215000", "183259.218000", "183259.221000", "183259.224000", "183259.227000", "183259.230000", "183259.233000", "183259.235000", "183259.238000", "183339.164000", "183339.167000", "183339.170000", "183339.173000", "183339.175000", "183339.178000", "183339.181000", "183339.184000", "183339.187000", "183339.190000", "183339.192000", "183339.195000", "183339.198000", "183339.201000", "183339.204000", "183339.207000", "183339.210000", "183339.212000", "183339.215000", "183339.218000", "183339.221000", "183339.224000", "183339.236000", "183339.239000", "183339.242000", "183339.245000", "183339.248000", "183419.163000", "183419.166000", "183419.169000", "183419.172000", "183419.175000", "183419.177000", "183419.180000", "183419.183000", "183419.186000", "183419.189000", "183419.192000", "183419.194000", "183419.197000", "183419.200000", "183419.203000", "183419.206000", "183419.209000", "183419.211000", "183419.214000", "183419.217000", "183419.220000", "183419.223000", "183419.226000", "183419.229000", "183419.232000", "183419.234000", "183419.237000", "183459.164000", "183459.167000", "183459.170000", "183459.173000", "183459.176000", "183459.178000", "183459.181000", "183459.184000", "183459.187000", "183459.190000", "183459.193000", "183459.195000", "183459.198000", "183459.201000", "183459.204000", "183459.207000", "183459.210000", "183459.221000", "183459.224000", "183459.227000", "183459.230000", "183459.233000", "183459.236000", "183459.239000", "183459.241000", "183459.244000", "183459.247000", "183539.164000", "183539.167000", "183539.170000", "183539.173000", "183539.185000", "183539.188000", "183539.191000", "183539.194000", "183539.197000", "183539.199000", "183539.202000", "183539.205000", "183539.208000", "183539.211000", "183539.214000", "183539.217000", "183539.219000", "183539.222000", "183539.225000", "183539.228000", "183539.231000", "183539.234000", "183539.237000", "183539.239000", "183539.242000", "183539.245000", "183539.248000", "183613.240000", "183613.244000", "183613.247000", "183613.249000", "183613.252000", "183613.255000", "183613.258000", "183613.261000", "183613.265000", "183613.267000", "183613.270000", "183613.273000", "183613.276000", "183613.279000", "183613.282000", "183613.285000", "183613.288000", "183613.291000", "183613.293000", "183613.296000", "183613.299000", "183613.302000", "183613.305000"],
