{
  "AcquisitionMatrixPE": 104,
  "AcquisitionNumber": 1,
  "AcquisitionTime": "18:10:47.382500",
  "BandwidthPerPixelPhaseEncode": 17.17,
  "BaseResolution": 104,
  "BodyPartExamined": "BRAIN",
  "CoilCombinationMethod": "Sum of Squares",
  "ConsistencyInfo": "N4_VE11C_LATEST_20160120",
  "ConversionSoftware": "dcm2niix",
  "ConversionSoftwareVersion": "v1.0.20211006",
  "DerivedVendorReportedEchoSpacing": 0.000560011,
  "DeviceSerialNumber": "167006",
  "DwellTime": 2.1e-06,
  "EchoTime": 0.037,
  "EchoTrainLength": 104,
  "EffectiveEchoSpacing": 0.000560011,
  "FlipAngle": 52,
  "HeudiconvVersion": "0.11.3.post9+gc939bf8",
  "ImageComments": "Unaliased MB4/PE3/LB",
  "ImageOrientationPatientDICOM": [0.995545, 0.09323, 0.0140895, -0.0825485, 0.934011, -0.347576],
  "ImageOrientationText": "Tra>Cor(-20.2)>Sag(2.6)",
  "ImageType": [
    "ORIGINAL",
    "PRIMARY",
    "M",
    "MB",
    "ND",
    "MOSAIC"
],
  "ImagingFrequency": 123.259,
  "InPlanePhaseEncodingDirectionDICOM": "COL",
  "InstitutionAddress": "Chemin Queen-Mary 4565,Montreal,District,CA,H3W 1W5",
  "InstitutionName": "IUGM",
  "InstitutionalDepartmentName": "Department",
  "MRAcquisitionType": "2D",
  "MagneticFieldStrength": 3,
  "Manufacturer": "Siemens",
  "ManufacturersModelName": "Prisma_fit",
  "MatrixCoilMode": "SENSE",
  "Modality": "MR",
  "MultibandAccelerationFactor": 4,
  "PartialFourier": 1,
  "PatientPosition": "HFS",
  "PercentPhaseFOV": 100,
  "PercentSampling": 100,
  "PhaseEncodingDirection": "j",
  "PhaseEncodingSteps": 104,
  "PhaseResolution": 1,
  "PixelBandwidth": 2290,
  "ProcedureStepDescription": "video^friends",
  "ProtocolName": "func_task-friends-s06e18b",
  "PulseSequenceDetails": "%CustomerSeq%\\cmrr_mbep2d_bold",
  "ReceiveCoilActiveElements": "HC1-7;NC1,2",
  "ReceiveCoilName": "HeadNeck_64",
  "ReconMatrixPE": 104,
  "RepetitionTime": 1.49,
  "SAR": 0.0444155,
  "ScanOptions": "FS",
  "ScanningSequence": "EP",
  "SequenceName": "epfid2d1_104",
  "SequenceVariant": "SK\\SS",
  "SeriesDescription": "func_task-friends-s06e18b",
  "SeriesNumber": 16,
  "ShimSetting": [638, -7199, -8792, 680, 117, -13, -17, 0],
  "SliceThickness": 2,
  "SliceTiming": [0, 0.785, 0.0975, 0.8825, 0.1975, 0.98, 0.295, 1.0775, 0.3925, 1.1775, 0.49, 1.275, 0.5875, 1.3725, 0.6875, 0, 0.785, 0.0975, 0.8825, 0.1975, 0.98, 0.295, 1.0775, 0.3925, 1.1775, 0.49, 1.275, 0.5875, 1.3725, 0.6875, 0, 0.785, 0.0975, 0.8825, 0.1975, 0.98, 0.295, 1.0775, 0.3925, 1.1775, 0.49, 1.275, 0.5875, 1.3725, 0.6875, 0, 0.785, 0.0975, 0.8825, 0.1975, 0.98, 0.295, 1.0775, 0.3925, 1.1775, 0.49, 1.275, 0.5875, 1.3725, 0.6875],
  "SoftwareVersions": "syngo MR E11",
  "SpacingBetweenSlices": 2,
  "StationName": "MRC35049",
  "TaskName": "s06e18b",
  "TotalReadoutTime": 0.0576811,
  "TxRefAmp": 246.942,
  "WipMemBlock": "095fb67d-1981-4ddc-9c27-c6a7e10889bb||Sequence: R017 ve11c/master r/75a17815+; Jun 28 2022 16:32:11 by eja",
  "dcmmeta_affine": [
    [-1.9910898208618164, -0.1650969684123993, 0.09112857282161713, 108.3935775756836],
    [-0.18646009266376495, 1.8680223226547241, -0.6897284388542175, -60.36752700805664],
    [0.028179064393043518, 0.6951515078544617, 1.8750921487808228, -58.97623825073242],
    [0.0, 0.0, 0.0, 1.0]
],
  "dcmmeta_reorient_transform": [
    [0.0, -1.0, 0.0, 103.0],
    [1.0, 0.0, 0.0, 0.0],
    [0.0, 0.0, 1.0, 0.0],
    [0.0, 0.0, 0.0, 1.0]
],
  "dcmmeta_shape": [104, 104, 60, 470],
  "dcmmeta_slice_dim": 2,
  "dcmmeta_version": 0.6,
  "global": {
    "const": {
      "AcquisitionMatrix": [104, 0, 0, 104],
      "AngioFlag": "N",
      "BitsAllocated": 16,
      "BitsStored": 16,
      "BodyPartExamined": "BRAIN",
      "Columns": 832,
      "EchoNumbers": 1,
      "EchoTime": 37.0,
      "EchoTrainLength": 104,
      "FlipAngle": 52.0,
      "HighBit": 15,
      "ImageOrientationPatient": [0.99554489797313, 0.09323004455553, 0.01408953199517, -0.0825484833685, 0.93401115251554, -0.3475757685313],
      "ImagePositionPatient": [-756.04998313186, -879.87036253235, 255.40234986926],
      "ImageType": [
        "ORIGINAL",
        "PRIMARY",
        "M",
        "MB",
        "ND",
        "MOSAIC"
],
      "ImagedNucleus": "1H",
      "ImagingFrequency": 123.258793,
      "InPlanePhaseEncodingDirection": "COL",
      "MRAcquisitionType": "2D",
      "MagneticFieldStrength": 3.0,
      "Manufacturer": "SIEMENS",
      "ManufacturerModelName": "Prisma_fit",
      "Modality": "MR",
      "NumberOfAverages": 1.0,
      "NumberOfPhaseEncodingSteps": 104,
      "PercentPhaseFieldOfView": 100.0,
      "PercentSampling": 100.0,
      "PerformedProcedureStepStartTime": "173559.363000",
      "PhotometricInterpretation": "MONOCHROME2",
      "PixelBandwidth": 2290.0,
      "PixelRepresentation": 0,
      "PixelSpacing": [2.0, 2.0],
      "ProtocolName": "func_task-friends-s06e18b",
      "RepetitionTime": 1490.0,
      "Rows": 832,
      "SAR": 0.04441545900705,
      "SamplesPerPixel": 1,
      "ScanOptions": "FS",
      "ScanningSequence": "EP",
      "SequenceName": "epfid2d1_104",
      "SequenceVariant": [
        "SK",
        "SS"
],
      "SeriesDescription": "func_task-friends-s06e18b",
      "SeriesNumber": 16,
      "SeriesTime": "181205.854000",
      "SliceLocation": -29.535463335344,
      "SliceThickness": 2.0,
      "SmallestImagePixelValue": 0,
      "SoftwareVersions": "syngo MR E11",
      "SpacingBetweenSlices": 2.0000000287878,
      "SpecificCharacterSet": "ISO_IR 100",
      "StudyID": "1",
      "StudyTime": "173559.278000",
      "TransmitCoilName": "Body",
      "VariableFlipAngleFlag": "N",
      "WindowCenterWidthExplanation": "Algo1",
      "dBdt": 0.0},
    "slices": {}
  },
  "time": {
    "samples": {
      "AcquisitionNumber": [1, 2, 3, 4, 5, 6, 7, 8, 9, 10, 11, 12, 13, 14, 15, 16, 17, 18, 19, 20, 21, 22, 23, 24, 25, 26, 27, 28, 29, 30, 31, 32, 33, 34, 35, 36, 37, 38, 39, 40, 41, 42, 43, 44, 45, 46, 47, 48, 49, 50, 51, 52, 53, 54, 55, 56, 57, 58, 59, 60, 61, 62, 63, 64, 65, 66, 67, 68, 69, 70, 71, 72, 73, 74, 75, 76, 77, 78, 79, 80, 81, 82, 83, 84, 85, 86, 87, 88, 89, 90, 91, 92, 93, 94, 95, 96, 97, 98, 99, 100, 101, 102, 103, 104, 105, 106, 107, 108, 109, 110, 111, 112, 113, 114, 115, 116, 117, 118, 119, 120, 121, 122, 123, 124, 125, 126, 127, 128, 129, 130, 131, 132, 133, 134, 135, 136, 137, 138, 139, 140, 141, 142, 143, 144, 145, 146, 147, 148, 149, 150, 151, 152, 153, 154, 155, 156, 157, 158, 159, 160, 161, 162, 163, 164, 165, 166, 167, 168, 169, 170, 171, 172, 173, 174, 175, 176, 177, 178, 179, 180, 181, 182, 183, 184, 185, 186, 187, 188, 189, 190, 191, 192, 193, 194, 195, 196, 197, 198, 199, 200, 201, 202, 203, 204, 205, 206, 207, 208, 209, 210, 211, 212, 213, 214, 215, 216, 217, 218, 219, 220, 221, 222, 223, 224, 225, 226, 227, 228, 229, 230, 231, 232, 233, 234, 235, 236, 237, 238, 239, 240, 241, 242, 243, 244, 245, 246, 247, 248, 249, 250, 251, 252, 253, 254, 255, 256, 257, 258, 259, 260, 261, 262, 263, 264, 265, 266, 267, 268, 269, 270, 271, 272, 273, 274, 275, 276, 277, 278, 279, 280, 281, 282, 283, 284, 285, 286, 287, 288, 289, 290, 291, 292, 293, 294, 295, 296, 297, 298, 299, 300, 301, 302, 303, 304, 305, 306, 307, 308, 309, 310, 311, 312, 313, 314, 315, 316, 317, 318, 319, 320, 321, 322, 323, 324, 325, 326, 327, 328, 329, 330, 331, 332, 333, 334, 335, 336, 337, 338, 339, 340, 341, 342, 343, 344, 345, 346, 347, 348, 349, 350, 351, 352, 353, 354, 355, 356, 357, 358, 359, 360, 361, 362, 363, 364, 365, 366, 367, 368, 369, 370, 371, 372, 373, 374, 375, 376, 377, 378, 379, 380, 381, 382, 383, 384, 385, 386, 387, 388, 389, 390, 391, 392, 393, 394, 395, 396, 397, 398, 399, 400, 401, 402, 403, 404, 405, 406, 407, 408, 409, 410, 411, 412, 413, 414, 415, 416, 417, 418, 419, 420, 421, 422, 423, 424, 425, 426, 427, 428, 429, 430, 431, 432, 433, 434, 435, 436, 437, 438, 439, 440, 441, 442, 443, 444, 445, 446, 447, 448, 449, 450, 451, 452, 453, 454, 455, 456, 457, 458, 459, 460, 461, 462, 463, 464, 465, 466, 467, 468, 469, 470],
      "AcquisitionTime": ["181047.382500", "181048.872500", "181050.362500", "181051.852500", "181053.342500", "181054.832500", "181056.322500", "181057.812500", "181059.302500", "181100.792500", "181102.282500", "181103.772500", "181105.262500", "181106.752500", "181108.242500", "181109.732500", "181111.222500", "181112.712500", "181114.202500", "181115.692500", "181117.182500", "181118.672500", "181120.162500", "181121.652500", "181123.142500", "181124.632500", "181126.122500", "181127.612500", "181129.102500", "181130.592500", "181132.082500", "181133.572500", "181135.062500", "181136.552500", "181138.042500", "181139.532500", "181141.022500", "181142.512500", "181144.002500", "181145.492500", "181146.982500", "181148.472500", "181149.962500", "181151.452500", "181152.942500", "181154.432500", "181155.922500", "181157.412500", "181158.902500", "181200.392500", "181201.882500", "181203.372500", "181204.862500", "181206.352500", "181207.842500", "181209.332500", "181210.822500", "181212.312500", "181213.802500", "181215.292500", "181216.782500", "181218.272500", "181219.762500", "181221.252500", "181222.742500", "181224.232500", "181225.722500", "181227.212500", "181228.702500", "181230.192500", "181231.682500", "181233.172500", "181234.662500", "181236.152500", "181237.642500", "181239.132500", "181240.622500", "181242.112500", "181243.602500", "181245.092500", "181246.582500", "181248.072500", "181249.562500", "181251.052500", "181252.542500", "181254.032500", "181255.522500", "181257.012500", "181258.502500", "181259.992500", "181301.482500", "181302.972500", "181304.462500", "181305.952500", "181307.442500", "181308.932500", "181310.422500", "181311.912500", "181313.402500", "181314.892500", "181316.382500", "181317.872500", "181319.362500", "181320.852500", "181322.342500", "181323.832500", "181325.322500", "181326.812500", "181328.302500", "181329.792500", "181331.282500", "181332.772500", "181334.262500", "181335.752500", "181337.242500", "181338.732500", "181340.222500", "181341.712500", "181343.202500", "181344.692500", "181346.182500", "181347.672500", "181349.162500", "181350.652500", "181352.142500", "181353.632500", "181355.122500", "181356.612500", "181358.102500", "181359.592500", "181401.082500", "181402.572500", "181404.062500", "181405.552500", "181407.042500", "181408.532500", "181410.022500", "181411.512500", "181413.002500", "181414.492500", "181415.982500", "181417.472500", "181418.962500", "181420.452500", "181421.942500", "181423.432500", "181424.922500", "181426.412500", "181427.902500", "181429.392500", "181430.882500", "181432.372500", "181433.862500", "181435.352500", "181436.842500", "181438.332500", "181439.822500", "181441.312500", "181442.802500", "181444.292500", "181445.782500", "181447.272500", "181448.762500", "181450.252500", "181451.742500", "181453.232500", "181454.722500", "181456.212500", "181457.702500", "181459.192500", "181500.682500", "181502.172500", "181503.662500", "181505.152500", "181506.642500", "181508.132500", "181509.622500", "181511.112500", "181512.602500", "181514.092500", "181515.582500", "181517.072500", "181518.562500", "181520.052500", "181521.542500", "181523.032500", "181524.522500", "181526.012500", "181527.502500", "181528.992500", "181530.482500", "181531.972500", "181533.462500", "181534.952500", "181536.442500", "181537.932500", "181539.422500", "181540.912500", "181542.402500", "181543.892500", "181545.382500", "181546.872500", "181548.362500", "181549.852500", "181551.342500", "181552.832500", "181554.322500", "181555.812500", "181557.302500", "181558.792500", "181600.282500", "181601.772500", "181603.262500", "181604.752500", "181606.242500", "181607.732500", "181609.222500", "181610.712500", "181612.202500", "181613.692500", "181615.182500", "181616.672500", "181618.162500", "181619.652500", "181621.142500", "181622.632500", "181624.122500", "181625.612500", "181627.102500", "181628.592500", "181630.082500", "181631.572500", "181633.062500", "181634.552500", "181636.042500", "181637.532500", "181639.022500", "181640.512500", "181642.002500", "181643.492500", "181644.982500", "181646.472500", "181647.962500", "181649.452500", "181650.942500", "181652.432500", "181653.922500", "181655.412500", "181656.902500", "181658.392500", "181659.882500", "181701.372500", "181702.862500", "181704.352500", "181705.842500", "181707.332500", "181708.822500", "181710.312500", "181711.802500", "181713.292500", "181714.782500", "181716.272500", "181717.762500", "181719.252500", "181720.742500", "181722.232500", "181723.722500", "181725.212500", "181726.702500", "181728.192500", "181729.682500", "181731.172500", "181732.662500", "181734.152500", "181735.642500", "181737.132500", "181738.622500", "181740.112500", "181741.602500", "181743.092500", "181744.582500", "181746.072500", "181747.562500", "181749.052500", "181750.542500", "181752.032500", "181753.522500", "181755.012500", "181756.502500", "181757.992500", "181759.482500", "181800.972500", "181802.462500", "181803.952500", "181805.442500", "181806.932500", "181808.422500", "181809.912500", "181811.402500", "181812.892500", "181814.382500", "181815.872500", "181817.362500", "181818.852500", "181820.342500", "181821.832500", "181823.322500", "181824.812500", "181826.302500", "181827.792500", "181829.282500", "181830.772500", "181832.262500", "181833.752500", "181835.242500", "181836.732500", "181838.222500", "181839.712500", "181841.202500", "181842.692500", "181844.182500", "181845.672500", "181847.162500", "181848.652500", "181850.142500", "181851.632500", "181853.122500", "181854.612500", "181856.102500", "181857.592500", "181859.082500", "181900.572500", "181902.062500", "181903.552500", "181905.042500", "181906.532500", "181908.022500", "181909.512500", "181911.002500", "181912.492500", "181913.982500", "181915.472500", "181916.962500", "181918.452500", "181919.942500", "181921.432500", "181922.922500", "181924.412500", "181925.902500", "181927.392500", "181928.882500", "181930.372500", "181931.862500", "181933.352500", "181934.842500", "181936.332500", "181937.822500", "181939.312500", "181940.802500", "181942.292500", "181943.782500", "181945.272500", "181946.762500", "181948.252500", "181949.742500", "181951.232500", "181952.722500", "181954.212500", "181955.702500", "181957.192500", "181958.682500", "182000.172500", "182001.662500", "182003.152500", "182004.642500", "182006.132500", "182007.622500", "182009.112500", "182010.602500", "182012.092500", "182013.582500", "182015.072500", "182016.562500", "182018.052500", "182019.542500", "182021.032500", "182022.522500", "182024.012500", "182025.502500", "182026.992500", "182028.482500", "182029.972500", "182031.462500", "182032.952500", "182034.442500", "182035.932500", "182037.422500", "182038.912500", "182040.402500", "182041.892500", "182043.382500", "182044.872500", "182046.362500", "182047.852500", "182049.342500", "182050.832500", "182052.322500", "182053.812500", "182055.302500", "182056.792500", "182058.282500", "182059.772500", "182101.262500", "182102.752500", "182104.242500", "182105.732500", "182107.222500", "182108.712500", "182110.202500", "182111.692500", "182113.182500", "182114.672500", "182116.162500", "182117.652500", "182119.142500", "182120.632500", "182122.122500", "182123.612500", "182125.102500", "182126.592500", "182128.082500", "182129.572500", "182131.062500", "182132.552500", "182134.042500", "182135.532500", "182137.022500", "182138.512500", "182140.002500", "182141.492500", "182142.982500", "182144.472500", "182145.962500", "182147.452500", "182148.942500", "182150.432500", "182151.922500", "182153.412500", "182154.902500", "182156.392500", "182157.882500", "182159.372500", "182200.862500", "182202.352500", "182203.842500", "182205.332500", "182206.822500", "182208.312500", "182209.802500", "182211.292500", "182212.782500", "182214.272500", "182215.762500", "182217.252500", "182218.742500", "182220.232500", "182221.722500", "182223.212500", "182224.702500", "182226.192500"],
      "ContentTime": ["181205.856000", "181205.860000", "181205.862000", "181205.875000", "181205.878000", "181205.880000", "181205.883000", "181205.886000", "181205.889000", "181205.892000", "181205.895000", "181205.897000", "181205.900000", "181205.903000", "181205.906000", "181205.915000", "181205.918000", "181205.921000", "181205.923000", "181205.926000", "181205.929000", "181205.932000", "181205.934000", "181205.937000", "181205.940000", "181205.943000", "181205.946000", "181205.949000", "181205.952000", "181205.954000", "181225.813000", "181225.816000", "181225.819000", "181225.822000", "181225.827000", "181225.830000", "181225.833000", "181225.835000", "181225.838000", "181225.841000", "181225.844000", "181225.847000", "181225.850000", "181225.852000", "181225.855000", "181225.858000", "181225.861000", "181225.864000", "181225.866000", "181225.869000", "181245.812000", "181245.815000", "181245.822000", "181245.825000", "181245.827000", "181245.830000", "181245.833000", "181245.836000", "181245.839000", "181245.841000", "181245.844000", "181245.847000", "181245.850000", "181245.853000", "181245.856000", "181245.858000", "181245.861000", "181245.864000", "181245.867000", "181245.870000", "181305.813000", "181305.816000", "181305.818000", "181305.821000", "181305.824000", "181305.827000", "181305.829000", "181305.832000", "181305.835000", "181305.838000", "181305.841000", "181305.854000", "181305.856000", "181305.859000", "181305.862000", "181305.865000", "181305.868000", "181305.871000", "181305.873000", "181305.876000", "181345.813000", "181345.816000", "181345.819000", "181345.821000", "181345.824000", "181345.827000", "181345.830000", "181345.833000", "181345.835000", "181345.838000", "181345.841000", "181345.844000", "181345.847000", "181345.849000", "181345.852000", "181345.855000", "181345.858000", "181345.861000", "181345.864000", "181345.867000", "181345.869000", "181345.872000", "181345.875000", "181345.878000", "181345.881000", "181345.884000", "181345.887000", "181345.889000", "181345.892000", "181425.825000", "181425.828000", "181425.831000", "181425.834000", "181425.837000", "181425.839000", "181425.842000", "181425.845000", "181425.848000", "181425.851000", "181425.853000", "181425.856000", "181425.859000", "181425.862000", "181425.865000", "181425.868000", "181425.871000", "181425.873000", "181425.876000", "181425.879000", "181425.882000", "181425.885000", "181425.887000", "181425.890000", "181425.893000", "181425.896000", "181425.899000", "181505.812000", "181505.815000", "181505.818000", "181505.820000", "181505.823000", "181505.826000", "181505.829000", "181505.832000", "181505.835000", "181505.837000", "181505.840000", "181505.843000", "181505.846000", "181505.849000", "181505.851000", "181505.854000", "181505.857000", "181505.860000", "181505.863000", "181505.880000", "181505.883000", "181505.886000", "181505.888000", "181505.891000", "181505.894000", "181505.897000", "181505.900000", "181545.813000", "181545.816000", "181545.819000", "181545.821000", "181545.824000", "181545.827000", "181545.830000", "181545.833000", "181545.835000", "181545.838000", "181545.841000", "181545.844000", "181545.847000", "181545.849000", "181545.852000", "181545.855000", "181545.858000", "181545.861000", "181545.864000", "181545.866000", "181545.869000", "181545.872000", "181545.875000", "181545.878000", "181545.880000", "181545.883000", "181545.886000", "181625.813000", "181625.816000", "181625.819000", "181625.821000", "181625.824000", "181625.827000", "181625.830000", "181625.833000", "181625.836000", "181625.838000", "181625.841000", "181625.844000", "181625.847000", "181625.850000", "181625.852000", "181625.855000", "181625.858000", "181625.861000", "181625.864000", "181625.866000", "181625.873000", "181625.876000", "181625.879000", "181625.881000", "181625.884000", "181625.887000", "181625.890000", "181705.813000", "181705.816000", "181705.819000", "181705.822000", "181705.824000", "181705.827000", "181705.830000", "181705.833000", "181705.836000", "181705.839000", "181705.841000", "181705.844000", "181705.847000", "181705.850000", "181705.853000", "181705.856000", "181705.858000", "181705.861000", "181705.864000", "181705.868000", "181705.871000", "181705.874000", "181705.877000", "181705.880000", "181705.882000", "181705.885000", "181745.813000", "181745.816000", "181745.819000", "181745.822000", "181745.824000", "181745.827000", "181745.830000", "181745.833000", "181745.836000", "181745.838000", "181745.841000", "181745.844000", "181745.847000", "181745.850000", "181745.853000", "181745.856000", "181745.858000", "181745.861000", "181745.864000", "181745.867000", "181745.870000", "181745.872000", "181745.875000", "181745.878000", "181745.881000", "181745.884000", "181745.887000", "181825.813000", "181825.816000", "181825.819000", "181825.822000", "181825.824000", "181825.827000", "181825.830000", "181825.833000", "181825.836000", "181825.838000", "181825.841000", "181825.844000", "181825.847000", "181825.850000", "181825.852000", "181825.855000", "181825.858000", "181825.861000", "181825.864000", "181825.867000", "181825.869000", "181825.872000", "181825.875000", "181825.878000", "181825.881000", "181825.884000", "181825.886000", "181905.813000", "181905.830000", "181905.833000", "181905.836000", "181905.839000", "181905.842000", "181905.844000", "181905.847000", "181905.850000", "181905.853000", "181905.864000", "181905.867000", "181905.870000", "181905.873000", "181905.876000", "181905.878000", "181905.881000", "181905.884000", "181905.887000", "181905.890000", "181905.893000", "181905.896000", "181905.898000", "181905.901000", "181905.904000", "181905.907000", "181905.910000", "181945.812000", "181945.815000", "181945.818000", "181945.820000", "181945.823000", "181945.826000", "181945.829000", "181945.832000", "181945.834000", "181945.837000", "181945.840000", "181945.843000", "181945.846000", "181945.849000", "181945.852000", "181945.854000", "181945.857000", "181945.860000", "181945.863000", "181945.866000", "181945.868000", "181945.871000", "181945.874000", "181945.877000", "181945.880000", "181945.882000", "181945.885000", "182025.813000", "182025.816000", "182025.819000", "182025.821000", "182025.824000", "182025.827000", "182025.830000", "182025.833000", "182025.836000", "182025.839000", "182025.841000", "182025.844000", "182025.847000", "182025.850000", "182025.853000", "182025.856000", "182025.858000", "182025.861000", "182025.864000", "182025.867000", "182025.870000", "182025.872000", "182025.875000", "182025.878000", "182025.881000", "182025.884000", "182025.887000", "182105.813000", "182105.816000", "182105.819000", "182105.822000", "182105.824000", "182105.827000", "182105.830000", "182105.833000", "182105.836000", "182105.839000", "182105.842000", "182105.844000", "182105.847000", "182105.850000", "182105.853000", "182105.856000", "182105.859000", "182105.861000", "182105.864000", "182105.867000", "182105.870000", "182105.873000", "182105.876000", "182105.879000", "182105.882000", "182105.885000", "182145.813000", "182145.816000", "182145.819000", "182145.822000", "182145.824000", "182145.827000", "182145.830000", "182145.833000", "182145.836000", "182145.839000", "182145.841000", "182145.844000", "182145.847000", "182145.850000", "182145.853000", "182145.856000", "182145.858000", "182145.861000", "182145.864000", "182145.867000", "182145.870000", "182145.873000", "182145.875000", "182145.878000", "182145.881000", "182145.884000", "182145.887000", "182225.813000", "182225.816000", "182225.819000", "182225.822000", "182225.824000", "182225.827000", "182225.830000", "182225.833000", "182225.836000", "182225.839000", "182225.853000", "182225.856000", "182225.859000", "182225.862000", "182225.864000", "182225.867000", "182225.870000", "182225.873000", "182225.876000", "182225.878000", "182225.881000", "182225.884000", "182225.887000", "182225.890000", "182225.893000", "182225.895000", "182225.898000", "182227.894000", "182227.898000"],
