{
  "AcquisitionMatrixPE": 104,
  "AcquisitionNumber": 1,
  "AcquisitionTime": "10:05:15.805000",
  "BandwidthPerPixelPhaseEncode": 17.17,
  "BaseResolution": 104,
  "BodyPartExamined": "BRAIN",
  "CoilCombinationMethod": "Sum of Squares",
  "ConsistencyInfo": "N4_VE11C_LATEST_20160120",
  "ConversionSoftware": "dcm2niix",
  "ConversionSoftwareVersion": "v1.0.20230411",
  "DerivedVendorReportedEchoSpacing": 0.000560011,
  "DeviceSerialNumber": "167006",
  "DwellTime": 2.1e-06,
  "EchoTime": 0.037,
  "EchoTrainLength": 104,
  "EffectiveEchoSpacing": 0.000560011,
  "FlipAngle": 52,
  "HeudiconvVersion": "0.5.3.post861+ge7d3c7f",
  "ImageComments": "Unaliased MB4/PE3/LB",
  "ImageOrientationPatientDICOM": [0.99739, 0.0712154, 0.0119234, -0.0624009, 0.933195, -0.353912],
  "ImageOrientationText": "Tra>Cor(-20.6)>Sag(2.1)",
  "ImageType": [
    "ORIGINAL",
    "PRIMARY",
    "M",
    "MB",
    "ND",
    "MOSAIC"
],
  "ImagingFrequency": 123.249617,
  "InPlanePhaseEncodingDirectionDICOM": "COL",
  "InstitutionAddress": "Chemin Queen-Mary 4565,Montreal,District,CA,H3W 1W5",
  "InstitutionName": "IUGM",
  "InstitutionalDepartmentName": "Department",
  "MRAcquisitionType": "2D",
  "MagneticFieldStrength": 3,
  "Manufacturer": "Siemens",
  "ManufacturersModelName": "Prisma_fit",
  "MatrixCoilMode": "SENSE",
  "Modality": "MR",
  "MultibandAccelerationFactor": 4,
  "NonlinearGradientCorrection": false,
  "PartialFourier": 1,
  "PatientPosition": "HFS",
  "PercentPhaseFOV": 100,
  "PercentSampling": 100,
  "PhaseEncodingDirection": "j",
  "PhaseEncodingSteps": 104,
  "PhaseResolution": 1,
  "PixelBandwidth": 2290,
  "ProcedureStepDescription": "video^friends",
  "ProtocolName": "func_task-friends-s07e06a",
  "PulseSequenceDetails": "%CustomerSeq%\\cmrr_mbep2d_bold",
  "ReceiveCoilActiveElements": "HC1-7;NC1,2",
  "ReceiveCoilName": "HeadNeck_64",
  "ReconMatrixPE": 104,
  "RepetitionTime": 1.49,
  "SAR": 0.0775165,
  "ScanOptions": "FS",
  "ScanningSequence": "EP",
  "SequenceName": "epfid2d1_104",
  "SequenceVariant": "SK\\SS",
  "SeriesDescription": "func_task-friends-s07e06a",
  "SeriesNumber": 10,
  "ShimSetting": [619, -7212, -8805, 609, 143, -10, -117, 79],
  "SliceThickness": 2,
  "SliceTiming": [0, 0.7825, 0.0975, 0.8825, 0.195, 0.98, 0.295, 1.0775, 0.3925, 1.175, 0.49, 1.2725, 0.5875, 1.3725, 0.685, 0, 0.7825, 0.0975, 0.8825, 0.195, 0.98, 0.295, 1.0775, 0.3925, 1.175, 0.49, 1.2725, 0.5875, 1.3725, 0.685, 0, 0.7825, 0.0975, 0.8825, 0.195, 0.98, 0.295, 1.0775, 0.3925, 1.175, 0.49, 1.2725, 0.5875, 1.3725, 0.685, 0, 0.7825, 0.0975, 0.8825, 0.195, 0.98, 0.295, 1.0775, 0.3925, 1.175, 0.49, 1.2725, 0.5875, 1.3725, 0.685],
  "SoftwareVersions": "syngo MR E11",
  "SpacingBetweenSlices": 2,
  "StationName": "MRC35049",
  "TaskName": "s07e06a",
  "TotalReadoutTime": 0.0576811,
  "TxRefAmp": 314.251,
  "WipMemBlock": "115e5790-4fe9-4b37-8826-5d2e080b2d00||Sequence: R017 ve11c/master r/75a17815+; Jun 28 2022 16:32:11 by eja",
  "dcmmeta_affine": [
    [-1.994779348373413, -0.12480182200670242, 0.0726616382598877, 107.2022705078125],
    [-0.14243084192276, 1.8663893938064575, -0.7044886350631714, -61.11245346069336],
    [0.02384672313928604, 0.7078243494033813, 1.8704053163528442, -58.60332107543945],
    [0.0, 0.0, 0.0, 1.0]
],
  "dcmmeta_reorient_transform": [
    [0.0, -1.0, 0.0, 103.0],
    [1.0, 0.0, 0.0, 0.0],
    [0.0, 0.0, 1.0, 0.0],
    [0.0, 0.0, 0.0, 1.0]
],
  "dcmmeta_shape": [104, 104, 60, 478],
  "dcmmeta_slice_dim": 2,
  "dcmmeta_version": 0.6,
  "global": {
    "const": {
      "AcquisitionMatrix": [104, 0, 0, 104],
      "AngioFlag": "N",
      "BitsAllocated": 16,
      "BitsStored": 16,
      "BodyPartExamined": "BRAIN",
      "Columns": 832,
      "EchoNumbers": 1,
      "EchoTime": 37.0,
      "EchoTrainLength": 104,
      "FlipAngle": 52.0,
      "HighBit": 15,
      "ImageOrientationPatient": [0.99738969194336, 0.07121541871589, 0.01192336119743, -0.0624009127056, 0.93319467715796, -0.3539121651167],
      "ImagePositionPatient": [-775.01951099027, -862.33619958394, 263.27043315181],
      "ImageType": [
        "ORIGINAL",
        "PRIMARY",
        "M",
        "MB",
        "ND",
        "MOSAIC"
],
      "ImagedNucleus": "1H",
      "ImagingFrequency": 123.249617,
      "InPlanePhaseEncodingDirection": "COL",
      "MRAcquisitionType": "2D",
      "MagneticFieldStrength": 3.0,
      "Manufacturer": "SIEMENS",
      "ManufacturerModelName": "Prisma_fit",
      "Modality": "MR",
      "NumberOfAverages": 1.0,
      "NumberOfPhaseEncodingSteps": 104,
      "PercentPhaseFieldOfView": 100.0,
      "PercentSampling": 100.0,
      "PerformedProcedureStepStartTime": "095901.654000",
      "PhotometricInterpretation": "MONOCHROME2",
      "PixelBandwidth": 2290.0,
      "PixelRepresentation": 0,
      "PixelSpacing": [2.0, 2.0],
      "ProtocolName": "func_task-friends-s07e06a",
      "RepetitionTime": 1490.0,
      "Rows": 832,
      "SAR": 0.07751654256852,
      "SamplesPerPixel": 1,
      "ScanOptions": "FS",
      "ScanningSequence": "EP",
      "SequenceName": "epfid2d1_104",
      "SequenceVariant": [
        "SK",
        "SS"
],
      "SeriesDescription": "func_task-friends-s07e06a",
      "SeriesNumber": 10,
      "SeriesTime": "100634.030000",
      "SliceLocation": -29.38472183507,
      "SliceThickness": 2.0,
      "SmallestImagePixelValue": 0,
      "SoftwareVersions": "syngo MR E11",
      "SpacingBetweenSlices": 1.999999975462,
      "SpecificCharacterSet": "ISO_IR 100",
      "StudyID": "1",
      "StudyTime": "095901.571000",
      "TransmitCoilName": "Body",
      "VariableFlipAngleFlag": "N",
      "WindowCenterWidthExplanation": "Algo1",
      "dBdt": 0.0},
    "slices": {}
  },
  "time": {
    "samples": {
      "AcquisitionNumber": [1, 2, 3, 4, 5, 6, 7, 8, 9, 10, 11, 12, 13, 14, 15, 16, 17, 18, 19, 20, 21, 22, 23, 24, 25, 26, 27, 28, 29, 30, 31, 32, 33, 34, 35, 36, 37, 38, 39, 40, 41, 42, 43, 44, 45, 46, 47, 48, 49, 50, 51, 52, 53, 54, 55, 56, 57, 58, 59, 60, 61, 62, 63, 64, 65, 66, 67, 68, 69, 70, 71, 72, 73, 74, 75, 76, 77, 78, 79, 80, 81, 82, 83, 84, 85, 86, 87, 88, 89, 90, 91, 92, 93, 94, 95, 96, 97, 98, 99, 100, 101, 102, 103, 104, 105, 106, 107, 108, 109, 110, 111, 112, 113, 114, 115, 116, 117, 118, 119, 120, 121, 122, 123, 124, 125, 126, 127, 128, 129, 130, 131, 132, 133, 134, 135, 136, 137, 138, 139, 140, 141, 142, 143, 144, 145, 146, 147, 148, 149, 150, 151, 152, 153, 154, 155, 156, 157, 158, 159, 160, 161, 162, 163, 164, 165, 166, 167, 168, 169, 170, 171, 172, 173, 174, 175, 176, 177, 178, 179, 180, 181, 182, 183, 184, 185, 186, 187, 188, 189, 190, 191, 192, 193, 194, 195, 196, 197, 198, 199, 200, 201, 202, 203, 204, 205, 206, 207, 208, 209, 210, 211, 212, 213, 214, 215, 216, 217, 218, 219, 220, 221, 222, 223, 224, 225, 226, 227, 228, 229, 230, 231, 232, 233, 234, 235, 236, 237, 238, 239, 240, 241, 242, 243, 244, 245, 246, 247, 248, 249, 250, 251, 252, 253, 254, 255, 256, 257, 258, 259, 260, 261, 262, 263, 264, 265, 266, 267, 268, 269, 270, 271, 272, 273, 274, 275, 276, 277, 278, 279, 280, 281, 282, 283, 284, 285, 286, 287, 288, 289, 290, 291, 292, 293, 294, 295, 296, 297, 298, 299, 300, 301, 302, 303, 304, 305, 306, 307, 308, 309, 310, 311, 312, 313, 314, 315, 316, 317, 318, 319, 320, 321, 322, 323, 324, 325, 326, 327, 328, 329, 330, 331, 332, 333, 334, 335, 336, 337, 338, 339, 340, 341, 342, 343, 344, 345, 346, 347, 348, 349, 350, 351, 352, 353, 354, 355, 356, 357, 358, 359, 360, 361, 362, 363, 364, 365, 366, 367, 368, 369, 370, 371, 372, 373, 374, 375, 376, 377, 378, 379, 380, 381, 382, 383, 384, 385, 386, 387, 388, 389, 390, 391, 392, 393, 394, 395, 396, 397, 398, 399, 400, 401, 402, 403, 404, 405, 406, 407, 408, 409, 410, 411, 412, 413, 414, 415, 416, 417, 418, 419, 420, 421, 422, 423, 424, 425, 426, 427, 428, 429, 430, 431, 432, 433, 434, 435, 436, 437, 438, 439, 440, 441, 442, 443, 444, 445, 446, 447, 448, 449, 450, 451, 452, 453, 454, 455, 456, 457, 458, 459, 460, 461, 462, 463, 464, 465, 466, 467, 468, 469, 470, 471, 472, 473, 474, 475, 476, 477, 478],
      "AcquisitionTime": ["100515.805000", "100517.295000", "100518.785000", "100520.275000", "100521.765000", "100523.255000", "100524.745000", "100526.235000", "100527.725000", "100529.215000", "100530.705000", "100532.195000", "100533.685000", "100535.175000", "100536.665000", "100538.155000", "100539.645000", "100541.135000", "100542.625000", "100544.115000", "100545.605000", "100547.095000", "100548.585000", "100550.075000", "100551.565000", "100553.055000", "100554.545000", "100556.035000", "100557.525000", "100559.015000", "100600.505000", "100601.995000", "100603.485000", "100604.975000", "100606.465000", "100607.955000", "100609.445000", "100610.935000", "100612.425000", "100613.915000", "100615.405000", "100616.895000", "100618.385000", "100619.875000", "100621.365000", "100622.855000", "100624.345000", "100625.835000", "100627.325000", "100628.815000", "100630.305000", "100631.795000", "100633.285000", "100634.775000", "100636.265000", "100637.755000", "100639.245000", "100640.735000", "100642.225000", "100643.715000", "100645.205000", "100646.695000", "100648.185000", "100649.675000", "100651.165000", "100652.655000", "100654.145000", "100655.635000", "100657.125000", "100658.615000", "100700.105000", "100701.595000", "100703.085000", "100704.575000", "100706.065000", "100707.555000", "100709.045000", "100710.535000", "100712.025000", "100713.515000", "100715.005000", "100716.495000", "100717.985000", "100719.475000", "100720.965000", "100722.455000", "100723.945000", "100725.435000", "100726.925000", "100728.415000", "100729.905000", "100731.395000", "100732.885000", "100734.375000", "100735.865000", "100737.355000", "100738.845000", "100740.335000", "100741.825000", "100743.315000", "100744.805000", "100746.295000", "100747.785000", "100749.275000", "100750.765000", "100752.255000", "100753.745000", "100755.235000", "100756.725000", "100758.215000", "100759.705000", "100801.195000", "100802.685000", "100804.175000", "100805.665000", "100807.155000", "100808.645000", "100810.135000", "100811.625000", "100813.115000", "100814.605000", "100816.095000", "100817.585000", "100819.075000", "100820.565000", "100822.055000", "100823.545000", "100825.035000", "100826.525000", "100828.015000", "100829.505000", "100830.995000", "100832.485000", "100833.975000", "100835.465000", "100836.955000", "100838.445000", "100839.935000", "100841.425000", "100842.915000", "100844.405000", "100845.895000", "100847.385000", "100848.875000", "100850.365000", "100851.855000", "100853.345000", "100854.835000", "100856.325000", "100857.815000", "100859.305000", "100900.795000", "100902.285000", "100903.775000", "100905.265000", "100906.755000", "100908.245000", "100909.735000", "100911.225000", "100912.715000", "100914.205000", "100915.695000", "100917.185000", "100918.675000", "100920.165000", "100921.655000", "100923.145000", "100924.635000", "100926.125000", "100927.615000", "100929.105000", "100930.595000", "100932.085000", "100933.575000", "100935.065000", "100936.555000", "100938.045000", "100939.535000", "100941.025000", "100942.515000", "100944.005000", "100945.495000", "100946.985000", "100948.475000", "100949.965000", "100951.455000", "100952.945000", "100954.435000", "100955.925000", "100957.415000", "100958.905000", "101000.395000", "101001.885000", "101003.375000", "101004.865000", "101006.355000", "101007.845000", "101009.335000", "101010.825000", "101012.315000", "101013.805000", "101015.295000", "101016.785000", "101018.275000", "101019.765000", "101021.255000", "101022.745000", "101024.235000", "101025.725000", "101027.215000", "101028.705000", "101030.195000", "101031.685000", "101033.175000", "101034.665000", "101036.155000", "101037.645000", "101039.135000", "101040.625000", "101042.115000", "101043.605000", "101045.095000", "101046.585000", "101048.075000", "101049.565000", "101051.055000", "101052.545000", "101054.035000", "101055.525000", "101057.015000", "101058.505000", "101059.995000", "101101.485000", "101102.975000", "101104.465000", "101105.955000", "101107.445000", "101108.935000", "101110.425000", "101111.915000", "101113.405000", "101114.895000", "101116.385000", "101117.875000", "101119.365000", "101120.855000", "101122.345000", "101123.835000", "101125.325000", "101126.815000", "101128.305000", "101129.795000", "101131.285000", "101132.775000", "101134.265000", "101135.755000", "101137.245000", "101138.735000", "101140.225000", "101141.715000", "101143.205000", "101144.695000", "101146.185000", "101147.675000", "101149.165000", "101150.655000", "101152.145000", "101153.635000", "101155.125000", "101156.615000", "101158.105000", "101159.595000", "101201.085000", "101202.575000", "101204.065000", "101205.555000", "101207.045000", "101208.535000", "101210.025000", "101211.515000", "101213.005000", "101214.495000", "101215.985000", "101217.475000", "101218.965000", "101220.455000", "101221.945000", "101223.435000", "101224.925000", "101226.415000", "101227.905000", "101229.395000", "101230.885000", "101232.375000", "101233.865000", "101235.355000", "101236.845000", "101238.335000", "101239.825000", "101241.315000", "101242.805000", "101244.295000", "101245.785000", "101247.275000", "101248.765000", "101250.255000", "101251.745000", "101253.235000", "101254.725000", "101256.215000", "101257.705000", "101259.195000", "101300.685000", "101302.175000", "101303.665000", "101305.155000", "101306.645000", "101308.135000", "101309.625000", "101311.115000", "101312.605000", "101314.095000", "101315.585000", "101317.075000", "101318.565000", "101320.055000", "101321.545000", "101323.035000", "101324.525000", "101326.015000", "101327.505000", "101328.995000", "101330.485000", "101331.975000", "101333.465000", "101334.955000", "101336.445000", "101337.935000", "101339.425000", "101340.915000", "101342.405000", "101343.895000", "101345.385000", "101346.875000", "101348.365000", "101349.855000", "101351.345000", "101352.835000", "101354.325000", "101355.815000", "101357.305000", "101358.795000", "101400.285000", "101401.775000", "101403.265000", "101404.755000", "101406.245000", "101407.735000", "101409.225000", "101410.715000", "101412.205000", "101413.695000", "101415.185000", "101416.675000", "101418.165000", "101419.655000", "101421.145000", "101422.635000", "101424.125000", "101425.615000", "101427.105000", "101428.595000", "101430.085000", "101431.575000", "101433.065000", "101434.555000", "101436.045000", "101437.535000", "101439.025000", "101440.515000", "101442.005000", "101443.495000", "101444.985000", "101446.475000", "101447.965000", "101449.455000", "101450.945000", "101452.435000", "101453.925000", "101455.415000", "101456.905000", "101458.395000", "101459.885000", "101501.375000", "101502.865000", "101504.355000", "101505.845000", "101507.335000", "101508.825000", "101510.315000", "101511.805000", "101513.295000", "101514.785000", "101516.275000", "101517.765000", "101519.255000", "101520.745000", "101522.235000", "101523.725000", "101525.215000", "101526.705000", "101528.195000", "101529.685000", "101531.175000", "101532.665000", "101534.155000", "101535.645000", "101537.135000", "101538.625000", "101540.115000", "101541.605000", "101543.095000", "101544.585000", "101546.075000", "101547.565000", "101549.055000", "101550.545000", "101552.035000", "101553.525000", "101555.015000", "101556.505000", "101557.995000", "101559.485000", "101600.975000", "101602.465000", "101603.955000", "101605.445000", "101606.935000", "101608.425000", "101609.915000", "101611.405000", "101612.895000", "101614.385000", "101615.875000", "101617.365000", "101618.855000", "101620.345000", "101621.835000", "101623.325000", "101624.815000", "101626.305000", "101627.795000", "101629.285000", "101630.775000", "101632.265000", "101633.755000", "101635.245000", "101636.735000", "101638.225000", "101639.715000", "101641.205000", "101642.695000", "101644.185000", "101645.675000", "101647.165000", "101648.655000", "101650.145000", "101651.635000", "101653.125000", "101654.615000", "101656.105000", "101657.595000", "101659.085000", "101700.575000", "101702.065000", "101703.555000", "101705.045000", "101706.535000"],
      "ContentTime": ["100634.033000", "100634.046000", "100634.049000", "100634.052000", "100634.055000", "100634.058000", "100634.061000", "100634.064000", "100634.067000", "100634.072000", "100634.078000", "100634.081000", "100634.084000", "100634.087000", "100634.090000", "100634.093000", "100634.096000", "100634.099000", "100634.102000", "100634.105000", "100634.108000", "100634.111000", "100634.114000", "100634.117000", "100653.993000", "100654.013000", "100654.016000", "100654.019000", "100654.022000", "100654.025000", "100654.028000", "100654.031000", "100654.034000", "100654.037000", "100654.040000", "100654.043000", "100654.046000", "100654.049000", "100654.057000", "100654.060000", "100654.063000", "100654.066000", "100654.069000", "100654.072000", "100654.074000", "100713.993000", "100713.996000", "100714.000000", "100714.003000", "100714.006000", "100714.009000", "100714.012000", "100714.015000", "100714.018000", "100714.021000", "100714.023000", "100714.026000", "100714.029000", "100714.032000", "100714.035000", "100714.038000", "100714.041000", "100714.044000", "100714.047000", "100714.050000", "100733.993000", "100733.996000", "100734.000000", "100734.003000", "100734.006000", "100734.009000", "100734.012000", "100734.015000", "100734.018000", "100734.021000", "100734.024000", "100734.027000", "100734.030000", "100734.032000", "100734.036000", "100734.039000", "100734.042000", "100734.045000", "100734.048000", "100734.051000", "100813.993000", "100813.996000", "100814.000000", "100814.003000", "100814.006000", "100814.009000", "100814.012000", "100814.015000", "100814.018000", "100814.021000", "100814.024000", "100814.027000", "100814.030000", "100814.038000", "100814.041000", "100814.044000", "100814.047000", "100814.050000", "100814.053000", "100814.056000", "100814.059000", "100814.062000", "100814.065000", "100814.067000", "100814.070000", "100814.073000", "100814.076000", "100814.079000", "100814.082000", "100814.085000", "100814.088000", "100814.091000", "100853.993000", "100853.996000", "100854.000000", "100854.019000", "100854.022000", "100854.025000", "100854.028000", "100854.031000", "100854.034000", "100854.037000", "100854.040000", "100854.043000", "100854.046000", "100854.049000", "100854.053000", "100854.056000", "100854.059000", "100854.062000", "100854.065000", "100854.068000", "100854.071000", "100854.074000", "100854.077000", "100854.080000", "100854.083000", "100854.086000", "100933.993000", "100933.996000", "100934.000000", "100934.003000", "100934.006000", "100934.009000", "100934.012000", "100934.015000", "100934.018000", "100934.021000", "100934.024000", "100934.027000", "100934.030000", "100934.033000", "100934.036000", "100934.038000", "100934.041000", "100934.044000", "100934.047000", "100934.050000", "100934.053000", "100934.056000", "100934.059000", "100934.062000", "100934.065000", "100934.068000", "100934.071000", "101013.993000", "101013.996000", "101014.000000", "101014.003000", "101014.006000", "101014.009000", "101014.012000", "101014.015000", "101014.018000", "101014.021000", "101014.024000", "101014.027000", "101014.030000", "101014.033000", "101014.036000", "101014.039000", "101014.042000", "101014.045000", "101014.048000", "101014.051000", "101014.054000", "101014.057000", "101014.060000", "101014.063000", "101014.066000", "101014.069000", "101014.072000", "101033.993000", "101033.996000", "101034.000000", "101034.003000", "101034.006000", "101034.009000", "101034.012000", "101034.015000", "101034.018000", "101034.021000", "101034.024000", "101034.027000", "101034.030000", "101034.033000", "101113.993000", "101113.998000", "101114.002000", "101114.005000", "101114.008000", "101114.010000", "101114.013000", "101114.016000", "101114.019000", "101114.022000", "101114.025000", "101114.028000", "101114.031000", "101114.034000", "101114.037000", "101114.040000", "101114.056000", "101114.060000", "101114.063000", "101114.066000", "101114.069000", "101114.072000", "101114.074000", "101114.077000", "101114.080000", "101114.083000", "101153.993000", "101153.996000", "101154.000000", "101154.003000", "101154.006000", "101154.009000", "101154.012000", "101154.015000", "101154.018000", "101154.021000", "101154.024000", "101154.027000", "101154.030000", "101154.033000", "101154.036000", "101154.039000", "101154.042000", "101154.045000", "101154.048000", "101154.050000", "101154.053000", "101154.056000", "101154.059000", "101154.062000", "101154.065000", "101154.068000", "101154.071000", "101233.993000", "101233.996000", "101234.000000", "101234.003000", "101234.006000", "101234.009000", "101234.012000", "101234.015000", "101234.018000", "101234.021000", "101234.024000", "101234.027000", "101234.030000", "101234.033000", "101234.036000", "101234.039000", "101234.042000", "101234.045000", "101234.048000", "101234.051000", "101234.054000", "101234.057000", "101234.060000", "101234.063000", "101234.066000", "101234.069000", "101234.072000", "101313.993000", "101313.996000", "101314.000000", "101314.003000", "101314.006000", "101314.009000", "101314.012000", "101314.015000", "101314.018000", "101314.021000", "101314.024000", "101314.027000", "101314.030000", "101314.033000", "101314.036000", "101314.039000", "101314.042000", "101314.045000", "101314.048000", "101314.051000", "101314.053000", "101314.056000", "101314.059000", "101314.062000", "101314.065000", "101314.068000", "101314.071000", "101353.993000", "101353.996000", "101354.000000", "101354.003000", "101354.006000", "101354.009000", "101354.012000", "101354.015000", "101354.018000", "101354.021000", "101354.024000", "101354.027000", "101354.030000", "101354.033000", "101354.036000", "101354.039000", "101354.042000", "101354.045000", "101354.048000", "101354.051000", "101354.054000", "101354.057000", "101354.060000", "101354.063000", "101354.066000", "101354.068000", "101354.071000", "101433.993000", "101433.996000", "101434.000000", "101434.003000", "101434.006000", "101434.009000", "101434.012000", "101434.015000", "101434.018000", "101434.021000", "101434.024000", "101434.027000", "101434.030000", "101434.033000", "101434.036000", "101434.039000", "101434.042000", "101434.045000", "101434.048000", "101434.051000", "101434.054000", "101434.057000", "101434.060000", "101434.063000", "101434.066000", "101434.069000", "101434.072000", "101513.993000", "101513.996000", "101514.000000", "101514.003000", "101514.006000", "101514.010000", "101514.013000", "101514.016000", "101514.019000", "101514.022000", "101514.025000", "101514.028000", "101514.031000", "101514.034000", "101514.037000", "101514.040000", "101514.043000", "101514.046000", "101514.049000", "101514.052000", "101514.055000", "101514.058000", "101514.061000", "101514.064000", "101514.066000", "101514.069000", "101553.993000", "101553.996000", "101554.000000", "101554.003000", "101554.006000", "101554.009000", "101554.012000", "101554.015000", "101554.018000", "101554.021000", "101554.024000", "101554.027000", "101554.030000", "101554.033000", "101554.036000", "101554.039000", "101554.042000", "101554.056000", "101554.059000", "101554.062000", "101554.065000", "101554.068000", "101554.071000", "101554.074000", "101554.077000", "101554.080000", "101554.083000", "101633.993000", "101633.996000", "101634.000000", "101634.003000", "101634.006000", "101634.009000", "101634.012000", "101634.015000", "101634.018000", "101634.021000", "101634.024000", "101634.027000", "101634.030000", "101634.033000", "101634.036000", "101634.039000", "101634.042000", "101634.045000", "101634.048000", "101634.051000", "101634.054000", "101634.057000", "101634.060000", "101634.063000", "101634.066000", "101634.069000", "101634.072000", "101711.794000", "101711.797000", "101711.800000", "101711.803000", "101711.806000", "101711.809000", "101711.812000", "101711.815000", "101711.818000", "101711.821000", "101711.824000", "101711.827000", "101711.830000", "101711.833000", "101711.836000", "101711.847000", "101711.850000", "101711.853000", "101711.856000", "101711.859000", "101711.862000", "101711.865000", "101711.868000", "101711.871000", "101711.874000", "101711.877000"],
