{
  "AcquisitionMatrixPE": 104,
  "AcquisitionNumber": 1,
  "AcquisitionTime": "10:18:50.155000",
  "BandwidthPerPixelPhaseEncode": 17.17,
  "BaseResolution": 104,
  "BodyPartExamined": "BRAIN",
  "CoilCombinationMethod": "Sum of Squares",
  "ConsistencyInfo": "N4_VE11C_LATEST_20160120",
  "ConversionSoftware": "dcm2niix",
  "ConversionSoftwareVersion": "v1.0.20230411",
  "DerivedVendorReportedEchoSpacing": 0.000560011,
  "DeviceSerialNumber": "167006",
  "DwellTime": 2.1e-06,
  "EchoTime": 0.037,
  "EchoTrainLength": 104,
  "EffectiveEchoSpacing": 0.000560011,
  "FlipAngle": 52,
  "HeudiconvVersion": "0.5.3.post861+ge7d3c7f",
  "ImageComments": "Unaliased MB4/PE3/LB",
  "ImageOrientationPatientDICOM": [0.99739, 0.0712154, 0.0119234, -0.0624009, 0.933195, -0.353912],
  "ImageOrientationText": "Tra>Cor(-20.6)>Sag(2.1)",
  "ImageType": [
    "ORIGINAL",
    "PRIMARY",
    "M",
    "MB",
    "ND",
    "MOSAIC"
],
  "ImagingFrequency": 123.24962,
  "InPlanePhaseEncodingDirectionDICOM": "COL",
  "InstitutionAddress": "Chemin Queen-Mary 4565,Montreal,District,CA,H3W 1W5",
  "InstitutionName": "IUGM",
  "InstitutionalDepartmentName": "Department",
  "MRAcquisitionType": "2D",
  "MagneticFieldStrength": 3,
  "Manufacturer": "Siemens",
  "ManufacturersModelName": "Prisma_fit",
  "MatrixCoilMode": "SENSE",
  "Modality": "MR",
  "MultibandAccelerationFactor": 4,
  "NonlinearGradientCorrection": false,
  "PartialFourier": 1,
  "PatientPosition": "HFS",
  "PercentPhaseFOV": 100,
  "PercentSampling": 100,
  "PhaseEncodingDirection": "j",
  "PhaseEncodingSteps": 104,
  "PhaseResolution": 1,
  "PixelBandwidth": 2290,
  "ProcedureStepDescription": "video^friends",
  "ProtocolName": "func_task-friends-s07e06b",
  "PulseSequenceDetails": "%CustomerSeq%\\cmrr_mbep2d_bold",
  "ReceiveCoilActiveElements": "HC1-7;NC1,2",
  "ReceiveCoilName": "HeadNeck_64",
  "ReconMatrixPE": 104,
  "RepetitionTime": 1.49,
  "SAR": 0.0775165,
  "ScanOptions": "FS",
  "ScanningSequence": "EP",
  "SequenceName": "epfid2d1_104",
  "SequenceVariant": "SK\\SS",
  "SeriesDescription": "func_task-friends-s07e06b",
  "SeriesNumber": 12,
  "ShimSetting": [619, -7212, -8805, 609, 143, -10, -117, 79],
  "SliceThickness": 2,
  "SliceTiming": [0, 0.785, 0.0975, 0.8825, 0.195, 0.98, 0.295, 1.0775, 0.3925, 1.175, 0.49, 1.2725, 0.5875, 1.3725, 0.685, 0, 0.785, 0.0975, 0.8825, 0.195, 0.98, 0.295, 1.0775, 0.3925, 1.175, 0.49, 1.2725, 0.5875, 1.3725, 0.685, 0, 0.785, 0.0975, 0.8825, 0.195, 0.98, 0.295, 1.0775, 0.3925, 1.175, 0.49, 1.2725, 0.5875, 1.3725, 0.685, 0, 0.785, 0.0975, 0.8825, 0.195, 0.98, 0.295, 1.0775, 0.3925, 1.175, 0.49, 1.2725, 0.5875, 1.3725, 0.685],
  "SoftwareVersions": "syngo MR E11",
  "SpacingBetweenSlices": 2,
  "StationName": "MRC35049",
  "TaskName": "s07e06b",
  "TotalReadoutTime": 0.0576811,
  "TxRefAmp": 314.251,
  "WipMemBlock": "ecb65557-869b-4440-9eea-44617ece6387||Sequence: R017 ve11c/master r/75a17815+; Jun 28 2022 16:32:11 by eja",
  "dcmmeta_affine": [
    [-1.994779348373413, -0.12480182200670242, 0.0726616382598877, 107.2022705078125],
    [-0.14243084192276, 1.8663893938064575, -0.7044886350631714, -61.11245346069336],
    [0.02384672313928604, 0.7078243494033813, 1.8704053163528442, -58.60332107543945],
    [0.0, 0.0, 0.0, 1.0]
],
  "dcmmeta_reorient_transform": [
    [0.0, -1.0, 0.0, 103.0],
    [1.0, 0.0, 0.0, 0.0],
    [0.0, 0.0, 1.0, 0.0],
    [0.0, 0.0, 0.0, 1.0]
],
  "dcmmeta_shape": [104, 104, 60, 513],
  "dcmmeta_slice_dim": 2,
  "dcmmeta_version": 0.6,
  "global": {
    "const": {
      "AcquisitionMatrix": [104, 0, 0, 104],
      "AngioFlag": "N",
      "BitsAllocated": 16,
      "BitsStored": 16,
      "BodyPartExamined": "BRAIN",
      "Columns": 832,
      "EchoNumbers": 1,
      "EchoTime": 37.0,
      "EchoTrainLength": 104,
      "FlipAngle": 52.0,
      "HighBit": 15,
      "ImageOrientationPatient": [0.99738969194336, 0.07121541871589, 0.01192336119743, -0.0624009127056, 0.93319467715796, -0.3539121651167],
      "ImagePositionPatient": [-775.01951099027, -862.33619958394, 263.27043315181],
      "ImageType": [
        "ORIGINAL",
        "PRIMARY",
        "M",
        "MB",
        "ND",
        "MOSAIC"
],
      "ImagedNucleus": "1H",
      "ImagingFrequency": 123.24962,
      "InPlanePhaseEncodingDirection": "COL",
      "MRAcquisitionType": "2D",
      "MagneticFieldStrength": 3.0,
      "Manufacturer": "SIEMENS",
      "ManufacturerModelName": "Prisma_fit",
      "Modality": "MR",
      "NumberOfAverages": 1.0,
      "NumberOfPhaseEncodingSteps": 104,
      "PercentPhaseFieldOfView": 100.0,
      "PercentSampling": 100.0,
      "PerformedProcedureStepStartTime": "095901.654000",
      "PhotometricInterpretation": "MONOCHROME2",
      "PixelBandwidth": 2290.0,
      "PixelRepresentation": 0,
      "PixelSpacing": [2.0, 2.0],
      "ProtocolName": "func_task-friends-s07e06b",
      "RepetitionTime": 1490.0,
      "Rows": 832,
      "SAR": 0.07751654262978,
      "SamplesPerPixel": 1,
      "ScanOptions": "FS",
      "ScanningSequence": "EP",
      "SequenceName": "epfid2d1_104",
      "SequenceVariant": [
        "SK",
        "SS"
],
      "SeriesDescription": "func_task-friends-s07e06b",
      "SeriesNumber": 12,
      "SeriesTime": "102007.811000",
      "SliceLocation": -29.38472183507,
      "SliceThickness": 2.0,
      "SmallestImagePixelValue": 0,
      "SoftwareVersions": "syngo MR E11",
      "SpacingBetweenSlices": 1.999999975462,
      "SpecificCharacterSet": "ISO_IR 100",
      "StudyID": "1",
      "StudyTime": "095901.571000",
      "TransmitCoilName": "Body",
      "VariableFlipAngleFlag": "N",
      "WindowCenterWidthExplanation": "Algo1",
      "dBdt": 0.0},
    "slices": {}
  },
  "time": {
    "samples": {
      "AcquisitionNumber": [1, 2, 3, 4, 5, 6, 7, 8, 9, 10, 11, 12, 13, 14, 15, 16, 17, 18, 19, 20, 21, 22, 23, 24, 25, 26, 27, 28, 29, 30, 31, 32, 33, 34, 35, 36, 37, 38, 39, 40, 41, 42, 43, 44, 45, 46, 47, 48, 49, 50, 51, 52, 53, 54, 55, 56, 57, 58, 59, 60, 61, 62, 63, 64, 65, 66, 67, 68, 69, 70, 71, 72, 73, 74, 75, 76, 77, 78, 79, 80, 81, 82, 83, 84, 85, 86, 87, 88, 89, 90, 91, 92, 93, 94, 95, 96, 97, 98, 99, 100, 101, 102, 103, 104, 105, 106, 107, 108, 109, 110, 111, 112, 113, 114, 115, 116, 117, 118, 119, 120, 121, 122, 123, 124, 125, 126, 127, 128, 129, 130, 131, 132, 133, 134, 135, 136, 137, 138, 139, 140, 141, 142, 143, 144, 145, 146, 147, 148, 149, 150, 151, 152, 153, 154, 155, 156, 157, 158, 159, 160, 161, 162, 163, 164, 165, 166, 167, 168, 169, 170, 171, 172, 173, 174, 175, 176, 177, 178, 179, 180, 181, 182, 183, 184, 185, 186, 187, 188, 189, 190, 191, 192, 193, 194, 195, 196, 197, 198, 199, 200, 201, 202, 203, 204, 205, 206, 207, 208, 209, 210, 211, 212, 213, 214, 215, 216, 217, 218, 219, 220, 221, 222, 223, 224, 225, 226, 227, 228, 229, 230, 231, 232, 233, 234, 235, 236, 237, 238, 239, 240, 241, 242, 243, 244, 245, 246, 247, 248, 249, 250, 251, 252, 253, 254, 255, 256, 257, 258, 259, 260, 261, 262, 263, 264, 265, 266, 267, 268, 269, 270, 271, 272, 273, 274, 275, 276, 277, 278, 279, 280, 281, 282, 283, 284, 285, 286, 287, 288, 289, 290, 291, 292, 293, 294, 295, 296, 297, 298, 299, 300, 301, 302, 303, 304, 305, 306, 307, 308, 309, 310, 311, 312, 313, 314, 315, 316, 317, 318, 319, 320, 321, 322, 323, 324, 325, 326, 327, 328, 329, 330, 331, 332, 333, 334, 335, 336, 337, 338, 339, 340, 341, 342, 343, 344, 345, 346, 347, 348, 349, 350, 351, 352, 353, 354, 355, 356, 357, 358, 359, 360, 361, 362, 363, 364, 365, 366, 367, 368, 369, 370, 371, 372, 373, 374, 375, 376, 377, 378, 379, 380, 381, 382, 383, 384, 385, 386, 387, 388, 389, 390, 391, 392, 393, 394, 395, 396, 397, 398, 399, 400, 401, 402, 403, 404, 405, 406, 407, 408, 409, 410, 411, 412, 413, 414, 415, 416, 417, 418, 419, 420, 421, 422, 423, 424, 425, 426, 427, 428, 429, 430, 431, 432, 433, 434, 435, 436, 437, 438, 439, 440, 441, 442, 443, 444, 445, 446, 447, 448, 449, 450, 451, 452, 453, 454, 455, 456, 457, 458, 459, 460, 461, 462, 463, 464, 465, 466, 467, 468, 469, 470, 471, 472, 473, 474, 475, 476, 477, 478, 479, 480, 481, 482, 483, 484, 485, 486, 487, 488, 489, 490, 491, 492, 493, 494, 495, 496, 497, 498, 499, 500, 501, 502, 503, 504, 505, 506, 507, 508, 509, 510, 511, 512, 513],
      "AcquisitionTime": ["101850.155000", "101851.645000", "101853.135000", "101854.625000", "101856.115000", "101857.605000", "101859.095000", "101900.585000", "101902.075000", "101903.565000", "101905.055000", "101906.545000", "101908.035000", "101909.525000", "101911.015000", "101912.505000", "101913.995000", "101915.485000", "101916.975000", "101918.465000", "101919.955000", "101921.445000", "101922.935000", "101924.425000", "101925.915000", "101927.405000", "101928.895000", "101930.385000", "101931.875000", "101933.365000", "101934.855000", "101936.345000", "101937.835000", "101939.325000", "101940.815000", "101942.305000", "101943.795000", "101945.285000", "101946.775000", "101948.265000", "101949.755000", "101951.245000", "101952.735000", "101954.225000", "101955.715000", "101957.205000", "101958.695000", "102000.185000", "102001.675000", "102003.165000", "102004.655000", "102006.145000", "102007.635000", "102009.125000", "102010.615000", "102012.105000", "102013.595000", "102015.085000", "102016.575000", "102018.065000", "102019.555000", "102021.045000", "102022.535000", "102024.025000", "102025.515000", "102027.005000", "102028.495000", "102029.985000", "102031.475000", "102032.965000", "102034.455000", "102035.945000", "102037.435000", "102038.925000", "102040.415000", "102041.905000", "102043.395000", "102044.885000", "102046.375000", "102047.865000", "102049.355000", "102050.845000", "102052.335000", "102053.825000", "102055.315000", "102056.805000", "102058.295000", "102059.785000", "102101.275000", "102102.765000", "102104.255000", "102105.745000", "102107.235000", "102108.725000", "102110.215000", "102111.705000", "102113.195000", "102114.685000", "102116.175000", "102117.665000", "102119.155000", "102120.645000", "102122.135000", "102123.625000", "102125.115000", "102126.605000", "102128.095000", "102129.585000", "102131.075000", "102132.565000", "102134.055000", "102135.545000", "102137.035000", "102138.525000", "102140.015000", "102141.505000", "102142.995000", "102144.485000", "102145.975000", "102147.465000", "102148.955000", "102150.445000", "102151.935000", "102153.425000", "102154.915000", "102156.405000", "102157.895000", "102159.385000", "102200.875000", "102202.365000", "102203.855000", "102205.345000", "102206.835000", "102208.325000", "102209.815000", "102211.305000", "102212.795000", "102214.285000", "102215.775000", "102217.265000", "102218.755000", "102220.245000", "102221.735000", "102223.225000", "102224.715000", "102226.205000", "102227.695000", "102229.185000", "102230.675000", "102232.165000", "102233.655000", "102235.145000", "102236.635000", "102238.125000", "102239.615000", "102241.105000", "102242.595000", "102244.085000", "102245.575000", "102247.065000", "102248.555000", "102250.045000", "102251.535000", "102253.025000", "102254.515000", "102256.005000", "102257.495000", "102258.985000", "102300.475000", "102301.965000", "102303.455000", "102304.945000", "102306.435000", "102307.925000", "102309.415000", "102310.905000", "102312.395000", "102313.885000", "102315.375000", "102316.865000", "102318.355000", "102319.845000", "102321.335000", "102322.825000", "102324.315000", "102325.805000", "102327.295000", "102328.785000", "102330.275000", "102331.765000", "102333.255000", "102334.745000", "102336.235000", "102337.725000", "102339.215000", "102340.705000", "102342.195000", "102343.685000", "102345.175000", "102346.665000", "102348.155000", "102349.645000", "102351.135000", "102352.625000", "102354.115000", "102355.605000", "102357.095000", "102358.585000", "102400.075000", "102401.565000", "102403.055000", "102404.545000", "102406.035000", "102407.525000", "102409.015000", "102410.505000", "102411.995000", "102413.485000", "102414.975000", "102416.465000", "102417.955000", "102419.445000", "102420.935000", "102422.425000", "102423.915000", "102425.405000", "102426.895000", "102428.385000", "102429.875000", "102431.365000", "102432.855000", "102434.345000", "102435.835000", "102437.325000", "102438.815000", "102440.305000", "102441.795000", "102443.285000", "102444.775000", "102446.265000", "102447.755000", "102449.245000", "102450.735000", "102452.225000", "102453.715000", "102455.205000", "102456.695000", "102458.185000", "102459.675000", "102501.165000", "102502.655000", "102504.145000", "102505.635000", "102507.125000", "102508.615000", "102510.105000", "102511.595000", "102513.085000", "102514.575000", "102516.065000", "102517.555000", "102519.045000", "102520.535000", "102522.025000", "102523.515000", "102525.005000", "102526.495000", "102527.985000", "102529.475000", "102530.965000", "102532.455000", "102533.945000", "102535.435000", "102536.925000", "102538.415000", "102539.905000", "102541.395000", "102542.885000", "102544.375000", "102545.865000", "102547.355000", "102548.845000", "102550.335000", "102551.825000", "102553.315000", "102554.805000", "102556.295000", "102557.785000", "102559.275000", "102600.765000", "102602.255000", "102603.745000", "102605.235000", "102606.725000", "102608.215000", "102609.705000", "102611.195000", "102612.685000", "102614.175000", "102615.665000", "102617.155000", "102618.645000", "102620.135000", "102621.625000", "102623.115000", "102624.605000", "102626.095000", "102627.585000", "102629.075000", "102630.565000", "102632.055000", "102633.545000", "102635.035000", "102636.525000", "102638.015000", "102639.505000", "102640.995000", "102642.485000", "102643.975000", "102645.465000", "102646.955000", "102648.445000", "102649.935000", "102651.425000", "102652.915000", "102654.405000", "102655.895000", "102657.385000", "102658.875000", "102700.365000", "102701.855000", "102703.345000", "102704.835000", "102706.325000", "102707.815000", "102709.305000", "102710.795000", "102712.285000", "102713.775000", "102715.265000", "102716.755000", "102718.245000", "102719.735000", "102721.225000", "102722.715000", "102724.205000", "102725.695000", "102727.185000", "102728.675000", "102730.165000", "102731.655000", "102733.145000", "102734.635000", "102736.125000", "102737.615000", "102739.105000", "102740.595000", "102742.085000", "102743.575000", "102745.065000", "102746.555000", "102748.045000", "102749.535000", "102751.025000", "102752.515000", "102754.005000", "102755.495000", "102756.985000", "102758.475000", "102759.965000", "102801.455000", "102802.945000", "102804.435000", "102805.925000", "102807.415000", "102808.905000", "102810.395000", "102811.885000", "102813.375000", "102814.865000", "102816.355000", "102817.845000", "102819.335000", "102820.825000", "102822.315000", "102823.805000", "102825.295000", "102826.785000", "102828.275000", "102829.765000", "102831.255000", "102832.745000", "102834.235000", "102835.725000", "102837.215000", "102838.705000", "102840.195000", "102841.685000", "102843.175000", "102844.665000", "102846.155000", "102847.645000", "102849.135000", "102850.625000", "102852.115000", "102853.605000", "102855.095000", "102856.585000", "102858.075000", "102859.565000", "102901.055000", "102902.545000", "102904.035000", "102905.525000", "102907.015000", "102908.505000", "102909.995000", "102911.485000", "102912.975000", "102914.465000", "102915.955000", "102917.445000", "102918.935000", "102920.425000", "102921.915000", "102923.405000", "102924.895000", "102926.385000", "102927.875000", "102929.365000", "102930.855000", "102932.345000", "102933.835000", "102935.325000", "102936.815000", "102938.305000", "102939.795000", "102941.285000", "102942.775000", "102944.265000", "102945.755000", "102947.245000", "102948.735000", "102950.225000", "102951.715000", "102953.205000", "102954.695000", "102956.185000", "102957.675000", "102959.165000", "103000.655000", "103002.145000", "103003.635000", "103005.125000", "103006.615000", "103008.105000", "103009.595000", "103011.085000", "103012.575000", "103014.065000", "103015.555000", "103017.045000", "103018.535000", "103020.025000", "103021.515000", "103023.005000", "103024.495000", "103025.985000", "103027.475000", "103028.965000", "103030.455000", "103031.945000", "103033.435000", "103034.925000", "103036.415000", "103037.905000", "103039.395000", "103040.885000", "103042.375000", "103043.865000", "103045.355000", "103046.845000", "103048.335000", "103049.825000", "103051.315000", "103052.805000", "103054.295000", "103055.785000", "103057.275000", "103058.765000", "103100.255000", "103101.745000", "103103.235000", "103104.725000", "103106.215000", "103107.705000", "103109.195000", "103110.685000", "103112.175000", "103113.665000", "103115.155000", "103116.645000", "103118.135000", "103119.625000", "103121.115000", "103122.605000", "103124.095000", "103125.585000", "103127.075000", "103128.565000", "103130.055000", "103131.545000", "103133.035000"],
      "ContentTime": ["102007.813000", "102007.817000", "102007.820000", "102007.823000", "102007.826000", "102007.834000", "102007.836000", "102007.839000", "102007.842000", "102007.851000", "102007.854000", "102007.857000", "102007.860000", "102007.863000", "102007.866000", "102007.869000", "102007.872000", "102007.874000", "102007.880000", "102007.883000", "102007.886000", "102007.889000", "102007.892000", "102007.895000", "102007.898000", "102007.901000", "102007.904000", "102027.772000", "102027.775000", "102027.778000", "102027.781000", "102027.784000", "102027.787000", "102027.790000", "102027.793000", "102027.796000", "102027.799000", "102027.802000", "102027.805000", "102027.816000", "102027.819000", "102027.822000", "102027.825000", "102027.828000", "102027.831000", "102027.833000", "102027.836000", "102047.772000", "102047.779000", "102047.782000", "102047.785000", "102047.788000", "102047.791000", "102047.794000", "102047.797000", "102047.800000", "102047.803000", "102047.806000", "102047.809000", "102047.812000", "102047.815000", "102047.821000", "102047.825000", "102047.828000", "102047.830000", "102047.833000", "102047.836000", "102107.772000", "102107.775000", "102107.778000", "102107.781000", "102107.784000", "102107.787000", "102107.790000", "102107.792000", "102107.795000", "102107.798000", "102107.801000", "102107.804000", "102107.807000", "102107.810000", "102107.813000", "102107.816000", "102107.819000", "102107.822000", "102107.825000", "102107.828000", "102147.772000", "102147.775000", "102147.778000", "102147.781000", "102147.784000", "102147.787000", "102147.790000", "102147.793000", "102147.796000", "102147.799000", "102147.802000", "102147.805000", "102147.814000", "102147.817000", "102147.820000", "102147.823000", "102147.826000", "102147.829000", "102147.832000", "102147.835000", "102147.838000", "102147.841000", "102147.844000", "102147.847000", "102147.850000", "102147.853000", "102147.856000", "102147.859000", "102147.862000", "102147.865000", "102227.772000", "102227.784000", "102227.787000", "102227.790000", "102227.793000", "102227.796000", "102227.799000", "102227.802000", "102227.805000", "102227.808000", "102227.811000", "102227.814000", "102227.817000", "102227.819000", "102227.822000", "102227.825000", "102227.828000", "102227.831000", "102227.834000", "102227.837000", "102227.840000", "102227.843000", "102227.846000", "102227.849000", "102227.852000", "102227.855000", "102307.772000", "102307.775000", "102307.778000", "102307.781000", "102307.784000", "102307.787000", "102307.790000", "102307.793000", "102307.796000", "102307.799000", "102307.802000", "102307.805000", "102307.808000", "102307.811000", "102307.814000", "102307.824000", "102307.827000", "102307.830000", "102307.833000", "102307.836000", "102307.839000", "102307.841000", "102307.844000", "102307.847000", "102307.850000", "102307.853000", "102307.856000", "102347.772000", "102347.775000", "102347.778000", "102347.793000", "102347.796000", "102347.799000", "102347.802000", "102347.805000", "102347.808000", "102347.811000", "102347.814000", "102347.818000", "102347.821000", "102347.823000", "102347.826000", "102347.829000", "102347.832000", "102347.835000", "102347.838000", "102347.842000", "102347.845000", "102347.847000", "102347.850000", "102347.854000", "102347.857000", "102347.859000", "102347.862000", "102427.772000", "102427.775000", "102427.778000", "102427.781000", "102427.784000", "102427.787000", "102427.790000", "102427.793000", "102427.796000", "102427.799000", "102427.802000", "102427.805000", "102427.808000", "102427.811000", "102427.814000", "102427.817000", "102427.820000", "102427.823000", "102427.826000", "102427.829000", "102427.832000", "102427.835000", "102427.838000", "102427.841000", "102427.844000", "102427.847000", "102427.849000", "102507.772000", "102507.775000", "102507.778000", "102507.781000", "102507.784000", "102507.787000", "102507.790000", "102507.793000", "102507.796000", "102507.799000", "102507.802000", "102507.805000", "102507.808000", "102507.811000", "102507.814000", "102507.817000", "102507.820000", "102507.823000", "102507.826000", "102507.829000", "102507.832000", "102507.847000", "102507.850000", "102507.853000", "102507.856000", "102507.859000", "102507.862000", "102547.772000", "102547.775000", "102547.778000", "102547.781000", "102547.784000", "102547.787000", "102547.790000", "102547.793000", "102547.796000", "102547.799000", "102547.802000", "102547.805000", "102547.808000", "102547.811000", "102547.814000", "102547.817000", "102547.820000", "102547.823000", "102547.826000", "102547.829000", "102547.832000", "102547.835000", "102547.838000", "102547.841000", "102547.844000", "102547.847000", "102547.849000", "102627.772000", "102627.775000", "102627.778000", "102627.781000", "102627.784000", "102627.787000", "102627.790000", "102627.793000", "102627.796000", "102627.799000", "102627.802000", "102627.805000", "102627.808000", "102627.811000", "102627.813000", "102627.816000", "102627.819000", "102627.822000", "102627.825000", "102627.828000", "102627.831000", "102627.834000", "102627.837000", "102627.840000", "102627.843000", "102627.846000", "102627.849000", "102707.772000", "102707.775000", "102707.778000", "102707.783000", "102707.786000", "102707.789000", "102707.792000", "102707.795000", "102707.798000", "102707.804000", "102707.807000", "102707.810000", "102707.813000", "102707.816000", "102707.819000", "102707.821000", "102707.825000", "102707.827000", "102707.830000", "102707.833000", "102707.836000", "102707.839000", "102707.842000", "102707.845000", "102707.848000", "102707.851000", "102747.772000", "102747.775000", "102747.778000", "102747.781000", "102747.784000", "102747.787000", "102747.790000", "102747.793000", "102747.796000", "102747.799000", "102747.802000", "102747.805000", "102747.807000", "102747.810000", "102747.813000", "102747.816000", "102747.819000", "102747.822000", "102747.825000", "102747.828000", "102747.831000", "102747.834000", "102747.837000", "102747.840000", "102747.843000", "102747.846000", "102747.849000", "102827.772000", "102827.775000", "102827.778000", "102827.798000", "102827.801000", "102827.804000", "102827.807000", "102827.810000", "102827.813000", "102827.816000", "102827.819000", "102827.822000", "102827.825000", "102827.828000", "102827.831000", "102827.834000", "102827.837000", "102827.840000", "102827.843000", "102827.846000", "102827.849000", "102827.852000", "102827.855000", "102827.858000", "102827.860000", "102827.863000", "102827.866000", "102907.772000", "102907.775000", "102907.778000", "102907.781000", "102907.784000", "102907.787000", "102907.790000", "102907.793000", "102907.796000", "102907.799000", "102907.802000", "102907.805000", "102907.808000", "102907.811000", "102907.814000", "102907.817000", "102907.820000", "102907.823000", "102907.825000", "102907.828000", "102907.831000", "102907.834000", "102907.837000", "102907.840000", "102907.843000", "102907.846000", "102907.849000", "102947.772000", "102947.775000", "102947.778000", "102947.781000", "102947.784000", "102947.787000", "102947.790000", "102947.793000", "102947.796000", "102947.799000", "102947.802000", "102947.805000", "102947.808000", "102947.811000", "102947.814000", "102947.817000", "102947.820000", "102947.823000", "102947.826000", "102947.829000", "102947.832000", "102947.834000", "102947.837000", "102947.840000", "102947.843000", "102947.846000", "102947.849000", "103027.772000", "103027.775000", "103027.778000", "103027.781000", "103027.784000", "103027.787000", "103027.790000", "103027.793000", "103027.796000", "103027.799000", "103027.802000", "103027.805000", "103027.808000", "103027.811000", "103027.814000", "103027.817000", "103027.820000", "103027.823000", "103027.826000", "103027.829000", "103027.832000", "103027.835000", "103027.838000", "103027.841000", "103027.844000", "103027.847000", "103027.849000", "103107.772000", "103107.775000", "103107.778000", "103107.781000", "103107.784000", "103107.787000", "103107.790000", "103107.793000", "103107.796000", "103107.799000", "103107.802000", "103107.805000", "103107.808000", "103107.811000", "103107.814000", "103107.817000", "103107.820000", "103107.823000", "103107.826000", "103107.829000", "103107.832000", "103107.835000", "103107.838000", "103107.841000", "103107.844000", "103107.847000", "103137.664000", "103137.667000", "103137.670000", "103137.673000", "103137.676000", "103137.679000", "103137.682000", "103137.685000", "103137.688000", "103137.691000", "103137.694000", "103137.697000", "103137.700000", "103137.703000", "103137.706000", "103137.709000", "103137.712000", "103137.715000", "103137.718000", "103137.721000", "103137.724000"],
