{
  "AcquisitionMatrixPE": 104,
  "AcquisitionNumber": 1,
  "AcquisitionTime": "11:42:5.627500",
  "BandwidthPerPixelPhaseEncode": 17.17,
  "BaseResolution": 104,
  "BodyPartExamined": "BRAIN",
  "CoilString": "HC1-7;NC1_2",
  "ConsistencyInfo": "N4_VE11C_LATEST_20160120",
  "ConversionSoftware": "dcm2niix",
  "ConversionSoftwareVersion": "v1.0.20190902",
  "DerivedVendorReportedEchoSpacing": 0.000560011,
  "DeviceSerialNumber": "167006",
  "DwellTime": 2.1e-06,
  "EchoTime": 0.037,
  "EchoTrainLength": 104,
  "EffectiveEchoSpacing": 0.000560011,
  "FlipAngle": 52,
  "HeudiconvVersion": "0.10.0",
  "ImageComments": "Unaliased_MB4_PE3_LB",
  "ImageOrientationPatientDICOM": [0.999411, 0.00733786, 0.0335086, 0.0116874, 0.845563, -0.533748],
  "ImageType": [
    "ORIGINAL",
    "PRIMARY",
    "M",
    "MB",
    "ND",
    "MOSAIC"
],
  "ImagingFrequency": 123.259,
  "InPlanePhaseEncodingDirectionDICOM": "COL",
  "InstitutionAddress": "Chemin_Queen-Mary_4565_Montreal_District_CA_H3W_1W5",
  "InstitutionName": "IUGM",
  "InstitutionalDepartmentName": "Department",
  "MRAcquisitionType": "2D",
  "MagneticFieldStrength": 3,
  "Manufacturer": "Siemens",
  "ManufacturersModelName": "Prisma_fit",
  "Modality": "MR",
  "MultibandAccelerationFactor": 4,
  "PartialFourier": 1,
  "PatientPosition": "HFS",
  "PercentPhaseFOV": 100,
  "PhaseEncodingDirection": "j",
  "PhaseEncodingSteps": 104,
  "PhaseResolution": 1,
  "PixelBandwidth": 2290,
  "ProcedureStepDescription": "video_friends",
  "ProtocolName": "func_task-friends-s06e10a",
  "PulseSequenceDetails": "%CustomerSeq%_cmrr_mbep2d_bold",
  "ReceiveCoilActiveElements": "HC1-7;NC1,2",
  "ReceiveCoilName": "HeadNeck_64",
  "ReconMatrixPE": 104,
  "RepetitionTime": 1.49,
  "SAR": 0.048233,
  "ScanOptions": "FS",
  "ScanningSequence": "EP",
  "SequenceName": "epfid2d1_104",
  "SequenceVariant": "SK_SS",
  "SeriesDescription": "func_task-friends-s06e10a",
  "SeriesNumber": 13,
  "ShimSetting": [627, -7185, -8851, 262, 12, -240, -30, 36],
  "SliceThickness": 2,
  "SliceTiming": [0, 0.785, 0.0975, 0.8825, 0.1975, 0.98, 0.295, 1.0775, 0.3925, 1.175, 0.49, 1.275, 0.5875, 1.3725, 0.685, 0, 0.785, 0.0975, 0.8825, 0.1975, 0.98, 0.295, 1.0775, 0.3925, 1.175, 0.49, 1.275, 0.5875, 1.3725, 0.685, 0, 0.785, 0.0975, 0.8825, 0.1975, 0.98, 0.295, 1.0775, 0.3925, 1.175, 0.49, 1.275, 0.5875, 1.3725, 0.685, 0, 0.785, 0.0975, 0.8825, 0.1975, 0.98, 0.295, 1.0775, 0.3925, 1.175, 0.49, 1.275, 0.5875, 1.3725, 0.685],
  "SoftwareVersions": "syngo_MR_E11",
  "SpacingBetweenSlices": 2,
  "StationName": "MRC35049",
  "TaskName": "s06e10a",
  "TotalReadoutTime": 0.0576811,
  "TxRefAmp": 263.801,
  "WipMemBlock": "e76dd52e-563f-4cec-a4e7-9a29c0a14bff||Sequence: R016 ve11c/master r/e634e98; Dec 19 2017 11:00:25 by eja",
  "dcmmeta_affine": [
    [-1.9988229274749756, 0.02337481454014778, 0.06450046598911285, 100.03158569335938],
    [-0.014675721526145935, 1.6911262273788452, -1.0676500797271729, -55.8907356262207],
    [0.06701727956533432, 1.0674951076507568, 1.6899594068527222, -101.94651794433594],
    [0.0, 0.0, 0.0, 1.0]
],
  "dcmmeta_reorient_transform": [
    [0.0, -1.0, 0.0, 103.0],
    [1.0, 0.0, 0.0, 0.0],
    [0.0, 0.0, 1.0, 0.0],
    [0.0, 0.0, 0.0, 1.0]
],
  "dcmmeta_shape": [104, 104, 60, 466],
  "dcmmeta_slice_dim": 2,
  "dcmmeta_version": 0.6,
  "global": {
    "const": {
      "AcquisitionMatrix": [104, 0, 0, 104],
      "AngioFlag": "N",
      "BitsAllocated": 16,
      "BitsStored": 16,
      "BodyPartExamined": "BRAIN",
      "Columns": 832,
      "EchoNumbers": 1,
      "EchoTime": 37.0,
      "EchoTrainLength": 104,
      "FlipAngle": 52.0,
      "HighBit": 15,
      "ImageOrientationPatient": [0.999411490298, 0.00733786089039, 0.03350863855601, 0.01168740699372, 0.84556310878679, -0.5337475373026],
      "ImagePositionPatient": [-838.51919155664, -739.2071717586, 372.17939272445],
      "ImageType": [
        "ORIGINAL",
        "PRIMARY",
        "M",
        "MB",
        "ND",
        "MOSAIC"
],
      "ImagedNucleus": "1H",
      "ImagingFrequency": 123.25886,
      "InPlanePhaseEncodingDirection": "COL",
      "MRAcquisitionType": "2D",
      "MagneticFieldStrength": 3.0,
      "Manufacturer": "SIEMENS",
      "ManufacturerModelName": "Prisma_fit",
      "Modality": "MR",
      "NumberOfAverages": 1.0,
      "NumberOfPhaseEncodingSteps": 104,
      "PercentPhaseFieldOfView": 100.0,
      "PercentSampling": 100.0,
      "PerformedProcedureStepStartTime": "102930.433000",
      "PhotometricInterpretation": "MONOCHROME2",
      "PixelBandwidth": 2290.0,
      "PixelRepresentation": 0,
      "PixelSpacing": [2.0, 2.0],
      "ProtocolName": "func_task-friends-s06e10a",
      "RepetitionTime": 1490.0,
      "Rows": 832,
      "SAR": 0.04823296326031,
      "SamplesPerPixel": 1,
      "ScanOptions": "FS",
      "ScanningSequence": "EP",
      "SequenceName": "epfid2d1_104",
      "SequenceVariant": [
        "SK",
        "SS"
],
      "SeriesDescription": "func_task-friends-s06e10a",
      "SeriesNumber": 13,
      "SeriesTime": "114337.650000",
      "SliceLocation": -53.080824731124,
      "SliceThickness": 2.0,
      "SmallestImagePixelValue": 0,
      "SoftwareVersions": "syngo MR E11",
      "SpacingBetweenSlices": 2.0000000117417,
      "SpecificCharacterSet": "ISO_IR 100",
      "StudyID": "1",
      "StudyTime": "102930.347000",
      "TransmitCoilName": "Body",
      "VariableFlipAngleFlag": "N",
      "WindowCenterWidthExplanation": "Algo1",
      "dBdt": 0.0},
    "slices": {}
  },
  "time": {
    "samples": {
      "AcquisitionNumber": [1, 2, 3, 4, 5, 6, 7, 8, 9, 10, 11, 12, 13, 14, 15, 16, 17, 18, 19, 20, 21, 22, 23, 24, 25, 26, 27, 28, 29, 30, 31, 32, 33, 34, 35, 36, 37, 38, 39, 40, 41, 42, 43, 44, 45, 46, 47, 48, 49, 50, 51, 52, 53, 54, 55, 56, 57, 58, 59, 60, 61, 62, 63, 64, 65, 66, 67, 68, 69, 70, 71, 72, 73, 74, 75, 76, 77, 78, 79, 80, 81, 82, 83, 84, 85, 86, 87, 88, 89, 90, 91, 92, 93, 94, 95, 96, 97, 98, 99, 100, 101, 102, 103, 104, 105, 106, 107, 108, 109, 110, 111, 112, 113, 114, 115, 116, 117, 118, 119, 120, 121, 122, 123, 124, 125, 126, 127, 128, 129, 130, 131, 132, 133, 134, 135, 136, 137, 138, 139, 140, 141, 142, 143, 144, 145, 146, 147, 148, 149, 150, 151, 152, 153, 154, 155, 156, 157, 158, 159, 160, 161, 162, 163, 164, 165, 166, 167, 168, 169, 170, 171, 172, 173, 174, 175, 176, 177, 178, 179, 180, 181, 182, 183, 184, 185, 186, 187, 188, 189, 190, 191, 192, 193, 194, 195, 196, 197, 198, 199, 200, 201, 202, 203, 204, 205, 206, 207, 208, 209, 210, 211, 212, 213, 214, 215, 216, 217, 218, 219, 220, 221, 222, 223, 224, 225, 226, 227, 228, 229, 230, 231, 232, 233, 234, 235, 236, 237, 238, 239, 240, 241, 242, 243, 244, 245, 246, 247, 248, 249, 250, 251, 252, 253, 254, 255, 256, 257, 258, 259, 260, 261, 262, 263, 264, 265, 266, 267, 268, 269, 270, 271, 272, 273, 274, 275, 276, 277, 278, 279, 280, 281, 282, 283, 284, 285, 286, 287, 288, 289, 290, 291, 292, 293, 294, 295, 296, 297, 298, 299, 300, 301, 302, 303, 304, 305, 306, 307, 308, 309, 310, 311, 312, 313, 314, 315, 316, 317, 318, 319, 320, 321, 322, 323, 324, 325, 326, 327, 328, 329, 330, 331, 332, 333, 334, 335, 336, 337, 338, 339, 340, 341, 342, 343, 344, 345, 346, 347, 348, 349, 350, 351, 352, 353, 354, 355, 356, 357, 358, 359, 360, 361, 362, 363, 364, 365, 366, 367, 368, 369, 370, 371, 372, 373, 374, 375, 376, 377, 378, 379, 380, 381, 382, 383, 384, 385, 386, 387, 388, 389, 390, 391, 392, 393, 394, 395, 396, 397, 398, 399, 400, 401, 402, 403, 404, 405, 406, 407, 408, 409, 410, 411, 412, 413, 414, 415, 416, 417, 418, 419, 420, 421, 422, 423, 424, 425, 426, 427, 428, 429, 430, 431, 432, 433, 434, 435, 436, 437, 438, 439, 440, 441, 442, 443, 444, 445, 446, 447, 448, 449, 450, 451, 452, 453, 454, 455, 456, 457, 458, 459, 460, 461, 462, 463, 464, 465, 466],
      "AcquisitionTime": ["114205.627500", "114207.117500", "114208.607500", "114210.097500", "114211.587500", "114213.077500", "114214.567500", "114216.057500", "114217.547500", "114219.037500", "114220.527500", "114222.017500", "114223.507500", "114224.997500", "114226.487500", "114227.977500", "114229.467500", "114230.957500", "114232.447500", "114233.937500", "114235.427500", "114236.917500", "114238.407500", "114239.897500", "114241.387500", "114242.877500", "114244.367500", "114245.857500", "114247.347500", "114248.837500", "114250.327500", "114251.817500", "114253.307500", "114254.797500", "114256.287500", "114257.777500", "114259.267500", "114300.757500", "114302.247500", "114303.737500", "114305.227500", "114306.717500", "114308.207500", "114309.697500", "114311.187500", "114312.677500", "114314.167500", "114315.657500", "114317.147500", "114318.637500", "114320.127500", "114321.617500", "114323.107500", "114324.597500", "114326.087500", "114327.577500", "114329.067500", "114330.557500", "114332.047500", "114333.537500", "114335.027500", "114336.517500", "114338.007500", "114339.497500", "114340.987500", "114342.477500", "114343.967500", "114345.457500", "114346.947500", "114348.437500", "114349.927500", "114351.417500", "114352.907500", "114354.397500", "114355.887500", "114357.377500", "114358.867500", "114400.357500", "114401.847500", "114403.337500", "114404.827500", "114406.317500", "114407.807500", "114409.297500", "114410.787500", "114412.277500", "114413.767500", "114415.257500", "114416.747500", "114418.237500", "114419.727500", "114421.217500", "114422.707500", "114424.197500", "114425.687500", "114427.177500", "114428.667500", "114430.157500", "114431.647500", "114433.137500", "114434.627500", "114436.117500", "114437.607500", "114439.097500", "114440.587500", "114442.077500", "114443.567500", "114445.057500", "114446.547500", "114448.037500", "114449.527500", "114451.017500", "114452.507500", "114453.997500", "114455.487500", "114456.977500", "114458.467500", "114459.957500", "114501.447500", "114502.937500", "114504.427500", "114505.917500", "114507.407500", "114508.897500", "114510.387500", "114511.877500", "114513.367500", "114514.857500", "114516.347500", "114517.837500", "114519.327500", "114520.817500", "114522.307500", "114523.797500", "114525.287500", "114526.777500", "114528.267500", "114529.757500", "114531.247500", "114532.737500", "114534.227500", "114535.717500", "114537.207500", "114538.697500", "114540.187500", "114541.677500", "114543.167500", "114544.657500", "114546.147500", "114547.637500", "114549.127500", "114550.617500", "114552.107500", "114553.597500", "114555.087500", "114556.577500", "114558.067500", "114559.557500", "114601.047500", "114602.537500", "114604.027500", "114605.517500", "114607.007500", "114608.497500", "114609.987500", "114611.477500", "114612.967500", "114614.457500", "114615.947500", "114617.437500", "114618.927500", "114620.417500", "114621.907500", "114623.397500", "114624.887500", "114626.377500", "114627.867500", "114629.357500", "114630.847500", "114632.337500", "114633.827500", "114635.317500", "114636.807500", "114638.297500", "114639.787500", "114641.277500", "114642.767500", "114644.257500", "114645.747500", "114647.237500", "114648.727500", "114650.217500", "114651.707500", "114653.197500", "114654.687500", "114656.177500", "114657.667500", "114659.157500", "114700.647500", "114702.137500", "114703.627500", "114705.117500", "114706.607500", "114708.097500", "114709.587500", "114711.077500", "114712.567500", "114714.057500", "114715.547500", "114717.037500", "114718.527500", "114720.017500", "114721.507500", "114722.997500", "114724.487500", "114725.977500", "114727.467500", "114728.957500", "114730.447500", "114731.937500", "114733.427500", "114734.917500", "114736.407500", "114737.897500", "114739.387500", "114740.877500", "114742.367500", "114743.857500", "114745.347500", "114746.837500", "114748.327500", "114749.817500", "114751.307500", "114752.797500", "114754.287500", "114755.777500", "114757.267500", "114758.757500", "114800.247500", "114801.737500", "114803.227500", "114804.717500", "114806.207500", "114807.697500", "114809.187500", "114810.677500", "114812.167500", "114813.657500", "114815.147500", "114816.637500", "114818.127500", "114819.617500", "114821.107500", "114822.597500", "114824.087500", "114825.577500", "114827.067500", "114828.557500", "114830.047500", "114831.537500", "114833.027500", "114834.517500", "114836.007500", "114837.497500", "114838.987500", "114840.477500", "114841.967500", "114843.457500", "114844.947500", "114846.437500", "114847.927500", "114849.417500", "114850.907500", "114852.397500", "114853.887500", "114855.377500", "114856.867500", "114858.357500", "114859.847500", "114901.337500", "114902.827500", "114904.317500", "114905.807500", "114907.297500", "114908.787500", "114910.277500", "114911.767500", "114913.257500", "114914.747500", "114916.237500", "114917.727500", "114919.217500", "114920.707500", "114922.197500", "114923.687500", "114925.177500", "114926.667500", "114928.157500", "114929.647500", "114931.137500", "114932.627500", "114934.117500", "114935.607500", "114937.097500", "114938.587500", "114940.077500", "114941.567500", "114943.057500", "114944.547500", "114946.037500", "114947.527500", "114949.017500", "114950.507500", "114951.997500", "114953.487500", "114954.977500", "114956.467500", "114957.957500", "114959.447500", "115000.937500", "115002.427500", "115003.917500", "115005.407500", "115006.897500", "115008.387500", "115009.877500", "115011.367500", "115012.857500", "115014.347500", "115015.837500", "115017.327500", "115018.817500", "115020.307500", "115021.797500", "115023.287500", "115024.777500", "115026.267500", "115027.757500", "115029.247500", "115030.737500", "115032.227500", "115033.717500", "115035.207500", "115036.697500", "115038.187500", "115039.677500", "115041.167500", "115042.657500", "115044.147500", "115045.637500", "115047.127500", "115048.617500", "115050.107500", "115051.597500", "115053.087500", "115054.577500", "115056.067500", "115057.557500", "115059.047500", "115100.537500", "115102.027500", "115103.517500", "115105.007500", "115106.497500", "115107.987500", "115109.477500", "115110.967500", "115112.457500", "115113.947500", "115115.437500", "115116.927500", "115118.417500", "115119.907500", "115121.397500", "115122.887500", "115124.377500", "115125.867500", "115127.357500", "115128.847500", "115130.337500", "115131.827500", "115133.317500", "115134.807500", "115136.297500", "115137.787500", "115139.277500", "115140.767500", "115142.257500", "115143.747500", "115145.237500", "115146.727500", "115148.217500", "115149.707500", "115151.197500", "115152.687500", "115154.177500", "115155.667500", "115157.157500", "115158.647500", "115200.137500", "115201.627500", "115203.117500", "115204.607500", "115206.097500", "115207.587500", "115209.077500", "115210.567500", "115212.057500", "115213.547500", "115215.037500", "115216.527500", "115218.017500", "115219.507500", "115220.997500", "115222.487500", "115223.977500", "115225.467500", "115226.957500", "115228.447500", "115229.937500", "115231.427500", "115232.917500", "115234.407500", "115235.897500", "115237.387500", "115238.877500", "115240.367500", "115241.857500", "115243.347500", "115244.837500", "115246.327500", "115247.817500", "115249.307500", "115250.797500", "115252.287500", "115253.777500", "115255.267500", "115256.757500", "115258.247500", "115259.737500", "115301.227500", "115302.717500", "115304.207500", "115305.697500", "115307.187500", "115308.677500", "115310.167500", "115311.657500", "115313.147500", "115314.637500", "115316.127500", "115317.617500", "115319.107500", "115320.597500", "115322.087500", "115323.577500", "115325.067500", "115326.557500", "115328.047500", "115329.537500", "115331.027500", "115332.517500", "115334.007500", "115335.497500", "115336.987500", "115338.477500"],
      "ContentTime": ["114337.653000", "114337.656000", "114337.659000", "114337.662000", "114337.665000", "114337.668000", "114337.671000", "114337.674000", "114337.677000", "114337.680000", "114337.683000", "114337.686000", "114337.689000", "114337.692000", "114337.695000", "114337.698000", "114337.701000", "114337.703000", "114337.706000", "114337.709000", "114337.720000", "114337.723000", "114337.726000", "114337.729000", "114337.732000", "114337.735000", "114337.738000", "114337.741000", "114337.744000", "114337.747000", "114337.750000", "114337.752000", "114337.755000", "114337.758000", "114337.761000", "114337.764000", "114337.767000", "114337.770000", "114357.616000", "114357.619000", "114357.622000", "114357.625000", "114357.628000", "114357.632000", "114357.635000", "114357.638000", "114357.641000", "114357.644000", "114357.646000", "114357.649000", "114357.652000", "114357.655000", "114357.658000", "114357.661000", "114357.664000", "114357.667000", "114357.670000", "114357.672000", "114417.615000", "114417.618000", "114417.621000", "114417.624000", "114417.627000", "114417.629000", "114417.632000", "114417.635000", "114417.638000", "114417.641000", "114417.644000", "114417.647000", "114417.650000", "114417.653000", "114417.656000", "114417.658000", "114417.661000", "114417.664000", "114417.667000", "114417.679000", "114437.615000", "114437.618000", "114437.621000", "114437.624000", "114437.627000", "114437.629000", "114437.632000", "114437.635000", "114437.638000", "114437.641000", "114437.644000", "114437.647000", "114437.650000", "114437.653000", "114437.656000", "114437.659000", "114437.662000", "114437.664000", "114437.667000", "114437.670000", "114517.615000", "114517.618000", "114517.621000", "114517.624000", "114517.627000", "114517.630000", "114517.633000", "114517.636000", "114517.639000", "114517.642000", "114517.644000", "114517.647000", "114517.650000", "114517.653000", "114517.656000", "114517.659000", "114517.662000", "114517.665000", "114517.668000", "114517.671000", "114517.674000", "114517.677000", "114517.680000", "114517.682000", "114517.685000", "114517.688000", "114517.691000", "114517.694000", "114517.697000", "114517.700000", "114557.615000", "114557.618000", "114557.621000", "114557.624000", "114557.627000", "114557.630000", "114557.633000", "114557.636000", "114557.639000", "114557.642000", "114557.646000", "114557.648000", "114557.651000", "114557.654000", "114557.657000", "114557.660000", "114557.663000", "114557.666000", "114557.669000", "114557.672000", "114557.675000", "114557.678000", "114557.681000", "114557.684000", "114557.687000", "114557.690000", "114637.615000", "114637.618000", "114637.621000", "114637.624000", "114637.627000", "114637.630000", "114637.633000", "114637.635000", "114637.638000", "114637.641000", "114637.644000", "114637.647000", "114637.650000", "114637.653000", "114637.656000", "114637.659000", "114637.662000", "114637.665000", "114637.667000", "114637.670000", "114637.673000", "114637.676000", "114637.679000", "114637.682000", "114637.685000", "114637.688000", "114637.691000", "114717.615000", "114717.618000", "114717.621000", "114717.624000", "114717.627000", "114717.630000", "114717.633000", "114717.636000", "114717.639000", "114717.641000", "114717.644000", "114717.647000", "114717.650000", "114717.653000", "114717.656000", "114717.659000", "114717.662000", "114717.665000", "114717.668000", "114717.671000", "114717.674000", "114717.677000", "114717.679000", "114717.682000", "114717.685000", "114717.688000", "114717.691000", "114757.615000", "114757.618000", "114757.621000", "114757.624000", "114757.627000", "114757.630000", "114757.633000", "114757.636000", "114757.638000", "114757.641000", "114757.644000", "114757.647000", "114757.650000", "114757.653000", "114757.656000", "114757.659000", "114757.662000", "114757.665000", "114757.668000", "114757.670000", "114757.673000", "114757.676000", "114757.679000", "114757.682000", "114757.685000", "114757.688000", "114757.691000", "114837.615000", "114837.618000", "114837.621000", "114837.624000", "114837.627000", "114837.630000", "114837.633000", "114837.636000", "114837.639000", "114837.642000", "114837.645000", "114837.648000", "114837.651000", "114837.654000", "114837.657000", "114837.660000", "114837.662000", "114837.665000", "114837.668000", "114837.671000", "114837.674000", "114837.677000", "114837.680000", "114837.683000", "114837.686000", "114837.689000", "114837.692000", "114917.615000", "114917.618000", "114917.621000", "114917.624000", "114917.627000", "114917.630000", "114917.633000", "114917.636000", "114917.639000", "114917.642000", "114917.644000", "114917.647000", "114917.666000", "114917.669000", "114917.672000", "114917.675000", "114917.678000", "114917.680000", "114917.683000", "114917.686000", "114917.689000", "114917.692000", "114917.695000", "114917.698000", "114917.701000", "114917.704000", "114917.707000", "114957.615000", "114957.618000", "114957.621000", "114957.624000", "114957.627000", "114957.630000", "114957.633000", "114957.636000", "114957.639000", "114957.641000", "114957.644000", "114957.647000", "114957.650000", "114957.653000", "114957.656000", "114957.659000", "114957.662000", "114957.665000", "114957.668000", "114957.671000", "114957.674000", "114957.677000", "114957.679000", "114957.682000", "114957.685000", "114957.688000", "114957.691000", "115037.616000", "115037.620000", "115037.623000", "115037.626000", "115037.629000", "115037.632000", "115037.635000", "115037.638000", "115037.641000", "115037.643000", "115037.647000", "115037.649000", "115037.652000", "115037.655000", "115037.658000", "115037.661000", "115037.664000", "115037.667000", "115037.670000", "115037.673000", "115037.676000", "115037.679000", "115037.682000", "115037.685000", "115037.688000", "115037.691000", "115117.615000", "115117.618000", "115117.621000", "115117.624000", "115117.627000", "115117.630000", "115117.633000", "115117.636000", "115117.639000", "115117.641000", "115117.644000", "115117.647000", "115117.650000", "115117.653000", "115117.656000", "115117.659000", "115117.662000", "115117.665000", "115117.668000", "115117.671000", "115117.674000", "115117.677000", "115117.680000", "115117.683000", "115117.686000", "115117.689000", "115117.691000", "115157.615000", "115157.618000", "115157.621000", "115157.624000", "115157.627000", "115157.630000", "115157.633000", "115157.636000", "115157.639000", "115157.642000", "115157.645000", "115157.648000", "115157.651000", "115157.654000", "115157.657000", "115157.669000", "115157.672000", "115157.675000", "115157.678000", "115157.680000", "115157.683000", "115157.686000", "115157.689000", "115157.692000", "115157.695000", "115157.698000", "115157.701000", "115237.615000", "115237.618000", "115237.621000", "115237.624000", "115237.627000", "115237.630000", "115237.633000", "115237.636000", "115237.639000", "115237.642000", "115237.644000", "115237.647000", "115237.650000", "115237.653000", "115237.656000", "115237.659000", "115237.662000", "115237.665000", "115237.668000", "115237.671000", "115237.674000", "115237.677000", "115237.680000", "115237.683000", "115237.686000", "115237.689000", "115237.691000", "115317.615000", "115317.618000", "115317.621000", "115317.624000", "115317.627000", "115317.630000", "115317.633000", "115317.636000", "115317.639000", "115317.642000", "115317.645000", "115317.647000", "115317.650000", "115317.653000", "115317.656000", "115317.659000", "115317.662000", "115317.665000", "115317.668000", "115317.671000", "115317.674000", "115317.677000", "115317.680000", "115317.683000", "115317.686000", "115317.689000", "115317.691000", "115341.071000", "115341.074000", "115341.077000", "115341.087000", "115341.090000", "115341.093000", "115341.096000", "115341.108000", "115341.111000", "115341.115000", "115341.118000", "115341.121000", "115341.124000", "115341.127000", "115341.130000", "115341.133000"],
