{
  "AcquisitionMatrixPE": 104,
  "AcquisitionNumber": 1,
  "AcquisitionTime": "10:13:34.522500",
  "BandwidthPerPixelPhaseEncode": 17.17,
  "BaseResolution": 104,
  "BodyPartExamined": "BRAIN",
  "CoilCombinationMethod": "Sum of Squares",
  "ConsistencyInfo": "N4_VE11C_LATEST_20160120",
  "ConversionSoftware": "dcm2niix",
  "ConversionSoftwareVersion": "v1.0.20230411",
  "DerivedVendorReportedEchoSpacing": 0.000560011,
  "DeviceSerialNumber": "167006",
  "DwellTime": 2.1e-06,
  "EchoTime": 0.037,
  "EchoTrainLength": 104,
  "EffectiveEchoSpacing": 0.000560011,
  "FlipAngle": 52,
  "HeudiconvVersion": "0.5.3.post861+ge7d3c7f",
  "ImageComments": "Unaliased MB4/PE3/LB",
  "ImageOrientationPatientDICOM": [0.999229, -0.0360032, -0.0156705, 0.0284346, 0.938704, -0.343551],
  "ImageOrientationText": "Tra>Cor(-20.1)>Sag(-1.6)",
  "ImageType": [
    "ORIGINAL",
    "PRIMARY",
    "M",
    "MB",
    "ND",
    "MOSAIC"
],
  "ImagingFrequency": 123.249691,
  "InPlanePhaseEncodingDirectionDICOM": "COL",
  "InstitutionAddress": "Chemin Queen-Mary 4565,Montreal,District,CA,H3W 1W5",
  "InstitutionName": "Institut Universitaire de Geriatrie de Montreal",
  "InstitutionalDepartmentName": "Department",
  "MRAcquisitionType": "2D",
  "MagneticFieldStrength": 3,
  "Manufacturer": "Siemens",
  "ManufacturersModelName": "Prisma_fit",
  "MatrixCoilMode": "SENSE",
  "Modality": "MR",
  "MultibandAccelerationFactor": 4,
  "NonlinearGradientCorrection": false,
  "PartialFourier": 1,
  "PatientPosition": "HFS",
  "PercentPhaseFOV": 100,
  "PercentSampling": 100,
  "PhaseEncodingDirection": "j",
  "PhaseEncodingSteps": 104,
  "PhaseResolution": 1,
  "PixelBandwidth": 2290,
  "ProcedureStepDescription": "video^friends",
  "ProtocolName": "func_task-friends-s07e23a",
  "PulseSequenceDetails": "%CustomerSeq%\\cmrr_mbep2d_bold",
  "ReceiveCoilActiveElements": "HC1-7;NC1,2",
  "ReceiveCoilName": "HeadNeck_64",
  "ReconMatrixPE": 104,
  "RepetitionTime": 1.49,
  "SAR": 0.0461519,
  "ScanOptions": "FS",
  "ScanningSequence": "EP",
  "SequenceName": "epfid2d1_104",
  "SequenceVariant": "SK\\SS",
  "SeriesDescription": "func_task-friends-s07e23a",
  "SeriesNumber": 10,
  "ShimSetting": [607, -7285, -8821, 486, 57, -279, -131, 62],
  "SliceThickness": 2,
  "SliceTiming": [0, 0.785, 0.0975, 0.8825, 0.195, 0.98, 0.295, 1.0775, 0.3925, 1.175, 0.49, 1.275, 0.5875, 1.3725, 0.685, 0, 0.785, 0.0975, 0.8825, 0.195, 0.98, 0.295, 1.0775, 0.3925, 1.175, 0.49, 1.275, 0.5875, 1.3725, 0.685, 0, 0.785, 0.0975, 0.8825, 0.195, 0.98, 0.295, 1.0775, 0.3925, 1.175, 0.49, 1.275, 0.5875, 1.3725, 0.685, 0, 0.785, 0.0975, 0.8825, 0.195, 0.98, 0.295, 1.0775, 0.3925, 1.175, 0.49, 1.275, 0.5875, 1.3725, 0.685],
  "SoftwareVersions": "syngo MR E11",
  "SpacingBetweenSlices": 2,
  "StationName": "MRC35049",
  "TaskName": "s07e23a",
  "TotalReadoutTime": 0.0576811,
  "TxRefAmp": 239.594,
  "WipMemBlock": "201dad19-ae79-442a-a4c1-b43783ec6014||Sequence: R017 ve11c/master r/75a17815+; Jun 28 2022 16:32:11 by eja",
  "dcmmeta_affine": [
    [-1.998457670211792, 0.0568692609667778, -0.05415775626897812, 99.80904388427734],
    [0.07200636714696884, 1.8774070739746094, -0.6856804490089417, -75.76476287841797],
    [-0.031341005116701126, 0.6871014833450317, 1.8780066967010498, -66.64778900146484],
    [0.0, 0.0, 0.0, 1.0]
],
  "dcmmeta_reorient_transform": [
    [0.0, -1.0, 0.0, 103.0],
    [1.0, 0.0, 0.0, 0.0],
    [0.0, 0.0, 1.0, 0.0],
    [0.0, 0.0, 0.0, 1.0]
],
  "dcmmeta_shape": [104, 104, 60, 480],
  "dcmmeta_slice_dim": 2,
  "dcmmeta_version": 0.6,
  "global": {
    "const": {
      "AcquisitionMatrix": [104, 0, 0, 104],
      "AngioFlag": "N",
      "BitsAllocated": 16,
      "BitsStored": 16,
      "BodyPartExamined": "BRAIN",
      "Columns": 832,
      "EchoNumbers": 1,
      "EchoTime": 37.0,
      "EchoTrainLength": 104,
      "FlipAngle": 52.0,
      "HighBit": 15,
      "ImageOrientationPatient": [0.99922880573293, -0.0360031821056, -0.0156705032404, 0.02843463052435, 0.93870355214195, -0.3435507429522],
      "ImagePositionPatient": [-853.80555585414, -774.77403521701, 265.63673289919],
      "ImageType": [
        "ORIGINAL",
        "PRIMARY",
        "M",
        "MB",
        "ND",
        "MOSAIC"
],
      "ImagedNucleus": "1H",
      "ImagingFrequency": 123.249691,
      "InPlanePhaseEncodingDirection": "COL",
      "MRAcquisitionType": "2D",
      "MagneticFieldStrength": 3.0,
      "Manufacturer": "SIEMENS",
      "ManufacturerModelName": "Prisma_fit",
      "Modality": "MR",
      "NumberOfAverages": 1.0,
      "NumberOfPhaseEncodingSteps": 104,
      "PercentPhaseFieldOfView": 100.0,
      "PercentSampling": 100.0,
      "PerformedProcedureStepStartTime": "100942.922000",
      "PhotometricInterpretation": "MONOCHROME2",
      "PixelBandwidth": 2290.0,
      "PixelRepresentation": 0,
      "PixelSpacing": [2.0, 2.0],
      "ProtocolName": "func_task-friends-s07e23a",
      "RepetitionTime": 1490.0,
      "Rows": 832,
      "SAR": 0.0461519196124,
      "SamplesPerPixel": 1,
      "ScanOptions": "FS",
      "ScanningSequence": "EP",
      "SequenceName": "epfid2d1_104",
      "SequenceVariant": [
        "SK",
        "SS"
],
      "SeriesDescription": "func_task-friends-s07e23a",
      "SeriesNumber": 10,
      "SeriesTime": "101448.526000",
      "SliceLocation": -39.310004918401,
      "SliceThickness": 2.0,
      "SmallestImagePixelValue": 0,
      "SoftwareVersions": "syngo MR E11",
      "SpacingBetweenSlices": 2.0000000205177,
      "SpecificCharacterSet": "ISO_IR 100",
      "StudyID": "1",
      "StudyTime": "100942.838000",
      "TransmitCoilName": "Body",
      "VariableFlipAngleFlag": "N",
      "WindowCenterWidthExplanation": "Algo1",
      "dBdt": 0.0},
    "slices": {}
  },
  "time": {
    "samples": {
      "AcquisitionNumber": [1, 2, 3, 4, 5, 6, 7, 8, 9, 10, 11, 12, 13, 14, 15, 16, 17, 18, 19, 20, 21, 22, 23, 24, 25, 26, 27, 28, 29, 30, 31, 32, 33, 34, 35, 36, 37, 38, 39, 40, 41, 42, 43, 44, 45, 46, 47, 48, 49, 50, 51, 52, 53, 54, 55, 56, 57, 58, 59, 60, 61, 62, 63, 64, 65, 66, 67, 68, 69, 70, 71, 72, 73, 74, 75, 76, 77, 78, 79, 80, 81, 82, 83, 84, 85, 86, 87, 88, 89, 90, 91, 92, 93, 94, 95, 96, 97, 98, 99, 100, 101, 102, 103, 104, 105, 106, 107, 108, 109, 110, 111, 112, 113, 114, 115, 116, 117, 118, 119, 120, 121, 122, 123, 124, 125, 126, 127, 128, 129, 130, 131, 132, 133, 134, 135, 136, 137, 138, 139, 140, 141, 142, 143, 144, 145, 146, 147, 148, 149, 150, 151, 152, 153, 154, 155, 156, 157, 158, 159, 160, 161, 162, 163, 164, 165, 166, 167, 168, 169, 170, 171, 172, 173, 174, 175, 176, 177, 178, 179, 180, 181, 182, 183, 184, 185, 186, 187, 188, 189, 190, 191, 192, 193, 194, 195, 196, 197, 198, 199, 200, 201, 202, 203, 204, 205, 206, 207, 208, 209, 210, 211, 212, 213, 214, 215, 216, 217, 218, 219, 220, 221, 222, 223, 224, 225, 226, 227, 228, 229, 230, 231, 232, 233, 234, 235, 236, 237, 238, 239, 240, 241, 242, 243, 244, 245, 246, 247, 248, 249, 250, 251, 252, 253, 254, 255, 256, 257, 258, 259, 260, 261, 262, 263, 264, 265, 266, 267, 268, 269, 270, 271, 272, 273, 274, 275, 276, 277, 278, 279, 280, 281, 282, 283, 284, 285, 286, 287, 288, 289, 290, 291, 292, 293, 294, 295, 296, 297, 298, 299, 300, 301, 302, 303, 304, 305, 306, 307, 308, 309, 310, 311, 312, 313, 314, 315, 316, 317, 318, 319, 320, 321, 322, 323, 324, 325, 326, 327, 328, 329, 330, 331, 332, 333, 334, 335, 336, 337, 338, 339, 340, 341, 342, 343, 344, 345, 346, 347, 348, 349, 350, 351, 352, 353, 354, 355, 356, 357, 358, 359, 360, 361, 362, 363, 364, 365, 366, 367, 368, 369, 370, 371, 372, 373, 374, 375, 376, 377, 378, 379, 380, 381, 382, 383, 384, 385, 386, 387, 388, 389, 390, 391, 392, 393, 394, 395, 396, 397, 398, 399, 400, 401, 402, 403, 404, 405, 406, 407, 408, 409, 410, 411, 412, 413, 414, 415, 416, 417, 418, 419, 420, 421, 422, 423, 424, 425, 426, 427, 428, 429, 430, 431, 432, 433, 434, 435, 436, 437, 438, 439, 440, 441, 442, 443, 444, 445, 446, 447, 448, 449, 450, 451, 452, 453, 454, 455, 456, 457, 458, 459, 460, 461, 462, 463, 464, 465, 466, 467, 468, 469, 470, 471, 472, 473, 474, 475, 476, 477, 478, 479, 480],
      "AcquisitionTime": ["101334.522500", "101336.012500", "101337.502500", "101338.992500", "101340.482500", "101341.972500", "101343.462500", "101344.952500", "101346.442500", "101347.932500", "101349.422500", "101350.912500", "101352.402500", "101353.892500", "101355.382500", "101356.872500", "101358.362500", "101359.852500", "101401.342500", "101402.832500", "101404.322500", "101405.812500", "101407.302500", "101408.792500", "101410.282500", "101411.772500", "101413.262500", "101414.752500", "101416.242500", "101417.732500", "101419.222500", "101420.712500", "101422.202500", "101423.692500", "101425.182500", "101426.672500", "101428.162500", "101429.652500", "101431.142500", "101432.632500", "101434.122500", "101435.612500", "101437.102500", "101438.592500", "101440.082500", "101441.572500", "101443.062500", "101444.552500", "101446.042500", "101447.532500", "101449.022500", "101450.512500", "101452.002500", "101453.492500", "101454.982500", "101456.472500", "101457.962500", "101459.452500", "101500.942500", "101502.432500", "101503.922500", "101505.412500", "101506.902500", "101508.392500", "101509.882500", "101511.372500", "101512.862500", "101514.352500", "101515.842500", "101517.332500", "101518.822500", "101520.312500", "101521.802500", "101523.292500", "101524.782500", "101526.272500", "101527.762500", "101529.252500", "101530.742500", "101532.232500", "101533.722500", "101535.212500", "101536.702500", "101538.192500", "101539.682500", "101541.172500", "101542.662500", "101544.152500", "101545.642500", "101547.132500", "101548.622500", "101550.112500", "101551.602500", "101553.092500", "101554.582500", "101556.072500", "101557.562500", "101559.052500", "101600.542500", "101602.032500", "101603.522500", "101605.012500", "101606.502500", "101607.992500", "101609.482500", "101610.972500", "101612.462500", "101613.952500", "101615.442500", "101616.932500", "101618.422500", "101619.912500", "101621.402500", "101622.892500", "101624.382500", "101625.872500", "101627.362500", "101628.852500", "101630.342500", "101631.832500", "101633.322500", "101634.812500", "101636.302500", "101637.792500", "101639.282500", "101640.772500", "101642.262500", "101643.752500", "101645.242500", "101646.732500", "101648.222500", "101649.712500", "101651.202500", "101652.692500", "101654.182500", "101655.672500", "101657.162500", "101658.652500", "101700.142500", "101701.632500", "101703.122500", "101704.612500", "101706.102500", "101707.592500", "101709.082500", "101710.572500", "101712.062500", "101713.552500", "101715.042500", "101716.532500", "101718.022500", "101719.512500", "101721.002500", "101722.492500", "101723.982500", "101725.472500", "101726.962500", "101728.452500", "101729.942500", "101731.432500", "101732.922500", "101734.412500", "101735.902500", "101737.392500", "101738.882500", "101740.372500", "101741.862500", "101743.352500", "101744.842500", "101746.332500", "101747.822500", "101749.312500", "101750.802500", "101752.292500", "101753.782500", "101755.272500", "101756.762500", "101758.252500", "101759.742500", "101801.232500", "101802.722500", "101804.212500", "101805.702500", "101807.192500", "101808.682500", "101810.172500", "101811.662500", "101813.152500", "101814.642500", "101816.132500", "101817.622500", "101819.112500", "101820.602500", "101822.092500", "101823.582500", "101825.072500", "101826.562500", "101828.052500", "101829.542500", "101831.032500", "101832.522500", "101834.012500", "101835.502500", "101836.992500", "101838.482500", "101839.972500", "101841.462500", "101842.952500", "101844.442500", "101845.932500", "101847.422500", "101848.912500", "101850.402500", "101851.892500", "101853.382500", "101854.872500", "101856.362500", "101857.852500", "101859.342500", "101900.832500", "101902.322500", "101903.812500", "101905.302500", "101906.792500", "101908.282500", "101909.772500", "101911.262500", "101912.752500", "101914.242500", "101915.732500", "101917.222500", "101918.712500", "101920.202500", "101921.692500", "101923.182500", "101924.672500", "101926.162500", "101927.652500", "101929.142500", "101930.632500", "101932.122500", "101933.612500", "101935.102500", "101936.592500", "101938.082500", "101939.572500", "101941.062500", "101942.552500", "101944.042500", "101945.532500", "101947.022500", "101948.512500", "101950.002500", "101951.492500", "101952.982500", "101954.472500", "101955.962500", "101957.452500", "101958.942500", "102000.432500", "102001.922500", "102003.412500", "102004.902500", "102006.392500", "102007.882500", "102009.372500", "102010.862500", "102012.352500", "102013.842500", "102015.332500", "102016.822500", "102018.312500", "102019.802500", "102021.292500", "102022.782500", "102024.272500", "102025.762500", "102027.252500", "102028.742500", "102030.232500", "102031.722500", "102033.212500", "102034.702500", "102036.192500", "102037.682500", "102039.172500", "102040.662500", "102042.152500", "102043.642500", "102045.132500", "102046.622500", "102048.112500", "102049.602500", "102051.092500", "102052.582500", "102054.072500", "102055.562500", "102057.052500", "102058.542500", "102100.032500", "102101.522500", "102103.012500", "102104.502500", "102105.992500", "102107.482500", "102108.972500", "102110.462500", "102111.952500", "102113.442500", "102114.932500", "102116.422500", "102117.912500", "102119.402500", "102120.892500", "102122.382500", "102123.872500", "102125.362500", "102126.852500", "102128.342500", "102129.832500", "102131.322500", "102132.812500", "102134.302500", "102135.792500", "102137.282500", "102138.772500", "102140.262500", "102141.752500", "102143.242500", "102144.732500", "102146.222500", "102147.712500", "102149.202500", "102150.692500", "102152.182500", "102153.672500", "102155.162500", "102156.652500", "102158.142500", "102159.632500", "102201.122500", "102202.612500", "102204.102500", "102205.592500", "102207.082500", "102208.572500", "102210.062500", "102211.552500", "102213.042500", "102214.532500", "102216.022500", "102217.512500", "102219.002500", "102220.492500", "102221.982500", "102223.472500", "102224.962500", "102226.452500", "102227.942500", "102229.432500", "102230.922500", "102232.412500", "102233.902500", "102235.392500", "102236.882500", "102238.372500", "102239.862500", "102241.352500", "102242.842500", "102244.332500", "102245.822500", "102247.312500", "102248.802500", "102250.292500", "102251.782500", "102253.272500", "102254.762500", "102256.252500", "102257.742500", "102259.232500", "102300.722500", "102302.212500", "102303.702500", "102305.192500", "102306.682500", "102308.172500", "102309.662500", "102311.152500", "102312.642500", "102314.132500", "102315.622500", "102317.112500", "102318.602500", "102320.092500", "102321.582500", "102323.072500", "102324.562500", "102326.052500", "102327.542500", "102329.032500", "102330.522500", "102332.012500", "102333.502500", "102334.992500", "102336.482500", "102337.972500", "102339.462500", "102340.952500", "102342.442500", "102343.932500", "102345.422500", "102346.912500", "102348.402500", "102349.892500", "102351.382500", "102352.872500", "102354.362500", "102355.852500", "102357.342500", "102358.832500", "102400.322500", "102401.812500", "102403.302500", "102404.792500", "102406.282500", "102407.772500", "102409.262500", "102410.752500", "102412.242500", "102413.732500", "102415.222500", "102416.712500", "102418.202500", "102419.692500", "102421.182500", "102422.672500", "102424.162500", "102425.652500", "102427.142500", "102428.632500", "102430.122500", "102431.612500", "102433.102500", "102434.592500", "102436.082500", "102437.572500", "102439.062500", "102440.552500", "102442.042500", "102443.532500", "102445.022500", "102446.512500", "102448.002500", "102449.492500", "102450.982500", "102452.472500", "102453.962500", "102455.452500", "102456.942500", "102458.432500", "102459.922500", "102501.412500", "102502.902500", "102504.392500", "102505.882500", "102507.372500", "102508.862500", "102510.352500", "102511.842500", "102513.332500", "102514.822500", "102516.312500", "102517.802500", "102519.292500", "102520.782500", "102522.272500", "102523.762500", "102525.252500", "102526.742500", "102528.232500"],
      "ContentTime": ["101448.529000", "101448.534000", "101448.537000", "101448.540000", "101448.542000", "101448.545000", "101448.548000", "101448.551000", "101448.553000", "101448.561000", "101448.564000", "101448.567000", "101448.570000", "101448.573000", "101448.576000", "101448.578000", "101448.581000", "101448.584000", "101448.587000", "101448.590000", "101448.593000", "101448.596000", "101448.599000", "101448.602000", "101448.605000", "101508.494000", "101508.497000", "101508.500000", "101508.502000", "101508.505000", "101508.508000", "101508.511000", "101508.514000", "101508.516000", "101508.519000", "101508.522000", "101508.525000", "101508.528000", "101508.531000", "101508.534000", "101508.536000", "101508.539000", "101508.542000", "101508.545000", "101508.548000", "101528.493000", "101528.496000", "101528.499000", "101528.502000", "101528.505000", "101528.508000", "101528.510000", "101528.513000", "101528.516000", "101528.520000", "101528.523000", "101528.526000", "101528.529000", "101528.531000", "101528.534000", "101528.537000", "101528.540000", "101528.543000", "101528.546000", "101528.548000", "101548.493000", "101548.496000", "101548.499000", "101548.502000", "101548.505000", "101548.507000", "101548.510000", "101548.513000", "101548.516000", "101548.519000", "101548.521000", "101548.524000", "101548.527000", "101548.530000", "101548.533000", "101548.536000", "101548.538000", "101548.541000", "101548.544000", "101548.547000", "101548.550000", "101628.502000", "101628.505000", "101628.508000", "101628.511000", "101628.514000", "101628.516000", "101628.519000", "101628.522000", "101628.525000", "101628.528000", "101628.531000", "101628.533000", "101628.536000", "101628.539000", "101628.551000", "101628.554000", "101628.557000", "101628.560000", "101628.563000", "101628.566000", "101628.569000", "101628.572000", "101628.575000", "101628.577000", "101628.580000", "101628.583000", "101628.586000", "101628.589000", "101628.592000", "101628.596000", "101708.494000", "101708.497000", "101708.500000", "101708.503000", "101708.506000", "101708.509000", "101708.511000", "101708.514000", "101708.517000", "101708.520000", "101708.523000", "101708.526000", "101708.529000", "101708.531000", "101708.534000", "101708.537000", "101708.540000", "101708.543000", "101708.546000", "101708.548000", "101708.551000", "101708.554000", "101708.557000", "101708.560000", "101708.563000", "101708.565000", "101708.568000", "101748.493000", "101748.496000", "101748.499000", "101748.502000", "101748.505000", "101748.508000", "101748.510000", "101748.513000", "101748.516000", "101748.519000", "101748.522000", "101748.525000", "101748.527000", "101748.530000", "101748.533000", "101748.536000", "101748.539000", "101748.542000", "101748.544000", "101748.547000", "101748.550000", "101748.553000", "101748.557000", "101748.561000", "101748.564000", "101748.568000", "101828.493000", "101828.496000", "101828.499000", "101828.501000", "101828.504000", "101828.507000", "101828.510000", "101828.513000", "101828.516000", "101828.519000", "101828.522000", "101828.525000", "101828.527000", "101828.530000", "101828.533000", "101828.536000", "101828.539000", "101828.542000", "101828.545000", "101828.548000", "101828.550000", "101828.553000", "101828.556000", "101828.559000", "101828.562000", "101828.565000", "101828.568000", "101908.494000", "101908.497000", "101908.500000", "101908.503000", "101908.506000", "101908.508000", "101908.511000", "101908.514000", "101908.517000", "101908.520000", "101908.523000", "101908.525000", "101908.528000", "101908.531000", "101908.534000", "101908.537000", "101908.540000", "101908.543000", "101908.545000", "101908.548000", "101908.551000", "101908.554000", "101908.557000", "101908.560000", "101908.562000", "101908.565000", "101908.572000", "101948.494000", "101948.497000", "101948.500000", "101948.503000", "101948.649000", "101948.652000", "101948.655000", "101948.658000", "101948.660000", "101948.663000", "101948.666000", "101948.669000", "101948.672000", "101948.675000", "101948.678000", "101948.680000", "101948.683000", "101948.686000", "101948.689000", "101948.692000", "101948.695000", "101948.698000", "101948.701000", "101948.704000", "101948.707000", "101948.710000", "101948.713000", "102028.493000", "102028.496000", "102028.499000", "102028.502000", "102028.504000", "102028.507000", "102028.510000", "102028.513000", "102028.516000", "102028.519000", "102028.522000", "102028.524000", "102028.527000", "102028.530000", "102028.533000", "102028.536000", "102028.539000", "102028.542000", "102028.544000", "102028.547000", "102028.550000", "102028.553000", "102028.556000", "102028.559000", "102028.561000", "102028.564000", "102028.567000", "102108.494000", "102108.497000", "102108.500000", "102108.503000", "102108.522000", "102108.525000", "102108.528000", "102108.531000", "102108.533000", "102108.536000", "102108.539000", "102108.542000", "102108.545000", "102108.548000", "102108.550000", "102108.553000", "102108.556000", "102108.559000", "102108.562000", "102108.565000", "102108.568000", "102108.570000", "102108.573000", "102108.576000", "102108.579000", "102108.582000", "102108.585000", "102148.494000", "102148.497000", "102148.500000", "102148.503000", "102148.505000", "102148.508000", "102148.511000", "102148.514000", "102148.517000", "102148.520000", "102148.522000", "102148.525000", "102148.528000", "102148.531000", "102148.534000", "102148.536000", "102148.539000", "102148.542000", "102148.545000", "102148.548000", "102148.551000", "102148.553000", "102148.556000", "102148.559000", "102148.562000", "102148.565000", "102148.568000", "102228.493000", "102228.496000", "102228.499000", "102228.502000", "102228.505000", "102228.507000", "102228.510000", "102228.513000", "102228.516000", "102228.519000", "102228.521000", "102228.524000", "102228.527000", "102228.530000", "102228.533000", "102228.536000", "102228.538000", "102228.541000", "102228.544000", "102228.547000", "102228.550000", "102228.553000", "102228.556000", "102228.559000", "102228.562000", "102228.565000", "102308.493000", "102308.496000", "102308.499000", "102308.502000", "102308.505000", "102308.507000", "102308.510000", "102308.513000", "102308.516000", "102308.519000", "102308.522000", "102308.524000", "102308.527000", "102308.530000", "102308.533000", "102308.536000", "102308.539000", "102308.542000", "102308.544000", "102308.547000", "102308.550000", "102308.553000", "102308.556000", "102308.559000", "102308.561000", "102308.564000", "102308.567000", "102348.494000", "102348.497000", "102348.500000", "102348.503000", "102348.506000", "102348.508000", "102348.511000", "102348.514000", "102348.517000", "102348.520000", "102348.523000", "102348.525000", "102348.528000", "102348.531000", "102348.534000", "102348.537000", "102348.539000", "102348.542000", "102348.545000", "102348.548000", "102348.551000", "102348.554000", "102348.557000", "102348.560000", "102348.562000", "102348.565000", "102348.568000", "102428.494000", "102428.497000", "102428.500000", "102428.503000", "102428.506000", "102428.508000", "102428.511000", "102428.514000", "102428.517000", "102428.520000", "102428.523000", "102428.525000", "102428.528000", "102428.531000", "102428.534000", "102428.537000", "102428.540000", "102428.542000", "102428.545000", "102428.548000", "102428.551000", "102428.554000", "102428.557000", "102428.560000", "102428.562000", "102428.565000", "102428.568000", "102508.493000", "102508.496000", "102508.499000", "102508.502000", "102508.505000", "102508.508000", "102508.510000", "102508.513000", "102508.516000", "102508.519000", "102508.522000", "102508.525000", "102508.527000", "102508.530000", "102508.533000", "102508.536000", "102508.539000", "102508.542000", "102508.544000", "102508.547000", "102508.550000", "102508.553000", "102508.556000", "102508.559000", "102508.561000", "102508.564000", "102508.567000", "102530.514000", "102530.517000", "102530.520000", "102530.523000", "102530.534000", "102530.536000", "102530.539000", "102530.542000", "102530.545000", "102530.548000", "102530.551000", "102530.553000", "102530.556000", "102530.559000", "102530.562000"],
