{
  "AcquisitionMatrixPE": 104,
  "AcquisitionNumber": 1,
  "AcquisitionTime": "16:34:9.392500",
  "BandwidthPerPixelPhaseEncode": 17.17,
  "BaseResolution": 104,
  "BodyPartExamined": "BRAIN",
  "CoilCombinationMethod": "Sum of Squares",
  "ConsistencyInfo": "N4_VE11C_LATEST_20160120",
  "ConversionSoftware": "dcm2niix",
  "ConversionSoftwareVersion": "v1.0.20230411",
  "DerivedVendorReportedEchoSpacing": 0.000560011,
  "DeviceSerialNumber": "167006",
  "DwellTime": 2.1e-06,
  "EchoTime": 0.037,
  "EchoTrainLength": 104,
  "EffectiveEchoSpacing": 0.000560011,
  "FlipAngle": 52,
  "HeudiconvVersion": "0.5.3.post861+ge7d3c7f",
  "ImageComments": "Unaliased MB4/PE3/LB",
  "ImageOrientationPatientDICOM": [0.998955, 0.0424755, -0.0168463, -0.0444888, 0.819968, -0.570678],
  "ImageOrientationText": "Tra>Cor(-34.8)>Sag(0.6)",
  "ImageType": [
    "ORIGINAL",
    "PRIMARY",
    "M",
    "MB",
    "ND",
    "MOSAIC"
],
  "ImagingFrequency": 123.249578,
  "InPlanePhaseEncodingDirectionDICOM": "COL",
  "InstitutionAddress": "Chemin Queen-Mary 4565,Montreal,District,CA,H3W 1W5",
  "InstitutionName": "IUGM",
  "InstitutionalDepartmentName": "Department",
  "MRAcquisitionType": "2D",
  "MagneticFieldStrength": 3,
  "Manufacturer": "Siemens",
  "ManufacturersModelName": "Prisma_fit",
  "MatrixCoilMode": "SENSE",
  "Modality": "MR",
  "MultibandAccelerationFactor": 4,
  "NonlinearGradientCorrection": false,
  "PartialFourier": 1,
  "PatientPosition": "HFS",
  "PercentPhaseFOV": 100,
  "PercentSampling": 100,
  "PhaseEncodingDirection": "j",
  "PhaseEncodingSteps": 104,
  "PhaseResolution": 1,
  "PixelBandwidth": 2290,
  "ProcedureStepDescription": "video^friends",
  "ProtocolName": "func_task-friends-s07e18a",
  "PulseSequenceDetails": "%CustomerSeq%\\cmrr_mbep2d_bold",
  "ReceiveCoilActiveElements": "HC1-7;NC1,2",
  "ReceiveCoilName": "HeadNeck_64",
  "ReconMatrixPE": 104,
  "RepetitionTime": 1.49,
  "SAR": 0.0583441,
  "ScanOptions": "FS",
  "ScanningSequence": "EP",
  "SequenceName": "epfid2d1_104",
  "SequenceVariant": "SK\\SS",
  "SeriesDescription": "func_task-friends-s07e18a",
  "SeriesNumber": 14,
  "ShimSetting": [601, -7228, -8842, 280, 43, -280, -115, 88],
  "SliceThickness": 2,
  "SliceTiming": [0, 0.785, 0.0975, 0.8825, 0.195, 0.98, 0.295, 1.0775, 0.3925, 1.175, 0.49, 1.275, 0.5875, 1.3725, 0.685, 0, 0.785, 0.0975, 0.8825, 0.195, 0.98, 0.295, 1.0775, 0.3925, 1.175, 0.49, 1.275, 0.5875, 1.3725, 0.685, 0, 0.785, 0.0975, 0.8825, 0.195, 0.98, 0.295, 1.0775, 0.3925, 1.175, 0.49, 1.275, 0.5875, 1.3725, 0.685, 0, 0.785, 0.0975, 0.8825, 0.195, 0.98, 0.295, 1.0775, 0.3925, 1.175, 0.49, 1.275, 0.5875, 1.3725, 0.685],
  "SoftwareVersions": "syngo MR E11",
  "SpacingBetweenSlices": 2,
  "StationName": "MRC35049",
  "TaskName": "s07e18a",
  "TotalReadoutTime": 0.0576811,
  "TxRefAmp": 279.541,
  "WipMemBlock": "afb81b8c-716a-40b5-a6df-13d11c4d26f6||Sequence: R017 ve11c/master r/75a17815+; Jun 28 2022 16:32:11 by eja",
  "dcmmeta_affine": [
    [-1.997910976409912, -0.0889776349067688, 0.020852800458669662, 106.06969451904297],
    [-0.08495096862316132, 1.6399354934692383, -1.1416631937026978, -47.46905517578125],
    [-0.0336926244199276, 1.141356348991394, 1.642001986503601, -88.83146667480469],
    [0.0, 0.0, 0.0, 1.0]
],
  "dcmmeta_reorient_transform": [
    [0.0, -1.0, 0.0, 103.0],
    [1.0, 0.0, 0.0, 0.0],
    [0.0, 0.0, 1.0, 0.0],
    [0.0, 0.0, 0.0, 1.0]
],
  "dcmmeta_shape": [104, 104, 60, 477],
  "dcmmeta_slice_dim": 2,
  "dcmmeta_version": 0.6,
  "global": {
    "const": {
      "AcquisitionMatrix": [104, 0, 0, 104],
      "AngioFlag": "N",
      "BitsAllocated": 16,
      "BitsStored": 16,
      "BodyPartExamined": "BRAIN",
      "Columns": 832,
      "EchoNumbers": 1,
      "EchoTime": 37.0,
      "EchoTrainLength": 104,
      "FlipAngle": 52.0,
      "HighBit": 15,
      "ImageOrientationPatient": [0.9989554720551, 0.0424754827009, -0.0168463117775, -0.0444888193006, 0.81996776314459, -0.57067820386],
      "ImagePositionPatient": [-791.75671963605, -749.30298844445, 456.44608747062],
      "ImageType": [
        "ORIGINAL",
        "PRIMARY",
        "M",
        "MB",
        "ND",
        "MOSAIC"
],
      "ImagedNucleus": "1H",
      "ImagingFrequency": 123.249578,
      "InPlanePhaseEncodingDirection": "COL",
      "MRAcquisitionType": "2D",
      "MagneticFieldStrength": 3.0,
      "Manufacturer": "SIEMENS",
      "ManufacturerModelName": "Prisma_fit",
      "Modality": "MR",
      "NumberOfAverages": 1.0,
      "NumberOfPhaseEncodingSteps": 104,
      "PercentPhaseFieldOfView": 100.0,
      "PercentSampling": 100.0,
      "PerformedProcedureStepStartTime": "160326.767000",
      "PhotometricInterpretation": "MONOCHROME2",
      "PixelBandwidth": 2290.0,
      "PixelRepresentation": 0,
      "PixelSpacing": [2.0, 2.0],
      "ProtocolName": "func_task-friends-s07e18a",
      "RepetitionTime": 1490.0,
      "Rows": 832,
      "SAR": 0.0583440800999,
      "SamplesPerPixel": 1,
      "ScanOptions": "FS",
      "ScanningSequence": "EP",
      "SequenceName": "epfid2d1_104",
      "SequenceVariant": [
        "SK",
        "SS"
],
      "SeriesDescription": "func_task-friends-s07e18a",
      "SeriesNumber": 14,
      "SeriesTime": "163510.677000",
      "SliceLocation": -44.727962494523,
      "SliceThickness": 2.0,
      "SmallestImagePixelValue": 0,
      "SoftwareVersions": "syngo MR E11",
      "SpacingBetweenSlices": 2.0000000548942,
      "SpecificCharacterSet": "ISO_IR 100",
      "StudyID": "1",
      "StudyTime": "160326.703000",
      "TransmitCoilName": "Body",
      "VariableFlipAngleFlag": "N",
      "WindowCenterWidthExplanation": "Algo1",
      "dBdt": 0.0},
    "slices": {}
  },
  "time": {
    "samples": {
      "AcquisitionNumber": [1, 2, 3, 4, 5, 6, 7, 8, 9, 10, 11, 12, 13, 14, 15, 16, 17, 18, 19, 20, 21, 22, 23, 24, 25, 26, 27, 28, 29, 30, 31, 32, 33, 34, 35, 36, 37, 38, 39, 40, 41, 42, 43, 44, 45, 46, 47, 48, 49, 50, 51, 52, 53, 54, 55, 56, 57, 58, 59, 60, 61, 62, 63, 64, 65, 66, 67, 68, 69, 70, 71, 72, 73, 74, 75, 76, 77, 78, 79, 80, 81, 82, 83, 84, 85, 86, 87, 88, 89, 90, 91, 92, 93, 94, 95, 96, 97, 98, 99, 100, 101, 102, 103, 104, 105, 106, 107, 108, 109, 110, 111, 112, 113, 114, 115, 116, 117, 118, 119, 120, 121, 122, 123, 124, 125, 126, 127, 128, 129, 130, 131, 132, 133, 134, 135, 136, 137, 138, 139, 140, 141, 142, 143, 144, 145, 146, 147, 148, 149, 150, 151, 152, 153, 154, 155, 156, 157, 158, 159, 160, 161, 162, 163, 164, 165, 166, 167, 168, 169, 170, 171, 172, 173, 174, 175, 176, 177, 178, 179, 180, 181, 182, 183, 184, 185, 186, 187, 188, 189, 190, 191, 192, 193, 194, 195, 196, 197, 198, 199, 200, 201, 202, 203, 204, 205, 206, 207, 208, 209, 210, 211, 212, 213, 214, 215, 216, 217, 218, 219, 220, 221, 222, 223, 224, 225, 226, 227, 228, 229, 230, 231, 232, 233, 234, 235, 236, 237, 238, 239, 240, 241, 242, 243, 244, 245, 246, 247, 248, 249, 250, 251, 252, 253, 254, 255, 256, 257, 258, 259, 260, 261, 262, 263, 264, 265, 266, 267, 268, 269, 270, 271, 272, 273, 274, 275, 276, 277, 278, 279, 280, 281, 282, 283, 284, 285, 286, 287, 288, 289, 290, 291, 292, 293, 294, 295, 296, 297, 298, 299, 300, 301, 302, 303, 304, 305, 306, 307, 308, 309, 310, 311, 312, 313, 314, 315, 316, 317, 318, 319, 320, 321, 322, 323, 324, 325, 326, 327, 328, 329, 330, 331, 332, 333, 334, 335, 336, 337, 338, 339, 340, 341, 342, 343, 344, 345, 346, 347, 348, 349, 350, 351, 352, 353, 354, 355, 356, 357, 358, 359, 360, 361, 362, 363, 364, 365, 366, 367, 368, 369, 370, 371, 372, 373, 374, 375, 376, 377, 378, 379, 380, 381, 382, 383, 384, 385, 386, 387, 388, 389, 390, 391, 392, 393, 394, 395, 396, 397, 398, 399, 400, 401, 402, 403, 404, 405, 406, 407, 408, 409, 410, 411, 412, 413, 414, 415, 416, 417, 418, 419, 420, 421, 422, 423, 424, 425, 426, 427, 428, 429, 430, 431, 432, 433, 434, 435, 436, 437, 438, 439, 440, 441, 442, 443, 444, 445, 446, 447, 448, 449, 450, 451, 452, 453, 454, 455, 456, 457, 458, 459, 460, 461, 462, 463, 464, 465, 466, 467, 468, 469, 470, 471, 472, 473, 474, 475, 476, 477],
      "AcquisitionTime": ["163409.392500", "163410.882500", "163412.372500", "163413.862500", "163415.352500", "163416.842500", "163418.332500", "163419.822500", "163421.312500", "163422.802500", "163424.292500", "163425.782500", "163427.272500", "163428.762500", "163430.252500", "163431.742500", "163433.232500", "163434.722500", "163436.212500", "163437.702500", "163439.192500", "163440.682500", "163442.172500", "163443.662500", "163445.152500", "163446.642500", "163448.132500", "163449.622500", "163451.112500", "163452.602500", "163454.092500", "163455.582500", "163457.072500", "163458.562500", "163500.052500", "163501.542500", "163503.032500", "163504.522500", "163506.012500", "163507.502500", "163508.992500", "163510.482500", "163511.972500", "163513.462500", "163514.952500", "163516.442500", "163517.932500", "163519.422500", "163520.912500", "163522.402500", "163523.892500", "163525.382500", "163526.872500", "163528.362500", "163529.852500", "163531.342500", "163532.832500", "163534.322500", "163535.812500", "163537.302500", "163538.792500", "163540.282500", "163541.772500", "163543.262500", "163544.752500", "163546.242500", "163547.732500", "163549.222500", "163550.712500", "163552.202500", "163553.692500", "163555.182500", "163556.672500", "163558.162500", "163559.652500", "163601.142500", "163602.632500", "163604.122500", "163605.612500", "163607.102500", "163608.592500", "163610.082500", "163611.572500", "163613.062500", "163614.552500", "163616.042500", "163617.532500", "163619.022500", "163620.512500", "163622.002500", "163623.492500", "163624.982500", "163626.472500", "163627.962500", "163629.452500", "163630.942500", "163632.432500", "163633.922500", "163635.412500", "163636.902500", "163638.392500", "163639.882500", "163641.372500", "163642.862500", "163644.352500", "163645.842500", "163647.332500", "163648.822500", "163650.312500", "163651.802500", "163653.292500", "163654.782500", "163656.272500", "163657.762500", "163659.252500", "163700.742500", "163702.232500", "163703.722500", "163705.212500", "163706.702500", "163708.192500", "163709.682500", "163711.172500", "163712.662500", "163714.152500", "163715.642500", "163717.132500", "163718.622500", "163720.112500", "163721.602500", "163723.092500", "163724.582500", "163726.072500", "163727.562500", "163729.052500", "163730.542500", "163732.032500", "163733.522500", "163735.012500", "163736.502500", "163737.992500", "163739.482500", "163740.972500", "163742.462500", "163743.952500", "163745.442500", "163746.932500", "163748.422500", "163749.912500", "163751.402500", "163752.892500", "163754.382500", "163755.872500", "163757.362500", "163758.852500", "163800.342500", "163801.832500", "163803.322500", "163804.812500", "163806.302500", "163807.792500", "163809.282500", "163810.772500", "163812.262500", "163813.752500", "163815.242500", "163816.732500", "163818.222500", "163819.712500", "163821.202500", "163822.692500", "163824.182500", "163825.672500", "163827.162500", "163828.652500", "163830.142500", "163831.632500", "163833.122500", "163834.612500", "163836.102500", "163837.592500", "163839.082500", "163840.572500", "163842.062500", "163843.552500", "163845.042500", "163846.532500", "163848.022500", "163849.512500", "163851.002500", "163852.492500", "163853.982500", "163855.472500", "163856.962500", "163858.452500", "163859.942500", "163901.432500", "163902.922500", "163904.412500", "163905.902500", "163907.392500", "163908.882500", "163910.372500", "163911.862500", "163913.352500", "163914.842500", "163916.332500", "163917.822500", "163919.312500", "163920.802500", "163922.292500", "163923.782500", "163925.272500", "163926.762500", "163928.252500", "163929.742500", "163931.232500", "163932.722500", "163934.212500", "163935.702500", "163937.192500", "163938.682500", "163940.172500", "163941.662500", "163943.152500", "163944.642500", "163946.132500", "163947.622500", "163949.112500", "163950.602500", "163952.092500", "163953.582500", "163955.072500", "163956.562500", "163958.052500", "163959.542500", "164001.032500", "164002.522500", "164004.012500", "164005.502500", "164006.992500", "164008.482500", "164009.972500", "164011.462500", "164012.952500", "164014.442500", "164015.932500", "164017.422500", "164018.912500", "164020.402500", "164021.892500", "164023.382500", "164024.872500", "164026.362500", "164027.852500", "164029.342500", "164030.832500", "164032.322500", "164033.812500", "164035.302500", "164036.792500", "164038.282500", "164039.772500", "164041.262500", "164042.752500", "164044.242500", "164045.732500", "164047.222500", "164048.712500", "164050.202500", "164051.692500", "164053.182500", "164054.672500", "164056.162500", "164057.652500", "164059.142500", "164100.632500", "164102.122500", "164103.612500", "164105.102500", "164106.592500", "164108.082500", "164109.572500", "164111.062500", "164112.552500", "164114.042500", "164115.532500", "164117.022500", "164118.512500", "164120.002500", "164121.492500", "164122.982500", "164124.472500", "164125.962500", "164127.452500", "164128.942500", "164130.432500", "164131.922500", "164133.412500", "164134.902500", "164136.392500", "164137.882500", "164139.372500", "164140.862500", "164142.352500", "164143.842500", "164145.332500", "164146.822500", "164148.312500", "164149.802500", "164151.292500", "164152.782500", "164154.272500", "164155.762500", "164157.252500", "164158.742500", "164200.232500", "164201.722500", "164203.212500", "164204.702500", "164206.192500", "164207.682500", "164209.172500", "164210.662500", "164212.152500", "164213.642500", "164215.132500", "164216.622500", "164218.112500", "164219.602500", "164221.092500", "164222.582500", "164224.072500", "164225.562500", "164227.052500", "164228.542500", "164230.032500", "164231.522500", "164233.012500", "164234.502500", "164235.992500", "164237.482500", "164238.972500", "164240.462500", "164241.952500", "164243.442500", "164244.932500", "164246.422500", "164247.912500", "164249.402500", "164250.892500", "164252.382500", "164253.872500", "164255.362500", "164256.852500", "164258.342500", "164259.832500", "164301.322500", "164302.812500", "164304.302500", "164305.792500", "164307.282500", "164308.772500", "164310.262500", "164311.752500", "164313.242500", "164314.732500", "164316.222500", "164317.712500", "164319.202500", "164320.692500", "164322.182500", "164323.672500", "164325.162500", "164326.652500", "164328.142500", "164329.632500", "164331.122500", "164332.612500", "164334.102500", "164335.592500", "164337.082500", "164338.572500", "164340.062500", "164341.552500", "164343.042500", "164344.532500", "164346.022500", "164347.512500", "164349.002500", "164350.492500", "164351.982500", "164353.472500", "164354.962500", "164356.452500", "164357.942500", "164359.432500", "164400.922500", "164402.412500", "164403.902500", "164405.392500", "164406.882500", "164408.372500", "164409.862500", "164411.352500", "164412.842500", "164414.332500", "164415.822500", "164417.312500", "164418.802500", "164420.292500", "164421.782500", "164423.272500", "164424.762500", "164426.252500", "164427.742500", "164429.232500", "164430.722500", "164432.212500", "164433.702500", "164435.192500", "164436.682500", "164438.172500", "164439.662500", "164441.152500", "164442.642500", "164444.132500", "164445.622500", "164447.112500", "164448.602500", "164450.092500", "164451.582500", "164453.072500", "164454.562500", "164456.052500", "164457.542500", "164459.032500", "164500.522500", "164502.012500", "164503.502500", "164504.992500", "164506.482500", "164507.972500", "164509.462500", "164510.952500", "164512.442500", "164513.932500", "164515.422500", "164516.912500", "164518.402500", "164519.892500", "164521.382500", "164522.872500", "164524.362500", "164525.852500", "164527.342500", "164528.832500", "164530.322500", "164531.812500", "164533.302500", "164534.792500", "164536.282500", "164537.772500", "164539.262500", "164540.752500", "164542.242500", "164543.732500", "164545.222500", "164546.712500", "164548.202500", "164549.692500", "164551.182500", "164552.672500", "164554.162500", "164555.652500", "164557.142500", "164558.632500"],
      "ContentTime": ["163510.680000", "163510.683000", "163530.649000", "163530.652000", "163530.655000", "163530.658000", "163530.661000", "163530.663000", "163530.675000", "163530.678000", "163530.680000", "163530.683000", "163530.686000", "163530.689000", "163530.692000", "163530.695000", "163530.698000", "163530.701000", "163530.704000", "163530.707000", "163530.709000", "163530.712000", "163550.649000", "163550.652000", "163550.655000", "163550.658000", "163550.661000", "163550.664000", "163550.667000", "163550.670000", "163550.673000", "163550.676000", "163550.678000", "163550.681000", "163550.684000", "163550.687000", "163550.690000", "163550.693000", "163550.696000", "163550.699000", "163550.702000", "163550.705000", "163610.649000", "163610.652000", "163610.655000", "163610.658000", "163610.661000", "163610.664000", "163610.666000", "163610.669000", "163610.672000", "163610.675000", "163610.678000", "163610.681000", "163610.684000", "163610.687000", "163610.690000", "163610.693000", "163610.695000", "163610.698000", "163610.701000", "163610.704000", "163610.707000", "163630.649000", "163630.652000", "163630.655000", "163630.658000", "163630.661000", "163630.664000", "163630.667000", "163630.670000", "163630.673000", "163630.676000", "163630.679000", "163630.682000", "163630.684000", "163630.687000", "163630.690000", "163630.693000", "163630.696000", "163630.699000", "163630.702000", "163630.711000", "163710.649000", "163710.652000", "163710.655000", "163710.658000", "163710.661000", "163710.663000", "163710.666000", "163710.669000", "163710.672000", "163710.675000", "163710.678000", "163710.681000", "163710.684000", "163710.687000", "163710.690000", "163710.693000", "163710.696000", "163710.704000", "163710.707000", "163710.710000", "163710.713000", "163710.716000", "163710.719000", "163710.722000", "163710.725000", "163710.728000", "163710.731000", "163710.734000", "163710.737000", "163710.740000", "163710.743000", "163750.649000", "163750.652000", "163750.655000", "163750.658000", "163750.661000", "163750.664000", "163750.667000", "163750.670000", "163750.673000", "163750.676000", "163750.679000", "163750.682000", "163750.685000", "163750.687000", "163750.691000", "163750.693000", "163750.696000", "163750.699000", "163750.702000", "163750.705000", "163750.708000", "163750.711000", "163750.714000", "163750.717000", "163750.720000", "163750.723000", "163750.725000", "163830.649000", "163830.652000", "163830.655000", "163830.658000", "163830.661000", "163830.664000", "163830.667000", "163830.670000", "163830.673000", "163830.676000", "163830.679000", "163830.682000", "163830.685000", "163830.688000", "163830.691000", "163830.694000", "163830.696000", "163830.699000", "163830.702000", "163830.705000", "163830.708000", "163830.711000", "163830.714000", "163830.717000", "163830.720000", "163830.723000", "163830.726000", "163910.649000", "163910.652000", "163910.655000", "163910.658000", "163910.661000", "163910.670000", "163910.674000", "163910.676000", "163910.679000", "163910.682000", "163910.685000", "163910.688000", "163910.691000", "163910.694000", "163910.697000", "163910.700000", "163910.703000", "163910.706000", "163910.709000", "163910.712000", "163910.715000", "163910.718000", "163910.720000", "163910.723000", "163910.726000", "163910.729000", "163910.732000", "163950.649000", "163950.652000", "163950.655000", "163950.658000", "163950.661000", "163950.664000", "163950.667000", "163950.670000", "163950.673000", "163950.687000", "163950.690000", "163950.693000", "163950.695000", "163950.699000", "163950.701000", "163950.704000", "163950.707000", "163950.710000", "163950.713000", "163950.716000", "163950.719000", "163950.722000", "163950.725000", "163950.728000", "163950.731000", "163950.734000", "164030.649000", "164030.652000", "164030.655000", "164030.658000", "164030.661000", "164030.664000", "164030.667000", "164030.669000", "164030.672000", "164030.675000", "164030.678000", "164030.681000", "164030.684000", "164030.687000", "164030.690000", "164030.693000", "164030.696000", "164030.699000", "164030.702000", "164030.705000", "164030.708000", "164030.711000", "164030.714000", "164030.717000", "164030.719000", "164030.723000", "164030.725000", "164110.649000", "164110.652000", "164110.655000", "164110.658000", "164110.661000", "164110.664000", "164110.667000", "164110.670000", "164110.673000", "164110.676000", "164110.679000", "164110.682000", "164110.685000", "164110.688000", "164110.691000", "164110.694000", "164110.697000", "164110.700000", "164110.703000", "164110.706000", "164110.709000", "164110.712000", "164110.715000", "164110.718000", "164110.721000", "164110.724000", "164110.727000", "164150.649000", "164150.652000", "164150.655000", "164150.658000", "164150.661000", "164150.664000", "164150.667000", "164150.670000", "164150.673000", "164150.676000", "164150.678000", "164150.681000", "164150.684000", "164150.687000", "164150.690000", "164150.693000", "164150.696000", "164150.699000", "164150.702000", "164150.705000", "164150.708000", "164150.711000", "164150.714000", "164150.717000", "164150.720000", "164150.723000", "164150.726000", "164230.649000", "164230.652000", "164230.655000", "164230.658000", "164230.661000", "164230.664000", "164230.667000", "164230.670000", "164230.673000", "164230.676000", "164230.679000", "164230.682000", "164230.685000", "164230.688000", "164230.691000", "164230.694000", "164230.696000", "164230.699000", "164230.702000", "164230.705000", "164230.708000", "164230.711000", "164230.714000", "164230.717000", "164230.720000", "164230.723000", "164230.726000", "164250.649000", "164250.652000", "164250.655000", "164250.658000", "164250.661000", "164250.664000", "164250.667000", "164250.670000", "164250.673000", "164250.676000", "164250.679000", "164250.681000", "164250.684000", "164330.649000", "164330.652000", "164330.655000", "164330.658000", "164330.661000", "164330.664000", "164330.675000", "164330.678000", "164330.681000", "164330.684000", "164330.687000", "164330.690000", "164330.693000", "164330.696000", "164330.699000", "164330.702000", "164330.705000", "164330.708000", "164330.711000", "164330.726000", "164330.729000", "164330.732000", "164330.735000", "164330.738000", "164330.741000", "164330.744000", "164330.746000", "164410.649000", "164410.652000", "164410.655000", "164410.658000", "164410.661000", "164410.664000", "164410.667000", "164410.670000", "164410.673000", "164410.676000", "164410.678000", "164410.681000", "164410.684000", "164410.687000", "164410.690000", "164410.693000", "164410.696000", "164410.699000", "164410.702000", "164410.705000", "164410.708000", "164410.710000", "164410.713000", "164410.716000", "164410.719000", "164410.722000", "164410.725000", "164450.649000", "164450.652000", "164450.655000", "164450.658000", "164450.661000", "164450.664000", "164450.667000", "164450.670000", "164450.673000", "164450.676000", "164450.678000", "164450.681000", "164450.684000", "164450.687000", "164450.690000", "164450.693000", "164450.696000", "164450.699000", "164450.702000", "164450.705000", "164450.707000", "164450.710000", "164450.713000", "164450.716000", "164450.719000", "164450.722000", "164450.725000", "164530.649000", "164530.652000", "164530.655000", "164530.658000", "164530.661000", "164530.664000", "164530.667000", "164530.670000", "164530.673000", "164530.676000", "164530.678000", "164530.681000", "164530.684000", "164530.687000", "164530.690000", "164530.693000", "164530.696000", "164530.699000", "164530.702000", "164530.704000", "164530.707000", "164530.710000", "164530.713000", "164530.716000", "164530.719000", "164530.722000", "164530.725000", "164610.651000", "164610.654000", "164610.658000", "164610.661000", "164610.664000", "164610.667000", "164610.675000", "164610.679000", "164610.682000", "164610.685000", "164610.688000", "164610.691000", "164610.694000", "164610.697000", "164610.700000", "164610.703000", "164610.707000", "164610.710000", "164610.713000", "164610.716000", "164610.719000", "164610.722000", "164610.725000", "164610.728000", "164610.731000", "164610.734000", "164610.792000"],
