{
  "AcquisitionMatrixPE": 104,
  "AcquisitionNumber": 1,
  "AcquisitionTime": "14:18:51.432500",
  "BandwidthPerPixelPhaseEncode": 17.17,
  "BaseResolution": 104,
  "BodyPartExamined": "BRAIN",
  "CoilString": "HC1-7;NC1_2",
  "ConsistencyInfo": "N4_VE11C_LATEST_20160120",
  "ConversionSoftware": "dcm2niix",
  "ConversionSoftwareVersion": "v1.0.20190902",
  "DerivedVendorReportedEchoSpacing": 0.000560011,
  "DeviceSerialNumber": "167006",
  "DwellTime": 2.1e-06,
  "EchoTime": 0.037,
  "EchoTrainLength": 104,
  "EffectiveEchoSpacing": 0.000560011,
  "FlipAngle": 52,
  "ImageComments": "Unaliased_MB4_PE3_LB",
  "ImageOrientationPatientDICOM": [0.99962, -0.0237123, 0.0140711, 0.0275727, 0.85752, -0.513711],
  "ImageType": [
    "ORIGINAL",
    "PRIMARY",
    "M",
    "MB",
    "ND",
    "MOSAIC"
],
  "ImagingFrequency": 123.259,
  "InPlanePhaseEncodingDirectionDICOM": "COL",
  "InstitutionAddress": "Chemin_Queen-Mary_4565_Montreal_District_CA_H3W_1W5",
  "InstitutionName": "IUGM",
  "InstitutionalDepartmentName": "Department",
  "MRAcquisitionType": "2D",
  "MagneticFieldStrength": 3,
  "Manufacturer": "Siemens",
  "ManufacturersModelName": "Prisma_fit",
  "Modality": "MR",
  "MultibandAccelerationFactor": 4,
  "PartialFourier": 1,
  "PatientPosition": "HFS",
  "PercentPhaseFOV": 100,
  "PhaseEncodingDirection": "j",
  "PhaseEncodingSteps": 104,
  "PhaseResolution": 1,
  "PixelBandwidth": 2290,
  "ProcedureStepDescription": "video_friends",
  "ProtocolName": "func_task-friends-s05e23c",
  "PulseSequenceDetails": "%CustomerSeq%_cmrr_mbep2d_bold",
  "ReceiveCoilActiveElements": "HC1-7;NC1,2",
  "ReceiveCoilName": "HeadNeck_64",
  "ReconMatrixPE": 104,
  "RepetitionTime": 1.49,
  "SAR": 0.0397741,
  "ScanOptions": "FS",
  "ScanningSequence": "EP",
  "SequenceName": "epfid2d1_104",
  "SequenceVariant": "SK_SS",
  "SeriesDescription": "func_task-friends-s05e23c",
  "SeriesNumber": 13,
  "ShimSetting": [623, -7206, -8876, 391, -38, -248, 25, -45],
  "SliceThickness": 2,
  "SliceTiming": [0, 0.7825, 0.0975, 0.88, 0.195, 0.98, 0.2925, 1.0775, 0.39, 1.175, 0.49, 1.2725, 0.5875, 1.37, 0.685, 0, 0.7825, 0.0975, 0.88, 0.195, 0.98, 0.2925, 1.0775, 0.39, 1.175, 0.49, 1.2725, 0.5875, 1.37, 0.685, 0, 0.7825, 0.0975, 0.88, 0.195, 0.98, 0.2925, 1.0775, 0.39, 1.175, 0.49, 1.2725, 0.5875, 1.37, 0.685, 0, 0.7825, 0.0975, 0.88, 0.195, 0.98, 0.2925, 1.0775, 0.39, 1.175, 0.49, 1.2725, 0.5875, 1.37, 0.685],
  "SoftwareVersions": "syngo_MR_E11",
  "SpacingBetweenSlices": 2,
  "StationName": "MRC35049",
  "TaskName": "s05e23c",
  "TotalReadoutTime": 0.0576811,
  "TxRefAmp": 250.253,
  "WipMemBlock": "51df96d4-eb68-496d-befa-2ba7ad3b6138||Sequence: R016 ve11c/master r/e634e98; Dec 19 2017 11:00:25 by eja",
  "dcmmeta_affine": [
    [-1.9992395639419556, 0.05514546111226082, -0.00023004942340776324, 99.50255584716797],
    [0.047424592077732086, 1.7150400876998901, -1.027807593345642, -61.13914489746094],
    [0.028142189607024193, 1.027422308921814, 1.7156956195831299, -103.64755249023438],
    [0.0, 0.0, 0.0, 1.0]
],
  "dcmmeta_reorient_transform": [
    [0.0, -1.0, 0.0, 103.0],
    [1.0, 0.0, 0.0, 0.0],
    [0.0, 0.0, 1.0, 0.0],
    [0.0, 0.0, 0.0, 1.0]
],
  "dcmmeta_shape": [104, 104, 60, 458],
  "dcmmeta_slice_dim": 2,
  "dcmmeta_version": 0.6,
  "global": {
    "const": {
      "AcquisitionMatrix": [104, 0, 0, 104],
      "AngioFlag": "N",
      "BitsAllocated": 16,
      "BitsStored": 16,
      "BodyPartExamined": "BRAIN",
      "Columns": 832,
      "EchoNumbers": 1,
      "EchoTime": 37.0,
      "EchoTrainLength": 104,
      "FlipAngle": 52.0,
      "HighBit": 15,
      "ImageOrientationPatient": [0.99961979337292, -0.0237122958947, 0.01407109521291, 0.02757273048511, 0.85752003045185, -0.5137111463726],
      "ImagePositionPatient": [-852.97869373347, -722.52201288896, 365.91489710711],
      "ImageType": [
        "ORIGINAL",
        "PRIMARY",
        "M",
        "MB",
        "ND",
        "MOSAIC"
],
      "ImagedNucleus": "1H",
      "ImagingFrequency": 123.258985,
      "InPlanePhaseEncodingDirection": "COL",
      "MRAcquisitionType": "2D",
      "MagneticFieldStrength": 3.0,
      "Manufacturer": "SIEMENS",
      "ManufacturerModelName": "Prisma_fit",
      "Modality": "MR",
      "NumberOfAverages": 1.0,
      "NumberOfPhaseEncodingSteps": 104,
      "PercentPhaseFieldOfView": 100.0,
      "PercentSampling": 100.0,
      "PerformedProcedureStepStartTime": "133112.573000",
      "PhotometricInterpretation": "MONOCHROME2",
      "PixelBandwidth": 2290.0,
      "PixelRepresentation": 0,
      "PixelSpacing": [2.0, 2.0],
      "ProtocolName": "func_task-friends-s05e23c",
      "RepetitionTime": 1490.0,
      "Rows": 832,
      "SAR": 0.03977407214424,
      "SamplesPerPixel": 1,
      "ScanOptions": "FS",
      "ScanningSequence": "EP",
      "SequenceName": "epfid2d1_104",
      "SequenceVariant": [
        "SK",
        "SS"
],
      "SeriesDescription": "func_task-friends-s05e23c",
      "SeriesNumber": 13,
      "SeriesTime": "141948.026000",
      "SliceLocation": -57.505635238374,
      "SliceThickness": 2.0,
      "SmallestImagePixelValue": 0,
      "SoftwareVersions": "syngo MR E11",
      "SpacingBetweenSlices": 1.9999999981507,
      "SpecificCharacterSet": "ISO_IR 100",
      "StudyID": "1",
      "StudyTime": "133112.500000",
      "TransmitCoilName": "Body",
      "VariableFlipAngleFlag": "N",
      "WindowCenterWidthExplanation": "Algo1",
      "dBdt": 0.0},
    "slices": {}
  },
  "time": {
    "samples": {
      "AcquisitionNumber": [1, 2, 3, 4, 5, 6, 7, 8, 9, 10, 11, 12, 13, 14, 15, 16, 17, 18, 19, 20, 21, 22, 23, 24, 25, 26, 27, 28, 29, 30, 31, 32, 33, 34, 35, 36, 37, 38, 39, 40, 41, 42, 43, 44, 45, 46, 47, 48, 49, 50, 51, 52, 53, 54, 55, 56, 57, 58, 59, 60, 61, 62, 63, 64, 65, 66, 67, 68, 69, 70, 71, 72, 73, 74, 75, 76, 77, 78, 79, 80, 81, 82, 83, 84, 85, 86, 87, 88, 89, 90, 91, 92, 93, 94, 95, 96, 97, 98, 99, 100, 101, 102, 103, 104, 105, 106, 107, 108, 109, 110, 111, 112, 113, 114, 115, 116, 117, 118, 119, 120, 121, 122, 123, 124, 125, 126, 127, 128, 129, 130, 131, 132, 133, 134, 135, 136, 137, 138, 139, 140, 141, 142, 143, 144, 145, 146, 147, 148, 149, 150, 151, 152, 153, 154, 155, 156, 157, 158, 159, 160, 161, 162, 163, 164, 165, 166, 167, 168, 169, 170, 171, 172, 173, 174, 175, 176, 177, 178, 179, 180, 181, 182, 183, 184, 185, 186, 187, 188, 189, 190, 191, 192, 193, 194, 195, 196, 197, 198, 199, 200, 201, 202, 203, 204, 205, 206, 207, 208, 209, 210, 211, 212, 213, 214, 215, 216, 217, 218, 219, 220, 221, 222, 223, 224, 225, 226, 227, 228, 229, 230, 231, 232, 233, 234, 235, 236, 237, 238, 239, 240, 241, 242, 243, 244, 245, 246, 247, 248, 249, 250, 251, 252, 253, 254, 255, 256, 257, 258, 259, 260, 261, 262, 263, 264, 265, 266, 267, 268, 269, 270, 271, 272, 273, 274, 275, 276, 277, 278, 279, 280, 281, 282, 283, 284, 285, 286, 287, 288, 289, 290, 291, 292, 293, 294, 295, 296, 297, 298, 299, 300, 301, 302, 303, 304, 305, 306, 307, 308, 309, 310, 311, 312, 313, 314, 315, 316, 317, 318, 319, 320, 321, 322, 323, 324, 325, 326, 327, 328, 329, 330, 331, 332, 333, 334, 335, 336, 337, 338, 339, 340, 341, 342, 343, 344, 345, 346, 347, 348, 349, 350, 351, 352, 353, 354, 355, 356, 357, 358, 359, 360, 361, 362, 363, 364, 365, 366, 367, 368, 369, 370, 371, 372, 373, 374, 375, 376, 377, 378, 379, 380, 381, 382, 383, 384, 385, 386, 387, 388, 389, 390, 391, 392, 393, 394, 395, 396, 397, 398, 399, 400, 401, 402, 403, 404, 405, 406, 407, 408, 409, 410, 411, 412, 413, 414, 415, 416, 417, 418, 419, 420, 421, 422, 423, 424, 425, 426, 427, 428, 429, 430, 431, 432, 433, 434, 435, 436, 437, 438, 439, 440, 441, 442, 443, 444, 445, 446, 447, 448, 449, 450, 451, 452, 453, 454, 455, 456, 457, 458],
      "AcquisitionTime": ["141851.432500", "141852.922500", "141854.412500", "141855.902500", "141857.392500", "141858.882500", "141900.372500", "141901.862500", "141903.352500", "141904.842500", "141906.332500", "141907.822500", "141909.312500", "141910.802500", "141912.292500", "141913.782500", "141915.272500", "141916.762500", "141918.252500", "141919.742500", "141921.232500", "141922.722500", "141924.212500", "141925.702500", "141927.192500", "141928.682500", "141930.172500", "141931.662500", "141933.152500", "141934.642500", "141936.132500", "141937.622500", "141939.112500", "141940.602500", "141942.092500", "141943.582500", "141945.072500", "141946.562500", "141948.052500", "141949.542500", "141951.032500", "141952.522500", "141954.012500", "141955.502500", "141956.992500", "141958.482500", "141959.972500", "142001.462500", "142002.952500", "142004.442500", "142005.932500", "142007.422500", "142008.912500", "142010.402500", "142011.892500", "142013.382500", "142014.872500", "142016.362500", "142017.852500", "142019.342500", "142020.832500", "142022.322500", "142023.812500", "142025.302500", "142026.792500", "142028.282500", "142029.772500", "142031.262500", "142032.752500", "142034.242500", "142035.732500", "142037.222500", "142038.712500", "142040.202500", "142041.692500", "142043.182500", "142044.672500", "142046.162500", "142047.652500", "142049.142500", "142050.632500", "142052.122500", "142053.612500", "142055.102500", "142056.592500", "142058.082500", "142059.572500", "142101.062500", "142102.552500", "142104.042500", "142105.532500", "142107.022500", "142108.512500", "142110.002500", "142111.492500", "142112.982500", "142114.472500", "142115.962500", "142117.452500", "142118.942500", "142120.432500", "142121.922500", "142123.412500", "142124.902500", "142126.392500", "142127.882500", "142129.372500", "142130.862500", "142132.352500", "142133.842500", "142135.332500", "142136.822500", "142138.312500", "142139.802500", "142141.292500", "142142.782500", "142144.272500", "142145.762500", "142147.252500", "142148.742500", "142150.232500", "142151.722500", "142153.212500", "142154.702500", "142156.192500", "142157.682500", "142159.172500", "142200.662500", "142202.152500", "142203.642500", "142205.132500", "142206.622500", "142208.112500", "142209.602500", "142211.092500", "142212.582500", "142214.072500", "142215.562500", "142217.052500", "142218.542500", "142220.032500", "142221.522500", "142223.012500", "142224.502500", "142225.992500", "142227.482500", "142228.972500", "142230.462500", "142231.952500", "142233.442500", "142234.932500", "142236.422500", "142237.912500", "142239.402500", "142240.892500", "142242.382500", "142243.872500", "142245.362500", "142246.852500", "142248.342500", "142249.832500", "142251.322500", "142252.812500", "142254.302500", "142255.792500", "142257.282500", "142258.772500", "142300.262500", "142301.752500", "142303.242500", "142304.732500", "142306.222500", "142307.712500", "142309.202500", "142310.692500", "142312.182500", "142313.672500", "142315.162500", "142316.652500", "142318.142500", "142319.632500", "142321.122500", "142322.612500", "142324.102500", "142325.592500", "142327.082500", "142328.572500", "142330.062500", "142331.552500", "142333.042500", "142334.532500", "142336.022500", "142337.512500", "142339.002500", "142340.492500", "142341.982500", "142343.472500", "142344.962500", "142346.452500", "142347.942500", "142349.432500", "142350.922500", "142352.412500", "142353.902500", "142355.392500", "142356.882500", "142358.372500", "142359.862500", "142401.352500", "142402.842500", "142404.332500", "142405.822500", "142407.312500", "142408.802500", "142410.292500", "142411.782500", "142413.272500", "142414.762500", "142416.252500", "142417.742500", "142419.232500", "142420.722500", "142422.212500", "142423.702500", "142425.192500", "142426.682500", "142428.172500", "142429.662500", "142431.152500", "142432.642500", "142434.132500", "142435.622500", "142437.112500", "142438.602500", "142440.092500", "142441.582500", "142443.072500", "142444.562500", "142446.052500", "142447.542500", "142449.032500", "142450.522500", "142452.012500", "142453.502500", "142454.992500", "142456.482500", "142457.972500", "142459.462500", "142500.952500", "142502.442500", "142503.932500", "142505.422500", "142506.912500", "142508.402500", "142509.892500", "142511.382500", "142512.872500", "142514.362500", "142515.852500", "142517.342500", "142518.832500", "142520.322500", "142521.812500", "142523.302500", "142524.792500", "142526.282500", "142527.772500", "142529.262500", "142530.752500", "142532.242500", "142533.732500", "142535.222500", "142536.712500", "142538.202500", "142539.692500", "142541.182500", "142542.672500", "142544.162500", "142545.652500", "142547.142500", "142548.632500", "142550.122500", "142551.612500", "142553.102500", "142554.592500", "142556.082500", "142557.572500", "142559.062500", "142600.552500", "142602.042500", "142603.532500", "142605.022500", "142606.512500", "142608.002500", "142609.492500", "142610.982500", "142612.472500", "142613.962500", "142615.452500", "142616.942500", "142618.432500", "142619.922500", "142621.412500", "142622.902500", "142624.392500", "142625.882500", "142627.372500", "142628.862500", "142630.352500", "142631.842500", "142633.332500", "142634.822500", "142636.312500", "142637.802500", "142639.292500", "142640.782500", "142642.272500", "142643.762500", "142645.252500", "142646.742500", "142648.232500", "142649.722500", "142651.212500", "142652.702500", "142654.192500", "142655.682500", "142657.172500", "142658.662500", "142700.152500", "142701.642500", "142703.132500", "142704.622500", "142706.112500", "142707.602500", "142709.092500", "142710.582500", "142712.072500", "142713.562500", "142715.052500", "142716.542500", "142718.032500", "142719.522500", "142721.012500", "142722.502500", "142723.992500", "142725.482500", "142726.972500", "142728.462500", "142729.952500", "142731.442500", "142732.932500", "142734.422500", "142735.912500", "142737.402500", "142738.892500", "142740.382500", "142741.872500", "142743.362500", "142744.852500", "142746.342500", "142747.832500", "142749.322500", "142750.812500", "142752.302500", "142753.792500", "142755.282500", "142756.772500", "142758.262500", "142759.752500", "142801.242500", "142802.732500", "142804.222500", "142805.712500", "142807.202500", "142808.692500", "142810.182500", "142811.672500", "142813.162500", "142814.652500", "142816.142500", "142817.632500", "142819.122500", "142820.612500", "142822.102500", "142823.592500", "142825.082500", "142826.572500", "142828.062500", "142829.552500", "142831.042500", "142832.532500", "142834.022500", "142835.512500", "142837.002500", "142838.492500", "142839.982500", "142841.472500", "142842.962500", "142844.452500", "142845.942500", "142847.432500", "142848.922500", "142850.412500", "142851.902500", "142853.392500", "142854.882500", "142856.372500", "142857.862500", "142859.352500", "142900.842500", "142902.332500", "142903.822500", "142905.312500", "142906.802500", "142908.292500", "142909.782500", "142911.272500", "142912.762500", "142914.252500", "142915.742500", "142917.232500", "142918.722500", "142920.212500", "142921.702500", "142923.192500", "142924.682500", "142926.172500", "142927.662500", "142929.152500", "142930.642500", "142932.132500", "142933.622500", "142935.112500", "142936.602500", "142938.092500", "142939.582500", "142941.072500", "142942.562500", "142944.052500", "142945.542500", "142947.032500", "142948.522500", "142950.012500", "142951.502500", "142952.992500", "142954.482500", "142955.972500", "142957.462500", "142958.952500", "143000.442500", "143001.932500", "143003.422500", "143004.912500", "143006.402500", "143007.892500", "143009.382500", "143010.872500", "143012.362500"],
      "ContentTime": ["141948.029000", "141948.032000", "142008.000000", "142008.003000", "142008.006000", "142008.009000", "142008.019000", "142008.022000", "142008.024000", "142008.027000", "142008.030000", "142008.033000", "142008.036000", "142008.052000", "142008.055000", "142008.058000", "142008.061000", "142008.063000", "142008.066000", "142008.069000", "142008.072000", "142008.075000", "142028.000000", "142028.003000", "142028.006000", "142028.010000", "142028.013000", "142028.016000", "142028.019000", "142028.022000", "142028.025000", "142028.028000", "142028.031000", "142028.034000", "142028.037000", "142028.040000", "142028.043000", "142028.046000", "142028.049000", "142028.052000", "142028.055000", "142028.057000", "142048.000000", "142048.003000", "142048.006000", "142048.009000", "142048.012000", "142048.015000", "142048.017000", "142048.020000", "142048.023000", "142048.031000", "142048.034000", "142048.036000", "142048.039000", "142048.042000", "142048.045000", "142048.048000", "142048.050000", "142048.054000", "142048.057000", "142048.060000", "142048.063000", "142108.000000", "142108.003000", "142108.006000", "142108.009000", "142108.012000", "142108.014000", "142108.017000", "142108.020000", "142108.023000", "142108.026000", "142108.028000", "142108.031000", "142108.039000", "142108.042000", "142108.045000", "142108.048000", "142108.051000", "142108.053000", "142108.056000", "142108.059000", "142128.001000", "142128.004000", "142128.007000", "142128.009000", "142128.012000", "142128.015000", "142128.018000", "142128.021000", "142128.024000", "142128.027000", "142128.029000", "142128.032000", "142128.035000", "142128.038000", "142128.041000", "142128.050000", "142128.060000", "142128.063000", "142128.066000", "142128.069000", "142208.000000", "142208.003000", "142208.006000", "142208.015000", "142208.018000", "142208.021000", "142208.023000", "142208.026000", "142208.029000", "142208.032000", "142208.035000", "142208.038000", "142208.040000", "142208.043000", "142208.046000", "142208.049000", "142208.052000", "142208.055000", "142208.057000", "142208.060000", "142208.063000", "142208.066000", "142208.069000", "142208.072000", "142208.075000", "142208.077000", "142208.080000", "142208.083000", "142248.000000", "142248.003000", "142248.006000", "142248.009000", "142248.011000", "142248.014000", "142248.017000", "142248.020000", "142248.023000", "142248.026000", "142248.028000", "142248.031000", "142248.034000", "142248.037000", "142248.040000", "142248.043000", "142248.046000", "142248.048000", "142248.051000", "142248.054000", "142248.057000", "142248.060000", "142248.063000", "142248.065000", "142248.068000", "142248.071000", "142248.074000", "142328.000000", "142328.003000", "142328.006000", "142328.008000", "142328.011000", "142328.014000", "142328.017000", "142328.020000", "142328.023000", "142328.026000", "142328.028000", "142328.044000", "142328.053000", "142328.056000", "142328.059000", "142328.062000", "142328.064000", "142328.067000", "142328.070000", "142328.073000", "142328.076000", "142328.079000", "142328.081000", "142328.084000", "142328.087000", "142328.090000", "142328.093000", "142408.001000", "142408.004000", "142408.007000", "142408.010000", "142408.013000", "142408.015000", "142408.018000", "142408.021000", "142408.024000", "142408.027000", "142408.030000", "142408.032000", "142408.035000", "142408.038000", "142408.041000", "142408.044000", "142408.047000", "142408.049000", "142408.052000", "142408.055000", "142408.058000", "142408.061000", "142408.064000", "142408.067000", "142408.070000", "142408.073000", "142408.075000", "142448.000000", "142448.003000", "142448.006000", "142448.009000", "142448.012000", "142448.014000", "142448.017000", "142448.020000", "142448.023000", "142448.026000", "142448.029000", "142448.032000", "142448.034000", "142448.037000", "142448.040000", "142448.043000", "142448.046000", "142448.049000", "142448.051000", "142448.054000", "142448.057000", "142448.060000", "142448.063000", "142448.066000", "142448.069000", "142448.072000", "142448.074000", "142528.000000", "142528.003000", "142528.006000", "142528.009000", "142528.018000", "142528.021000", "142528.024000", "142528.027000", "142528.030000", "142528.032000", "142528.035000", "142528.038000", "142528.041000", "142528.044000", "142528.047000", "142528.050000", "142528.053000", "142528.055000", "142528.058000", "142528.061000", "142528.064000", "142528.067000", "142528.070000", "142528.073000", "142528.076000", "142528.080000", "142608.001000", "142608.004000", "142608.007000", "142608.010000", "142608.013000", "142608.015000", "142608.018000", "142608.021000", "142608.024000", "142608.027000", "142608.030000", "142608.033000", "142608.035000", "142608.038000", "142608.041000", "142608.044000", "142608.047000", "142608.050000", "142608.053000", "142608.055000", "142608.058000", "142608.061000", "142608.064000", "142608.067000", "142608.070000", "142608.072000", "142608.075000", "142648.000000", "142648.003000", "142648.006000", "142648.009000", "142648.012000", "142648.014000", "142648.017000", "142648.020000", "142648.023000", "142648.026000", "142648.029000", "142648.032000", "142648.035000", "142648.037000", "142648.040000", "142648.043000", "142648.046000", "142648.049000", "142648.052000", "142648.055000", "142648.057000", "142648.060000", "142648.063000", "142648.066000", "142648.069000", "142648.072000", "142648.075000", "142728.000000", "142728.003000", "142728.006000", "142728.009000", "142728.012000", "142728.014000", "142728.024000", "142728.027000", "142728.030000", "142728.033000", "142728.035000", "142728.038000", "142728.041000", "142728.044000", "142728.047000", "142728.050000", "142728.052000", "142728.055000", "142728.058000", "142728.061000", "142728.064000", "142728.067000", "142728.070000", "142728.072000", "142728.075000", "142728.078000", "142728.081000", "142808.000000", "142808.003000", "142808.006000", "142808.009000", "142808.011000", "142808.014000", "142808.029000", "142808.032000", "142808.035000", "142808.038000", "142808.041000", "142808.044000", "142808.047000", "142808.049000", "142808.052000", "142808.055000", "142808.058000", "142808.061000", "142808.064000", "142808.066000", "142808.069000", "142808.072000", "142808.075000", "142808.078000", "142808.081000", "142808.084000", "142808.086000", "142848.000000", "142848.003000", "142848.005000", "142848.008000", "142848.019000", "142848.022000", "142848.024000", "142848.027000", "142848.030000", "142848.033000", "142848.036000", "142848.039000", "142848.042000", "142848.044000", "142848.047000", "142848.050000", "142848.053000", "142848.056000", "142848.059000", "142848.062000", "142848.064000", "142848.067000", "142848.070000", "142848.073000", "142848.076000", "142848.079000", "142848.082000", "142928.000000", "142928.003000", "142928.006000", "142928.009000", "142928.011000", "142928.014000", "142928.017000", "142928.020000", "142928.023000", "142928.026000", "142928.029000", "142928.031000", "142928.034000", "142928.037000", "142928.040000", "142928.043000", "142928.046000", "142928.049000", "142928.052000", "142928.054000", "142928.057000", "142928.060000", "142928.063000", "142928.066000", "142928.069000", "142928.072000", "142928.074000", "143008.000000", "143008.003000", "143008.006000", "143008.009000", "143008.012000", "143008.015000", "143008.017000", "143008.020000", "143008.023000", "143008.026000", "143008.029000", "143008.032000", "143008.034000", "143008.037000", "143008.040000", "143008.043000", "143008.046000", "143008.049000", "143008.052000", "143008.055000", "143008.058000", "143008.061000", "143008.064000", "143008.067000", "143008.070000", "143008.073000", "143014.213000", "143014.216000", "143014.219000", "143014.222000", "143014.225000"],
