{
  "AcquisitionMatrixPE": 104,
  "AcquisitionNumber": 1,
  "AcquisitionTime": "13:56:5.610000",
  "BandwidthPerPixelPhaseEncode": 17.17,
  "BaseResolution": 104,
  "BodyPartExamined": "BRAIN",
  "CoilString": "HC1-7;NC1_2",
  "ConsistencyInfo": "N4_VE11C_LATEST_20160120",
  "ConversionSoftware": "dcm2niix",
  "ConversionSoftwareVersion": "v1.0.20190720  (JP2:OpenJPEG) GCC7.3.0",
  "DerivedVendorReportedEchoSpacing": 0.000560011,
  "DeviceSerialNumber": "167006",
  "DwellTime": 2.1e-06,
  "EchoTime": 0.037,
  "EchoTrainLength": 104,
  "EffectiveEchoSpacing": 0.000560011,
  "FlipAngle": 52,
  "ImageComments": "Unaliased_MB4_PE3_LB",
  "ImageOrientationPatientDICOM": [0.9996, -0.0181575, 0.0216698, 0.0266992, 0.858346, -0.512377],
  "ImageType": [
    "ORIGINAL",
    "PRIMARY",
    "M",
    "MB",
    "ND",
    "MOSAIC"
],
  "ImagingFrequency": 123.259,
  "InPlanePhaseEncodingDirectionDICOM": "COL",
  "InstitutionAddress": "Chemin_Queen-Mary_4565_Montreal_District_CA_H3W_1W5",
  "InstitutionName": "IUGM",
  "InstitutionalDepartmentName": "Department",
  "MRAcquisitionType": "2D",
  "MagneticFieldStrength": 3,
  "Manufacturer": "Siemens",
  "ManufacturersModelName": "Prisma_fit",
  "Modality": "MR",
  "MultibandAccelerationFactor": 4,
  "PartialFourier": 1,
  "PatientPosition": "HFS",
  "PercentPhaseFOV": 100,
  "PhaseEncodingDirection": "j",
  "PhaseEncodingSteps": 104,
  "PhaseResolution": 1,
  "PixelBandwidth": 2290,
  "ProcedureStepDescription": "video_friends",
  "ProtocolName": "func_task-friends-s01e15b",
  "PulseSequenceDetails": "%CustomerSeq%_cmrr_mbep2d_bold",
  "ReceiveCoilActiveElements": "HC1-7;NC1,2",
  "ReceiveCoilName": "HeadNeck_64",
  "ReconMatrixPE": 104,
  "RepetitionTime": 1.49,
  "SAR": 0.0346897,
  "ScanOptions": "FS",
  "ScanningSequence": "EP",
  "SequenceName": "epfid2d1_104",
  "SequenceVariant": "SK_SS",
  "SeriesDescription": "func_task-friends-s01e15b",
  "SeriesNumber": 15,
  "ShimSetting": [630, -7195, -8884, 430, -27, -256, 3, -7],
  "SliceThickness": 2,
  "SliceTiming": [0, 0.785, 0.0975, 0.8825, 0.195, 0.98, 0.295, 1.0775, 0.3925, 1.175, 0.49, 1.275, 0.5875, 1.3725, 0.685, 0, 0.785, 0.0975, 0.8825, 0.195, 0.98, 0.295, 1.0775, 0.3925, 1.175, 0.49, 1.275, 0.5875, 1.3725, 0.685, 0, 0.785, 0.0975, 0.8825, 0.195, 0.98, 0.295, 1.0775, 0.3925, 1.175, 0.49, 1.275, 0.5875, 1.3725, 0.685, 0, 0.785, 0.0975, 0.8825, 0.195, 0.98, 0.295, 1.0775, 0.3925, 1.175, 0.49, 1.275, 0.5875, 1.3725, 0.685],
  "SoftwareVersions": "syngo_MR_E11",
  "SpacingBetweenSlices": 2,
  "StationName": "MRC35049",
  "TaskName": "friends",
  "TotalReadoutTime": 0.0576811,
  "TxRefAmp": 248.75,
  "WipMemBlock": "1a6eb4d1-6d20-4ada-8909-a43c29de0d47||Sequence: R016 ve11c/master r/e634e98; Dec 19 2017 11:00:25 by eja",
  "dcmmeta_affine": [
    [-1.9992005825042725, 0.05339834839105606, 0.018593329936265945, 99.67715454101562],
    [0.03631501644849777, 1.7166913747787476, -1.0255008935928345, -60.248844146728516],
    [0.04333953186869621, 1.024753451347351, 1.7169747352600098, -108.99066925048828],
    [0.0, 0.0, 0.0, 1.0]
],
  "dcmmeta_reorient_transform": [
    [0.0, -1.0, 0.0, 103.0],
    [1.0, 0.0, 0.0, 0.0],
    [0.0, 0.0, 1.0, 0.0],
    [0.0, 0.0, 0.0, 1.0]
],
  "dcmmeta_shape": [104, 104, 60, 477],
  "dcmmeta_slice_dim": 2,
  "dcmmeta_version": 0.6,
  "global": {
    "const": {
      "AcquisitionMatrix": [104, 0, 0, 104],
      "AngioFlag": "N",
      "BitsAllocated": 16,
      "BitsStored": 16,
      "BodyPartExamined": "BRAIN",
      "Columns": 832,
      "EchoNumbers": 1,
      "EchoTime": 37.0,
      "EchoTrainLength": 104,
      "FlipAngle": 52.0,
      "HighBit": 15,
      "ImageOrientationPatient": [0.99960028317331, -0.0181575084549, 0.02166976618598, 0.02669917400532, 0.85834565763931, -0.5123767033338],
      "ImagePositionPatient": [-852.32318810078, -728.22733220516, 353.79358522015],
      "ImageType": [
        "ORIGINAL",
        "PRIMARY",
        "M",
        "MB",
        "ND",
        "MOSAIC"
],
      "ImagedNucleus": "1H",
      "ImagingFrequency": 123.259162,
      "InPlanePhaseEncodingDirection": "COL",
      "MRAcquisitionType": "2D",
      "MagneticFieldStrength": 3.0,
      "Manufacturer": "SIEMENS",
      "ManufacturerModelName": "Prisma_fit",
      "Modality": "MR",
      "NumberOfAverages": 1.0,
      "NumberOfPhaseEncodingSteps": 104,
      "PercentPhaseFieldOfView": 100.0,
      "PercentSampling": 100.0,
      "PerformedProcedureStepStartTime": "125928.311000",
      "PhotometricInterpretation": "MONOCHROME2",
      "PixelBandwidth": 2290.0,
      "PixelRepresentation": 0,
      "PixelSpacing": [2.0, 2.0],
      "ProtocolName": "func_task-friends-s01e15b",
      "RepetitionTime": 1490.0,
      "Rows": 832,
      "SAR": 0.03468971163873,
      "SamplesPerPixel": 1,
      "ScanOptions": "FS",
      "ScanningSequence": "EP",
      "SequenceName": "epfid2d1_104",
      "SequenceVariant": [
        "SK",
        "SS"
],
      "SeriesDescription": "func_task-friends-s01e15b",
      "SeriesNumber": 15,
      "SeriesTime": "135733.535000",
      "SliceLocation": -61.747819534167,
      "SliceThickness": 2.0,
      "SmallestImagePixelValue": 0,
      "SoftwareVersions": "syngo MR E11",
      "SpacingBetweenSlices": 1.9999999779349,
      "SpecificCharacterSet": "ISO_IR 100",
      "StudyID": "1",
      "StudyTime": "125928.122000",
      "TransmitCoilName": "Body",
      "VariableFlipAngleFlag": "N",
      "WindowCenterWidthExplanation": "Algo1",
      "dBdt": 0.0},
    "slices": {}
  },
  "time": {
    "samples": {
      "AcquisitionNumber": [1, 2, 3, 4, 5, 6, 7, 8, 9, 10, 11, 12, 13, 14, 15, 16, 17, 18, 19, 20, 21, 22, 23, 24, 25, 26, 27, 28, 29, 30, 31, 32, 33, 34, 35, 36, 37, 38, 39, 40, 41, 42, 43, 44, 45, 46, 47, 48, 49, 50, 51, 52, 53, 54, 55, 56, 57, 58, 59, 60, 61, 62, 63, 64, 65, 66, 67, 68, 69, 70, 71, 72, 73, 74, 75, 76, 77, 78, 79, 80, 81, 82, 83, 84, 85, 86, 87, 88, 89, 90, 91, 92, 93, 94, 95, 96, 97, 98, 99, 100, 101, 102, 103, 104, 105, 106, 107, 108, 109, 110, 111, 112, 113, 114, 115, 116, 117, 118, 119, 120, 121, 122, 123, 124, 125, 126, 127, 128, 129, 130, 131, 132, 133, 134, 135, 136, 137, 138, 139, 140, 141, 142, 143, 144, 145, 146, 147, 148, 149, 150, 151, 152, 153, 154, 155, 156, 157, 158, 159, 160, 161, 162, 163, 164, 165, 166, 167, 168, 169, 170, 171, 172, 173, 174, 175, 176, 177, 178, 179, 180, 181, 182, 183, 184, 185, 186, 187, 188, 189, 190, 191, 192, 193, 194, 195, 196, 197, 198, 199, 200, 201, 202, 203, 204, 205, 206, 207, 208, 209, 210, 211, 212, 213, 214, 215, 216, 217, 218, 219, 220, 221, 222, 223, 224, 225, 226, 227, 228, 229, 230, 231, 232, 233, 234, 235, 236, 237, 238, 239, 240, 241, 242, 243, 244, 245, 246, 247, 248, 249, 250, 251, 252, 253, 254, 255, 256, 257, 258, 259, 260, 261, 262, 263, 264, 265, 266, 267, 268, 269, 270, 271, 272, 273, 274, 275, 276, 277, 278, 279, 280, 281, 282, 283, 284, 285, 286, 287, 288, 289, 290, 291, 292, 293, 294, 295, 296, 297, 298, 299, 300, 301, 302, 303, 304, 305, 306, 307, 308, 309, 310, 311, 312, 313, 314, 315, 316, 317, 318, 319, 320, 321, 322, 323, 324, 325, 326, 327, 328, 329, 330, 331, 332, 333, 334, 335, 336, 337, 338, 339, 340, 341, 342, 343, 344, 345, 346, 347, 348, 349, 350, 351, 352, 353, 354, 355, 356, 357, 358, 359, 360, 361, 362, 363, 364, 365, 366, 367, 368, 369, 370, 371, 372, 373, 374, 375, 376, 377, 378, 379, 380, 381, 382, 383, 384, 385, 386, 387, 388, 389, 390, 391, 392, 393, 394, 395, 396, 397, 398, 399, 400, 401, 402, 403, 404, 405, 406, 407, 408, 409, 410, 411, 412, 413, 414, 415, 416, 417, 418, 419, 420, 421, 422, 423, 424, 425, 426, 427, 428, 429, 430, 431, 432, 433, 434, 435, 436, 437, 438, 439, 440, 441, 442, 443, 444, 445, 446, 447, 448, 449, 450, 451, 452, 453, 454, 455, 456, 457, 458, 459, 460, 461, 462, 463, 464, 465, 466, 467, 468, 469, 470, 471, 472, 473, 474, 475, 476, 477],
      "AcquisitionTime": ["135605.610000", "135607.100000", "135608.590000", "135610.080000", "135611.570000", "135613.060000", "135614.550000", "135616.040000", "135617.530000", "135619.020000", "135620.510000", "135622.000000", "135623.490000", "135624.980000", "135626.470000", "135627.960000", "135629.450000", "135630.940000", "135632.430000", "135633.920000", "135635.410000", "135636.900000", "135638.390000", "135639.880000", "135641.370000", "135642.860000", "135644.350000", "135645.840000", "135647.330000", "135648.820000", "135650.310000", "135651.800000", "135653.290000", "135654.780000", "135656.270000", "135657.760000", "135659.250000", "135700.740000", "135702.230000", "135703.720000", "135705.210000", "135706.700000", "135708.190000", "135709.680000", "135711.170000", "135712.660000", "135714.150000", "135715.640000", "135717.130000", "135718.620000", "135720.110000", "135721.600000", "135723.090000", "135724.580000", "135726.070000", "135727.560000", "135729.050000", "135730.540000", "135732.030000", "135733.520000", "135735.010000", "135736.500000", "135737.990000", "135739.480000", "135740.970000", "135742.460000", "135743.950000", "135745.440000", "135746.930000", "135748.420000", "135749.910000", "135751.400000", "135752.890000", "135754.380000", "135755.870000", "135757.360000", "135758.850000", "135800.340000", "135801.830000", "135803.320000", "135804.810000", "135806.300000", "135807.790000", "135809.280000", "135810.770000", "135812.260000", "135813.750000", "135815.240000", "135816.730000", "135818.220000", "135819.710000", "135821.200000", "135822.690000", "135824.180000", "135825.670000", "135827.160000", "135828.650000", "135830.140000", "135831.630000", "135833.120000", "135834.610000", "135836.100000", "135837.590000", "135839.080000", "135840.570000", "135842.060000", "135843.550000", "135845.040000", "135846.530000", "135848.020000", "135849.510000", "135851.000000", "135852.490000", "135853.980000", "135855.470000", "135856.960000", "135858.450000", "135859.940000", "135901.430000", "135902.920000", "135904.410000", "135905.900000", "135907.390000", "135908.880000", "135910.370000", "135911.860000", "135913.350000", "135914.840000", "135916.330000", "135917.820000", "135919.310000", "135920.800000", "135922.290000", "135923.780000", "135925.270000", "135926.760000", "135928.250000", "135929.740000", "135931.230000", "135932.720000", "135934.210000", "135935.700000", "135937.190000", "135938.680000", "135940.170000", "135941.660000", "135943.150000", "135944.640000", "135946.130000", "135947.620000", "135949.110000", "135950.600000", "135952.090000", "135953.580000", "135955.070000", "135956.560000", "135958.050000", "135959.540000", "140001.030000", "140002.520000", "140004.010000", "140005.500000", "140006.990000", "140008.480000", "140009.970000", "140011.460000", "140012.950000", "140014.440000", "140015.930000", "140017.420000", "140018.910000", "140020.400000", "140021.890000", "140023.380000", "140024.870000", "140026.360000", "140027.850000", "140029.340000", "140030.830000", "140032.320000", "140033.810000", "140035.300000", "140036.790000", "140038.280000", "140039.770000", "140041.260000", "140042.750000", "140044.240000", "140045.730000", "140047.220000", "140048.710000", "140050.200000", "140051.690000", "140053.180000", "140054.670000", "140056.160000", "140057.650000", "140059.140000", "140100.630000", "140102.120000", "140103.610000", "140105.100000", "140106.590000", "140108.080000", "140109.570000", "140111.060000", "140112.550000", "140114.040000", "140115.530000", "140117.020000", "140118.510000", "140120.000000", "140121.490000", "140122.980000", "140124.470000", "140125.960000", "140127.450000", "140128.940000", "140130.430000", "140131.920000", "140133.410000", "140134.900000", "140136.390000", "140137.880000", "140139.370000", "140140.860000", "140142.350000", "140143.840000", "140145.330000", "140146.820000", "140148.310000", "140149.800000", "140151.290000", "140152.780000", "140154.270000", "140155.760000", "140157.250000", "140158.740000", "140200.230000", "140201.720000", "140203.210000", "140204.700000", "140206.190000", "140207.680000", "140209.170000", "140210.660000", "140212.150000", "140213.640000", "140215.130000", "140216.620000", "140218.110000", "140219.600000", "140221.090000", "140222.580000", "140224.070000", "140225.560000", "140227.050000", "140228.540000", "140230.030000", "140231.520000", "140233.010000", "140234.500000", "140235.990000", "140237.480000", "140238.970000", "140240.460000", "140241.950000", "140243.440000", "140244.930000", "140246.420000", "140247.910000", "140249.400000", "140250.890000", "140252.380000", "140253.870000", "140255.360000", "140256.850000", "140258.340000", "140259.830000", "140301.320000", "140302.810000", "140304.300000", "140305.790000", "140307.280000", "140308.770000", "140310.260000", "140311.750000", "140313.240000", "140314.730000", "140316.220000", "140317.710000", "140319.200000", "140320.690000", "140322.180000", "140323.670000", "140325.160000", "140326.650000", "140328.140000", "140329.630000", "140331.120000", "140332.610000", "140334.100000", "140335.590000", "140337.080000", "140338.570000", "140340.060000", "140341.550000", "140343.040000", "140344.530000", "140346.020000", "140347.510000", "140349.000000", "140350.490000", "140351.980000", "140353.470000", "140354.960000", "140356.450000", "140357.940000", "140359.430000", "140400.920000", "140402.410000", "140403.900000", "140405.390000", "140406.880000", "140408.370000", "140409.860000", "140411.350000", "140412.840000", "140414.330000", "140415.820000", "140417.310000", "140418.800000", "140420.290000", "140421.780000", "140423.270000", "140424.760000", "140426.250000", "140427.740000", "140429.230000", "140430.720000", "140432.210000", "140433.700000", "140435.190000", "140436.680000", "140438.170000", "140439.660000", "140441.150000", "140442.640000", "140444.130000", "140445.620000", "140447.110000", "140448.600000", "140450.090000", "140451.580000", "140453.070000", "140454.560000", "140456.050000", "140457.540000", "140459.030000", "140500.520000", "140502.010000", "140503.500000", "140504.990000", "140506.480000", "140507.970000", "140509.460000", "140510.950000", "140512.440000", "140513.930000", "140515.420000", "140516.910000", "140518.400000", "140519.890000", "140521.380000", "140522.870000", "140524.360000", "140525.850000", "140527.340000", "140528.830000", "140530.320000", "140531.810000", "140533.300000", "140534.790000", "140536.280000", "140537.770000", "140539.260000", "140540.750000", "140542.240000", "140543.730000", "140545.220000", "140546.710000", "140548.200000", "140549.690000", "140551.180000", "140552.670000", "140554.160000", "140555.650000", "140557.140000", "140558.630000", "140600.120000", "140601.610000", "140603.100000", "140604.590000", "140606.080000", "140607.570000", "140609.060000", "140610.550000", "140612.040000", "140613.530000", "140615.020000", "140616.510000", "140618.000000", "140619.490000", "140620.980000", "140622.470000", "140623.960000", "140625.450000", "140626.940000", "140628.430000", "140629.920000", "140631.410000", "140632.900000", "140634.390000", "140635.880000", "140637.370000", "140638.860000", "140640.350000", "140641.840000", "140643.330000", "140644.820000", "140646.310000", "140647.800000", "140649.290000", "140650.780000", "140652.270000", "140653.760000", "140655.250000", "140656.740000", "140658.230000", "140659.720000", "140701.210000", "140702.700000", "140704.190000", "140705.680000", "140707.170000", "140708.660000", "140710.150000", "140711.640000", "140713.130000", "140714.620000", "140716.110000", "140717.600000", "140719.090000", "140720.580000", "140722.070000", "140723.560000", "140725.050000", "140726.540000", "140728.030000", "140729.520000", "140731.010000", "140732.500000", "140733.990000", "140735.480000", "140736.970000", "140738.460000", "140739.950000", "140741.440000", "140742.930000", "140744.420000", "140745.910000", "140747.400000", "140748.890000", "140750.380000", "140751.870000", "140753.360000", "140754.850000"],
      "ContentTime": ["135733.538000", "135733.542000", "135733.545000", "135733.547000", "135733.550000", "135733.553000", "135733.556000", "135733.559000", "135733.562000", "135733.577000", "135733.579000", "135733.582000", "135733.585000", "135733.588000", "135733.591000", "135733.594000", "135733.596000", "135733.599000", "135733.602000", "135733.605000", "135733.607000", "135733.610000", "135733.613000", "135733.616000", "135733.619000", "135733.622000", "135733.624000", "135733.627000", "135733.630000", "135733.633000", "135733.636000", "135733.638000", "135733.646000", "135733.649000", "135733.652000", "135753.504000", "135753.507000", "135753.510000", "135753.513000", "135753.516000", "135753.519000", "135753.521000", "135753.524000", "135753.527000", "135753.530000", "135753.533000", "135753.543000", "135753.546000", "135753.549000", "135753.552000", "135753.555000", "135753.557000", "135753.560000", "135753.563000", "135753.566000", "135813.504000", "135813.507000", "135813.509000", "135813.512000", "135813.515000", "135813.518000", "135813.521000", "135813.523000", "135813.526000", "135813.529000", "135813.532000", "135813.535000", "135813.537000", "135813.540000", "135813.543000", "135813.546000", "135813.549000", "135813.551000", "135813.554000", "135813.557000", "135833.504000", "135833.507000", "135833.509000", "135833.512000", "135833.515000", "135833.521000", "135833.524000", "135833.527000", "135833.530000", "135833.533000", "135833.535000", "135833.538000", "135833.541000", "135833.544000", "135833.546000", "135833.549000", "135833.552000", "135833.555000", "135833.558000", "135833.561000", "135833.563000", "135913.504000", "135913.507000", "135913.510000", "135913.513000", "135913.515000", "135913.518000", "135913.521000", "135913.524000", "135913.526000", "135913.529000", "135913.532000", "135913.535000", "135913.538000", "135913.540000", "135913.543000", "135913.546000", "135913.549000", "135913.552000", "135913.554000", "135913.557000", "135913.560000", "135913.563000", "135913.566000", "135913.582000", "135913.585000", "135913.588000", "135913.590000", "135913.593000", "135913.596000", "135953.503000", "135953.506000", "135953.509000", "135953.527000", "135953.529000", "135953.532000", "135953.535000", "135953.538000", "135953.541000", "135953.544000", "135953.546000", "135953.549000", "135953.552000", "135953.555000", "135953.558000", "135953.561000", "135953.563000", "135953.566000", "135953.569000", "135953.572000", "135953.575000", "135953.578000", "135953.581000", "135953.583000", "135953.586000", "135953.589000", "135953.592000", "140033.504000", "140033.507000", "140033.510000", "140033.512000", "140033.515000", "140033.518000", "140033.521000", "140033.524000", "140033.526000", "140033.529000", "140033.532000", "140033.535000", "140033.538000", "140033.541000", "140033.543000", "140033.546000", "140033.549000", "140033.552000", "140033.555000", "140033.557000", "140033.560000", "140033.563000", "140033.566000", "140033.569000", "140033.572000", "140033.574000", "140033.577000", "140113.504000", "140113.507000", "140113.510000", "140113.512000", "140113.515000", "140113.518000", "140113.528000", "140113.531000", "140113.533000", "140113.536000", "140113.539000", "140113.542000", "140113.545000", "140113.547000", "140113.550000", "140113.553000", "140113.556000", "140113.559000", "140113.562000", "140113.565000", "140113.567000", "140113.570000", "140113.573000", "140113.576000", "140113.579000", "140113.582000", "140113.584000", "140153.503000", "140153.506000", "140153.509000", "140153.512000", "140153.514000", "140153.518000", "140153.521000", "140153.524000", "140153.526000", "140153.529000", "140153.532000", "140153.535000", "140153.538000", "140153.541000", "140153.543000", "140153.546000", "140153.549000", "140153.552000", "140153.555000", "140153.557000", "140153.560000", "140153.563000", "140153.566000", "140153.569000", "140153.572000", "140153.575000", "140233.504000", "140233.507000", "140233.510000", "140233.512000", "140233.515000", "140233.518000", "140233.521000", "140233.524000", "140233.526000", "140233.529000", "140233.532000", "140233.535000", "140233.538000", "140233.541000", "140233.543000", "140233.546000", "140233.549000", "140233.552000", "140233.555000", "140233.558000", "140233.560000", "140233.563000", "140233.566000", "140233.569000", "140233.572000", "140233.575000", "140233.577000", "140313.504000", "140313.507000", "140313.510000", "140313.512000", "140313.515000", "140313.518000", "140313.521000", "140313.524000", "140313.527000", "140313.530000", "140313.532000", "140313.535000", "140313.538000", "140313.541000", "140313.544000", "140313.547000", "140313.550000", "140313.553000", "140313.555000", "140313.558000", "140313.561000", "140313.564000", "140313.567000", "140313.570000", "140313.573000", "140313.575000", "140313.578000", "140353.504000", "140353.507000", "140353.510000", "140353.512000", "140353.522000", "140353.525000", "140353.527000", "140353.530000", "140353.539000", "140353.542000", "140353.545000", "140353.547000", "140353.551000", "140353.553000", "140353.556000", "140353.559000", "140353.562000", "140353.565000", "140353.567000", "140353.570000", "140353.573000", "140353.576000", "140353.579000", "140353.582000", "140353.584000", "140353.587000", "140353.590000", "140433.503000", "140433.506000", "140433.509000", "140433.512000", "140433.514000", "140433.517000", "140433.520000", "140433.523000", "140433.535000", "140433.538000", "140433.541000", "140433.544000", "140433.547000", "140433.549000", "140433.552000", "140433.555000", "140433.558000", "140433.561000", "140433.563000", "140433.572000", "140433.575000", "140433.578000", "140433.581000", "140433.584000", "140433.587000", "140433.589000", "140433.592000", "140513.504000", "140513.507000", "140513.510000", "140513.513000", "140513.516000", "140513.518000", "140513.521000", "140513.524000", "140513.527000", "140513.530000", "140513.533000", "140513.536000", "140513.539000", "140513.542000", "140513.544000", "140513.547000", "140513.550000", "140513.553000", "140513.556000", "140513.559000", "140513.562000", "140513.565000", "140513.567000", "140513.570000", "140513.573000", "140513.576000", "140513.579000", "140553.504000", "140553.507000", "140553.510000", "140553.512000", "140553.515000", "140553.518000", "140553.522000", "140553.526000", "140553.529000", "140553.533000", "140553.547000", "140553.550000", "140553.553000", "140553.555000", "140553.576000", "140553.578000", "140553.581000", "140553.584000", "140553.587000", "140553.590000", "140553.593000", "140553.596000", "140553.598000", "140553.601000", "140553.604000", "140553.607000", "140633.503000", "140633.506000", "140633.509000", "140633.512000", "140633.515000", "140633.517000", "140633.520000", "140633.523000", "140633.526000", "140633.529000", "140633.532000", "140633.534000", "140633.537000", "140633.540000", "140633.543000", "140633.546000", "140633.548000", "140633.551000", "140633.554000", "140633.557000", "140633.560000", "140633.562000", "140633.565000", "140633.568000", "140633.571000", "140633.574000", "140633.576000", "140713.504000", "140713.507000", "140713.510000", "140713.513000", "140713.515000", "140713.518000", "140713.521000", "140713.524000", "140713.527000", "140713.530000", "140713.532000", "140713.535000", "140713.538000", "140713.541000", "140713.544000", "140713.547000", "140713.549000", "140713.552000", "140713.555000", "140713.558000", "140713.561000", "140713.564000", "140713.566000", "140713.569000", "140713.572000", "140713.575000", "140713.578000", "140753.504000", "140753.507000", "140753.510000", "140753.512000", "140753.515000", "140753.518000", "140753.521000", "140753.524000", "140753.526000", "140753.529000", "140753.532000", "140753.535000", "140753.538000", "140753.541000", "140753.544000", "140753.546000", "140753.549000", "140753.552000", "140753.555000", "140753.558000", "140753.560000", "140753.563000", "140753.566000", "140753.569000", "140753.572000", "140753.575000", "140753.577000", "140757.266000", "140757.269000", "140757.272000"],
