{
  "AcquisitionMatrixPE": 104,
  "AcquisitionNumber": 1,
  "AcquisitionTime": "14:09:2.692500",
  "BandwidthPerPixelPhaseEncode": 17.17,
  "BaseResolution": 104,
  "BodyPartExamined": "BRAIN",
  "CoilString": "HC1-7;NC1_2",
  "ConsistencyInfo": "N4_VE11C_LATEST_20160120",
  "ConversionSoftware": "dcm2niix",
  "ConversionSoftwareVersion": "v1.0.20190720  (JP2:OpenJPEG) GCC7.3.0",
  "DerivedVendorReportedEchoSpacing": 0.000560011,
  "DeviceSerialNumber": "167006",
  "DwellTime": 2.1e-06,
  "EchoTime": 0.037,
  "EchoTrainLength": 104,
  "EffectiveEchoSpacing": 0.000560011,
  "FlipAngle": 52,
  "ImageComments": "Unaliased_MB4_PE3_LB",
  "ImageOrientationPatientDICOM": [0.9996, -0.0181575, 0.0216698, 0.0266992, 0.858346, -0.512377],
  "ImageType": [
    "ORIGINAL",
    "PRIMARY",
    "M",
    "MB",
    "ND",
    "MOSAIC"
],
  "ImagingFrequency": 123.259,
  "InPlanePhaseEncodingDirectionDICOM": "COL",
  "InstitutionAddress": "Chemin_Queen-Mary_4565_Montreal_District_CA_H3W_1W5",
  "InstitutionName": "IUGM",
  "InstitutionalDepartmentName": "Department",
  "MRAcquisitionType": "2D",
  "MagneticFieldStrength": 3,
  "Manufacturer": "Siemens",
  "ManufacturersModelName": "Prisma_fit",
  "Modality": "MR",
  "MultibandAccelerationFactor": 4,
  "PartialFourier": 1,
  "PatientPosition": "HFS",
  "PercentPhaseFOV": 100,
  "PhaseEncodingDirection": "j",
  "PhaseEncodingSteps": 104,
  "PhaseResolution": 1,
  "PixelBandwidth": 2290,
  "ProcedureStepDescription": "video_friends",
  "ProtocolName": "func_task-friends-s01e16a",
  "PulseSequenceDetails": "%CustomerSeq%_cmrr_mbep2d_bold",
  "ReceiveCoilActiveElements": "HC1-7;NC1,2",
  "ReceiveCoilName": "HeadNeck_64",
  "ReconMatrixPE": 104,
  "RepetitionTime": 1.49,
  "SAR": 0.0346915,
  "ScanOptions": "FS",
  "ScanningSequence": "EP",
  "SequenceName": "epfid2d1_104",
  "SequenceVariant": "SK_SS",
  "SeriesDescription": "func_task-friends-s01e16a",
  "SeriesNumber": 17,
  "ShimSetting": [630, -7195, -8884, 430, -27, -256, 3, -7],
  "SliceThickness": 2,
  "SliceTiming": [0, 0.785, 0.0975, 0.8825, 0.195, 0.98, 0.295, 1.0775, 0.3925, 1.175, 0.49, 1.2725, 0.5875, 1.3725, 0.685, 0, 0.785, 0.0975, 0.8825, 0.195, 0.98, 0.295, 1.0775, 0.3925, 1.175, 0.49, 1.2725, 0.5875, 1.3725, 0.685, 0, 0.785, 0.0975, 0.8825, 0.195, 0.98, 0.295, 1.0775, 0.3925, 1.175, 0.49, 1.2725, 0.5875, 1.3725, 0.685, 0, 0.785, 0.0975, 0.8825, 0.195, 0.98, 0.295, 1.0775, 0.3925, 1.175, 0.49, 1.2725, 0.5875, 1.3725, 0.685],
  "SoftwareVersions": "syngo_MR_E11",
  "SpacingBetweenSlices": 2,
  "StationName": "MRC35049",
  "TaskName": "friends",
  "TotalReadoutTime": 0.0576811,
  "TxRefAmp": 248.75,
  "WipMemBlock": "6d8fa643-6430-425b-999d-f0b83726b239||Sequence: R016 ve11c/master r/e634e98; Dec 19 2017 11:00:25 by eja",
  "dcmmeta_affine": [
    [-1.9992005825042725, 0.05339834839105606, 0.018593329936265945, 99.67715454101562],
    [0.03631501644849777, 1.7166913747787476, -1.0255008935928345, -60.248844146728516],
    [0.04333953186869621, 1.024753451347351, 1.7169747352600098, -108.99066925048828],
    [0.0, 0.0, 0.0, 1.0]
],
  "dcmmeta_reorient_transform": [
    [0.0, -1.0, 0.0, 103.0],
    [1.0, 0.0, 0.0, 0.0],
    [0.0, 0.0, 1.0, 0.0],
    [0.0, 0.0, 0.0, 1.0]
],
  "dcmmeta_shape": [104, 104, 60, 483],
  "dcmmeta_slice_dim": 2,
  "dcmmeta_version": 0.6,
  "global": {
    "const": {
      "AcquisitionMatrix": [104, 0, 0, 104],
      "AngioFlag": "N",
      "BitsAllocated": 16,
      "BitsStored": 16,
      "BodyPartExamined": "BRAIN",
      "Columns": 832,
      "EchoNumbers": 1,
      "EchoTime": 37.0,
      "EchoTrainLength": 104,
      "FlipAngle": 52.0,
      "HighBit": 15,
      "ImageOrientationPatient": [0.99960028317331, -0.0181575084549, 0.02166976618598, 0.02669917400532, 0.85834565763931, -0.5123767033338],
      "ImagePositionPatient": [-852.32318810078, -728.22733220516, 353.79358522015],
      "ImageType": [
        "ORIGINAL",
        "PRIMARY",
        "M",
        "MB",
        "ND",
        "MOSAIC"
],
      "ImagedNucleus": "1H",
      "ImagingFrequency": 123.259167,
      "InPlanePhaseEncodingDirection": "COL",
      "MRAcquisitionType": "2D",
      "MagneticFieldStrength": 3.0,
      "Manufacturer": "SIEMENS",
      "ManufacturerModelName": "Prisma_fit",
      "Modality": "MR",
      "NumberOfAverages": 1.0,
      "NumberOfPhaseEncodingSteps": 104,
      "PercentPhaseFieldOfView": 100.0,
      "PercentSampling": 100.0,
      "PerformedProcedureStepStartTime": "125928.311000",
      "PhotometricInterpretation": "MONOCHROME2",
      "PixelBandwidth": 2290.0,
      "PixelRepresentation": 0,
      "PixelSpacing": [2.0, 2.0],
      "ProtocolName": "func_task-friends-s01e16a",
      "RepetitionTime": 1490.0,
      "Rows": 832,
      "SAR": 0.03469149826658,
      "SamplesPerPixel": 1,
      "ScanOptions": "FS",
      "ScanningSequence": "EP",
      "SequenceName": "epfid2d1_104",
      "SequenceVariant": [
        "SK",
        "SS"
],
      "SeriesDescription": "func_task-friends-s01e16a",
      "SeriesNumber": 17,
      "SeriesTime": "141032.473000",
      "SliceLocation": -61.747819534167,
      "SliceThickness": 2.0,
      "SmallestImagePixelValue": 0,
      "SoftwareVersions": "syngo MR E11",
      "SpacingBetweenSlices": 1.9999999779349,
      "SpecificCharacterSet": "ISO_IR 100",
      "StudyID": "1",
      "StudyTime": "125928.122000",
      "TransmitCoilName": "Body",
      "VariableFlipAngleFlag": "N",
      "WindowCenterWidthExplanation": "Algo1",
      "dBdt": 0.0},
    "slices": {}
  },
  "time": {
    "samples": {
      "AcquisitionNumber": [1, 2, 3, 4, 5, 6, 7, 8, 9, 10, 11, 12, 13, 14, 15, 16, 17, 18, 19, 20, 21, 22, 23, 24, 25, 26, 27, 28, 29, 30, 31, 32, 33, 34, 35, 36, 37, 38, 39, 40, 41, 42, 43, 44, 45, 46, 47, 48, 49, 50, 51, 52, 53, 54, 55, 56, 57, 58, 59, 60, 61, 62, 63, 64, 65, 66, 67, 68, 69, 70, 71, 72, 73, 74, 75, 76, 77, 78, 79, 80, 81, 82, 83, 84, 85, 86, 87, 88, 89, 90, 91, 92, 93, 94, 95, 96, 97, 98, 99, 100, 101, 102, 103, 104, 105, 106, 107, 108, 109, 110, 111, 112, 113, 114, 115, 116, 117, 118, 119, 120, 121, 122, 123, 124, 125, 126, 127, 128, 129, 130, 131, 132, 133, 134, 135, 136, 137, 138, 139, 140, 141, 142, 143, 144, 145, 146, 147, 148, 149, 150, 151, 152, 153, 154, 155, 156, 157, 158, 159, 160, 161, 162, 163, 164, 165, 166, 167, 168, 169, 170, 171, 172, 173, 174, 175, 176, 177, 178, 179, 180, 181, 182, 183, 184, 185, 186, 187, 188, 189, 190, 191, 192, 193, 194, 195, 196, 197, 198, 199, 200, 201, 202, 203, 204, 205, 206, 207, 208, 209, 210, 211, 212, 213, 214, 215, 216, 217, 218, 219, 220, 221, 222, 223, 224, 225, 226, 227, 228, 229, 230, 231, 232, 233, 234, 235, 236, 237, 238, 239, 240, 241, 242, 243, 244, 245, 246, 247, 248, 249, 250, 251, 252, 253, 254, 255, 256, 257, 258, 259, 260, 261, 262, 263, 264, 265, 266, 267, 268, 269, 270, 271, 272, 273, 274, 275, 276, 277, 278, 279, 280, 281, 282, 283, 284, 285, 286, 287, 288, 289, 290, 291, 292, 293, 294, 295, 296, 297, 298, 299, 300, 301, 302, 303, 304, 305, 306, 307, 308, 309, 310, 311, 312, 313, 314, 315, 316, 317, 318, 319, 320, 321, 322, 323, 324, 325, 326, 327, 328, 329, 330, 331, 332, 333, 334, 335, 336, 337, 338, 339, 340, 341, 342, 343, 344, 345, 346, 347, 348, 349, 350, 351, 352, 353, 354, 355, 356, 357, 358, 359, 360, 361, 362, 363, 364, 365, 366, 367, 368, 369, 370, 371, 372, 373, 374, 375, 376, 377, 378, 379, 380, 381, 382, 383, 384, 385, 386, 387, 388, 389, 390, 391, 392, 393, 394, 395, 396, 397, 398, 399, 400, 401, 402, 403, 404, 405, 406, 407, 408, 409, 410, 411, 412, 413, 414, 415, 416, 417, 418, 419, 420, 421, 422, 423, 424, 425, 426, 427, 428, 429, 430, 431, 432, 433, 434, 435, 436, 437, 438, 439, 440, 441, 442, 443, 444, 445, 446, 447, 448, 449, 450, 451, 452, 453, 454, 455, 456, 457, 458, 459, 460, 461, 462, 463, 464, 465, 466, 467, 468, 469, 470, 471, 472, 473, 474, 475, 476, 477, 478, 479, 480, 481, 482, 483],
      "AcquisitionTime": ["140902.692500", "140904.182500", "140905.672500", "140907.162500", "140908.652500", "140910.142500", "140911.632500", "140913.122500", "140914.612500", "140916.102500", "140917.592500", "140919.082500", "140920.572500", "140922.062500", "140923.552500", "140925.042500", "140926.532500", "140928.022500", "140929.512500", "140931.002500", "140932.492500", "140933.982500", "140935.472500", "140936.962500", "140938.452500", "140939.942500", "140941.432500", "140942.922500", "140944.412500", "140945.902500", "140947.392500", "140948.882500", "140950.372500", "140951.862500", "140953.352500", "140954.842500", "140956.332500", "140957.822500", "140959.312500", "141000.802500", "141002.292500", "141003.782500", "141005.272500", "141006.762500", "141008.252500", "141009.742500", "141011.232500", "141012.722500", "141014.212500", "141015.702500", "141017.192500", "141018.682500", "141020.172500", "141021.662500", "141023.152500", "141024.642500", "141026.132500", "141027.622500", "141029.112500", "141030.602500", "141032.092500", "141033.582500", "141035.072500", "141036.562500", "141038.052500", "141039.542500", "141041.032500", "141042.522500", "141044.012500", "141045.502500", "141046.992500", "141048.482500", "141049.972500", "141051.462500", "141052.952500", "141054.442500", "141055.932500", "141057.422500", "141058.912500", "141100.402500", "141101.892500", "141103.382500", "141104.872500", "141106.362500", "141107.852500", "141109.342500", "141110.832500", "141112.322500", "141113.812500", "141115.302500", "141116.792500", "141118.282500", "141119.772500", "141121.262500", "141122.752500", "141124.242500", "141125.732500", "141127.222500", "141128.712500", "141130.202500", "141131.692500", "141133.182500", "141134.672500", "141136.162500", "141137.652500", "141139.142500", "141140.632500", "141142.122500", "141143.612500", "141145.102500", "141146.592500", "141148.082500", "141149.572500", "141151.062500", "141152.552500", "141154.042500", "141155.532500", "141157.022500", "141158.512500", "141200.002500", "141201.492500", "141202.982500", "141204.472500", "141205.962500", "141207.452500", "141208.942500", "141210.432500", "141211.922500", "141213.412500", "141214.902500", "141216.392500", "141217.882500", "141219.372500", "141220.862500", "141222.352500", "141223.842500", "141225.332500", "141226.822500", "141228.312500", "141229.802500", "141231.292500", "141232.782500", "141234.272500", "141235.762500", "141237.252500", "141238.742500", "141240.232500", "141241.722500", "141243.212500", "141244.702500", "141246.192500", "141247.682500", "141249.172500", "141250.662500", "141252.152500", "141253.642500", "141255.132500", "141256.622500", "141258.112500", "141259.602500", "141301.092500", "141302.582500", "141304.072500", "141305.562500", "141307.052500", "141308.542500", "141310.032500", "141311.522500", "141313.012500", "141314.502500", "141315.992500", "141317.482500", "141318.972500", "141320.462500", "141321.952500", "141323.442500", "141324.932500", "141326.422500", "141327.912500", "141329.402500", "141330.892500", "141332.382500", "141333.872500", "141335.362500", "141336.852500", "141338.342500", "141339.832500", "141341.322500", "141342.812500", "141344.302500", "141345.792500", "141347.282500", "141348.772500", "141350.262500", "141351.752500", "141353.242500", "141354.732500", "141356.222500", "141357.712500", "141359.202500", "141400.692500", "141402.182500", "141403.672500", "141405.162500", "141406.652500", "141408.142500", "141409.632500", "141411.122500", "141412.612500", "141414.102500", "141415.592500", "141417.082500", "141418.572500", "141420.062500", "141421.552500", "141423.042500", "141424.532500", "141426.022500", "141427.512500", "141429.002500", "141430.492500", "141431.982500", "141433.472500", "141434.962500", "141436.452500", "141437.942500", "141439.432500", "141440.922500", "141442.412500", "141443.902500", "141445.392500", "141446.882500", "141448.372500", "141449.862500", "141451.352500", "141452.842500", "141454.332500", "141455.822500", "141457.312500", "141458.802500", "141500.292500", "141501.782500", "141503.272500", "141504.762500", "141506.252500", "141507.742500", "141509.232500", "141510.722500", "141512.212500", "141513.702500", "141515.192500", "141516.682500", "141518.172500", "141519.662500", "141521.152500", "141522.642500", "141524.132500", "141525.622500", "141527.112500", "141528.602500", "141530.092500", "141531.582500", "141533.072500", "141534.562500", "141536.052500", "141537.542500", "141539.032500", "141540.522500", "141542.012500", "141543.502500", "141544.992500", "141546.482500", "141547.972500", "141549.462500", "141550.952500", "141552.442500", "141553.932500", "141555.422500", "141556.912500", "141558.402500", "141559.892500", "141601.382500", "141602.872500", "141604.362500", "141605.852500", "141607.342500", "141608.832500", "141610.322500", "141611.812500", "141613.302500", "141614.792500", "141616.282500", "141617.772500", "141619.262500", "141620.752500", "141622.242500", "141623.732500", "141625.222500", "141626.712500", "141628.202500", "141629.692500", "141631.182500", "141632.672500", "141634.162500", "141635.652500", "141637.142500", "141638.632500", "141640.122500", "141641.612500", "141643.102500", "141644.592500", "141646.082500", "141647.572500", "141649.062500", "141650.552500", "141652.042500", "141653.532500", "141655.022500", "141656.512500", "141658.002500", "141659.492500", "141700.982500", "141702.472500", "141703.962500", "141705.452500", "141706.942500", "141708.432500", "141709.922500", "141711.412500", "141712.902500", "141714.392500", "141715.882500", "141717.372500", "141718.862500", "141720.352500", "141721.842500", "141723.332500", "141724.822500", "141726.312500", "141727.802500", "141729.292500", "141730.782500", "141732.272500", "141733.762500", "141735.252500", "141736.742500", "141738.232500", "141739.722500", "141741.212500", "141742.702500", "141744.192500", "141745.682500", "141747.172500", "141748.662500", "141750.152500", "141751.642500", "141753.132500", "141754.622500", "141756.112500", "141757.602500", "141759.092500", "141800.582500", "141802.072500", "141803.562500", "141805.052500", "141806.542500", "141808.032500", "141809.522500", "141811.012500", "141812.502500", "141813.992500", "141815.482500", "141816.972500", "141818.462500", "141819.952500", "141821.442500", "141822.932500", "141824.422500", "141825.912500", "141827.402500", "141828.892500", "141830.382500", "141831.872500", "141833.362500", "141834.852500", "141836.342500", "141837.832500", "141839.322500", "141840.812500", "141842.302500", "141843.792500", "141845.282500", "141846.772500", "141848.262500", "141849.752500", "141851.242500", "141852.732500", "141854.222500", "141855.712500", "141857.202500", "141858.692500", "141900.182500", "141901.672500", "141903.162500", "141904.652500", "141906.142500", "141907.632500", "141909.122500", "141910.612500", "141912.102500", "141913.592500", "141915.082500", "141916.572500", "141918.062500", "141919.552500", "141921.042500", "141922.532500", "141924.022500", "141925.512500", "141927.002500", "141928.492500", "141929.982500", "141931.472500", "141932.962500", "141934.452500", "141935.942500", "141937.432500", "141938.922500", "141940.412500", "141941.902500", "141943.392500", "141944.882500", "141946.372500", "141947.862500", "141949.352500", "141950.842500", "141952.332500", "141953.822500", "141955.312500", "141956.802500", "141958.292500", "141959.782500", "142001.272500", "142002.762500", "142004.252500", "142005.742500", "142007.232500", "142008.722500", "142010.212500", "142011.702500", "142013.192500", "142014.682500", "142016.172500", "142017.662500", "142019.152500", "142020.642500", "142022.132500", "142023.622500", "142025.112500", "142026.602500", "142028.092500", "142029.582500", "142031.072500", "142032.562500", "142034.052500", "142035.542500", "142037.032500", "142038.522500", "142040.012500", "142041.502500", "142042.992500", "142044.482500", "142045.972500", "142047.462500", "142048.952500", "142050.442500", "142051.932500", "142053.422500", "142054.912500", "142056.402500", "142057.892500", "142059.382500", "142100.872500"],
      "ContentTime": ["141032.475000", "141032.479000", "141032.481000", "141032.484000", "141032.488000", "141032.491000", "141032.494000", "141032.496000", "141032.499000", "141032.502000", "141032.505000", "141032.508000", "141032.520000", "141032.523000", "141032.526000", "141032.529000", "141032.531000", "141032.534000", "141032.537000", "141032.540000", "141032.543000", "141032.545000", "141032.548000", "141032.551000", "141032.554000", "141032.557000", "141032.560000", "141032.563000", "141032.566000", "141032.569000", "141032.572000", "141032.575000", "141032.577000", "141032.580000", "141032.591000", "141032.594000", "141052.442000", "141052.445000", "141052.448000", "141052.450000", "141052.453000", "141052.456000", "141052.459000", "141052.462000", "141052.465000", "141052.467000", "141052.470000", "141052.476000", "141052.479000", "141052.482000", "141052.484000", "141052.487000", "141052.490000", "141052.493000", "141052.496000", "141052.498000", "141112.442000", "141112.445000", "141112.448000", "141112.450000", "141112.453000", "141112.456000", "141112.459000", "141112.461000", "141112.464000", "141112.467000", "141112.470000", "141112.473000", "141112.475000", "141112.478000", "141112.481000", "141112.484000", "141112.487000", "141112.489000", "141112.492000", "141112.495000", "141132.442000", "141132.445000", "141132.448000", "141132.450000", "141132.453000", "141132.456000", "141132.459000", "141132.462000", "141132.464000", "141132.467000", "141132.470000", "141132.473000", "141132.476000", "141132.478000", "141132.481000", "141132.484000", "141132.487000", "141132.489000", "141132.492000", "141132.495000", "141212.442000", "141212.445000", "141212.448000", "141212.451000", "141212.453000", "141212.456000", "141212.459000", "141212.462000", "141212.464000", "141212.467000", "141212.479000", "141212.481000", "141212.484000", "141212.487000", "141212.490000", "141212.493000", "141212.496000", "141212.499000", "141212.502000", "141212.505000", "141212.507000", "141212.510000", "141212.514000", "141212.517000", "141212.520000", "141212.523000", "141212.526000", "141212.529000", "141212.531000", "141212.534000", "141252.442000", "141252.445000", "141252.448000", "141252.451000", "141252.453000", "141252.456000", "141252.459000", "141252.462000", "141252.465000", "141252.467000", "141252.470000", "141252.473000", "141252.476000", "141252.478000", "141252.481000", "141252.484000", "141252.487000", "141252.490000", "141252.492000", "141252.495000", "141252.498000", "141252.501000", "141252.504000", "141252.506000", "141252.509000", "141252.512000", "141252.515000", "141332.442000", "141332.445000", "141332.448000", "141332.450000", "141332.453000", "141332.456000", "141332.459000", "141332.462000", "141332.464000", "141332.467000", "141332.470000", "141332.473000", "141332.476000", "141332.478000", "141332.481000", "141332.484000", "141332.487000", "141332.490000", "141332.493000", "141332.495000", "141332.498000", "141332.501000", "141332.509000", "141332.512000", "141332.515000", "141332.518000", "141332.520000", "141412.443000", "141412.454000", "141412.457000", "141412.459000", "141412.464000", "141412.467000", "141412.469000", "141412.472000", "141412.475000", "141412.478000", "141412.481000", "141412.484000", "141412.487000", "141412.489000", "141412.492000", "141412.495000", "141412.498000", "141412.501000", "141412.504000", "141412.507000", "141412.509000", "141412.512000", "141412.515000", "141412.518000", "141412.521000", "141412.523000", "141412.526000", "141452.442000", "141452.445000", "141452.448000", "141452.450000", "141452.453000", "141452.456000", "141452.459000", "141452.462000", "141452.465000", "141452.467000", "141452.470000", "141452.473000", "141452.476000", "141452.479000", "141452.481000", "141452.484000", "141452.487000", "141452.490000", "141452.493000", "141452.495000", "141452.511000", "141452.514000", "141452.517000", "141452.520000", "141452.523000", "141452.526000", "141452.528000", "141532.442000", "141532.445000", "141532.448000", "141532.451000", "141532.453000", "141532.456000", "141532.459000", "141532.462000", "141532.465000", "141532.468000", "141532.470000", "141532.473000", "141532.476000", "141532.479000", "141532.482000", "141532.484000", "141532.487000", "141532.490000", "141532.493000", "141532.496000", "141532.498000", "141532.501000", "141532.504000", "141532.507000", "141532.512000", "141532.515000", "141532.517000", "141612.442000", "141612.445000", "141612.448000", "141612.451000", "141612.453000", "141612.456000", "141612.459000", "141612.462000", "141612.465000", "141612.468000", "141612.470000", "141612.473000", "141612.476000", "141612.479000", "141612.482000", "141612.484000", "141612.487000", "141612.490000", "141612.493000", "141612.496000", "141612.498000", "141612.501000", "141612.504000", "141612.507000", "141612.510000", "141612.513000", "141612.515000", "141652.442000", "141652.445000", "141652.448000", "141652.451000", "141652.453000", "141652.456000", "141652.459000", "141652.462000", "141652.465000", "141652.476000", "141652.479000", "141652.482000", "141652.484000", "141652.487000", "141652.490000", "141652.493000", "141652.496000", "141652.500000", "141652.503000", "141652.506000", "141652.509000", "141652.512000", "141652.515000", "141652.517000", "141652.520000", "141652.523000", "141732.442000", "141732.445000", "141732.448000", "141732.451000", "141732.454000", "141732.463000", "141732.466000", "141732.469000", "141732.472000", "141732.475000", "141732.478000", "141732.480000", "141732.483000", "141732.486000", "141732.489000", "141732.492000", "141732.495000", "141732.498000", "141732.500000", "141732.503000", "141732.506000", "141732.509000", "141732.512000", "141732.515000", "141732.517000", "141732.520000", "141732.523000", "141812.442000", "141812.445000", "141812.448000", "141812.451000", "141812.454000", "141812.456000", "141812.459000", "141812.462000", "141812.465000", "141812.468000", "141812.471000", "141812.474000", "141812.477000", "141812.479000", "141812.482000", "141812.485000", "141812.488000", "141812.491000", "141812.494000", "141812.496000", "141812.499000", "141812.502000", "141812.505000", "141812.508000", "141812.511000", "141812.514000", "141812.517000", "141852.443000", "141852.446000", "141852.449000", "141852.452000", "141852.455000", "141852.457000", "141852.460000", "141852.463000", "141852.466000", "141852.469000", "141852.472000", "141852.475000", "141852.478000", "141852.480000", "141852.483000", "141852.486000", "141852.489000", "141852.492000", "141852.495000", "141852.497000", "141852.500000", "141852.503000", "141852.506000", "141852.509000", "141852.512000", "141852.515000", "141852.517000", "141932.442000", "141932.445000", "141932.448000", "141932.451000", "141932.454000", "141932.456000", "141932.459000", "141932.462000", "141932.465000", "141932.468000", "141932.471000", "141932.474000", "141932.477000", "141932.479000", "141932.482000", "141932.485000", "141932.488000", "141932.491000", "141932.494000", "141932.497000", "141932.511000", "141932.514000", "141932.517000", "141932.520000", "141932.522000", "141932.525000", "141932.528000", "142012.442000", "142012.445000", "142012.448000", "142012.451000", "142012.454000", "142012.457000", "142012.459000", "142012.462000", "142012.465000", "142012.468000", "142012.471000", "142012.474000", "142012.477000", "142012.480000", "142012.482000", "142012.490000", "142012.493000", "142012.496000", "142012.499000", "142012.501000", "142012.504000", "142012.507000", "142012.510000", "142012.513000", "142012.516000", "142012.519000", "142012.521000", "142052.442000", "142052.445000", "142052.448000", "142052.451000", "142052.454000", "142052.456000", "142052.460000", "142052.462000", "142052.465000", "142052.468000", "142052.471000", "142052.474000", "142052.477000", "142052.479000", "142052.482000", "142052.485000", "142052.488000", "142052.491000", "142052.494000", "142052.497000", "142052.500000", "142052.502000", "142052.505000", "142052.508000", "142052.511000", "142052.514000", "142103.016000", "142103.019000", "142103.022000", "142103.025000", "142103.028000", "142103.031000", "142103.034000", "142103.037000"],
