{
  "AcquisitionMatrixPE": 104,
  "AcquisitionNumber": 1,
  "AcquisitionTime": "13:18:6.832500",
  "BandwidthPerPixelPhaseEncode": 17.17,
  "BaseResolution": 104,
  "BodyPartExamined": "BRAIN",
  "CoilString": "HC1-7;NC1_2",
  "ConsistencyInfo": "N4_VE11C_LATEST_20160120",
  "ConversionSoftware": "dcm2niix",
  "ConversionSoftwareVersion": "v1.0.20190720  (JP2:OpenJPEG) GCC7.3.0",
  "DerivedVendorReportedEchoSpacing": 0.000560011,
  "DeviceSerialNumber": "167006",
  "DwellTime": 2.1e-06,
  "EchoTime": 0.037,
  "EchoTrainLength": 104,
  "EffectiveEchoSpacing": 0.000560011,
  "FlipAngle": 52,
  "ImageComments": "Unaliased_MB4_PE3_LB",
  "ImageOrientationPatientDICOM": [0.9996, -0.0181575, 0.0216698, 0.0266992, 0.858346, -0.512377],
  "ImageType": [
    "ORIGINAL",
    "PRIMARY",
    "M",
    "MB",
    "ND",
    "MOSAIC"
],
  "ImagingFrequency": 123.259,
  "InPlanePhaseEncodingDirectionDICOM": "COL",
  "InstitutionAddress": "Chemin_Queen-Mary_4565_Montreal_District_CA_H3W_1W5",
  "InstitutionName": "IUGM",
  "InstitutionalDepartmentName": "Department",
  "MRAcquisitionType": "2D",
  "MagneticFieldStrength": 3,
  "Manufacturer": "Siemens",
  "ManufacturersModelName": "Prisma_fit",
  "Modality": "MR",
  "MultibandAccelerationFactor": 4,
  "PartialFourier": 1,
  "PatientPosition": "HFS",
  "PercentPhaseFOV": 100,
  "PhaseEncodingDirection": "j",
  "PhaseEncodingSteps": 104,
  "PhaseResolution": 1,
  "PixelBandwidth": 2290,
  "ProcedureStepDescription": "video_friends",
  "ProtocolName": "func_task-friends-s01e14a",
  "PulseSequenceDetails": "%CustomerSeq%_cmrr_mbep2d_bold",
  "ReceiveCoilActiveElements": "HC1-7;NC1,2",
  "ReceiveCoilName": "HeadNeck_64",
  "ReconMatrixPE": 104,
  "RepetitionTime": 1.49,
  "SAR": 0.0346938,
  "ScanOptions": "FS",
  "ScanningSequence": "EP",
  "SequenceName": "epfid2d1_104",
  "SequenceVariant": "SK_SS",
  "SeriesDescription": "func_task-friends-s01e14a",
  "SeriesNumber": 9,
  "ShimSetting": [630, -7195, -8884, 430, -27, -256, 3, -7],
  "SliceThickness": 2,
  "SliceTiming": [0, 0.785, 0.0975, 0.8825, 0.1975, 0.98, 0.295, 1.0775, 0.3925, 1.1775, 0.49, 1.275, 0.5875, 1.3725, 0.6875, 0, 0.785, 0.0975, 0.8825, 0.1975, 0.98, 0.295, 1.0775, 0.3925, 1.1775, 0.49, 1.275, 0.5875, 1.3725, 0.6875, 0, 0.785, 0.0975, 0.8825, 0.1975, 0.98, 0.295, 1.0775, 0.3925, 1.1775, 0.49, 1.275, 0.5875, 1.3725, 0.6875, 0, 0.785, 0.0975, 0.8825, 0.1975, 0.98, 0.295, 1.0775, 0.3925, 1.1775, 0.49, 1.275, 0.5875, 1.3725, 0.6875],
  "SoftwareVersions": "syngo_MR_E11",
  "SpacingBetweenSlices": 2,
  "StationName": "MRC35049",
  "TaskName": "friends",
  "TotalReadoutTime": 0.0576811,
  "TxRefAmp": 248.75,
  "WipMemBlock": "97100b43-9547-4da5-94aa-a064d02e6a86||Sequence: R016 ve11c/master r/e634e98; Dec 19 2017 11:00:25 by eja",
  "dcmmeta_affine": [
    [-1.9992005825042725, 0.05339834839105606, 0.018593329936265945, 99.67715454101562],
    [0.03631501644849777, 1.7166913747787476, -1.0255008935928345, -60.248844146728516],
    [0.04333953186869621, 1.024753451347351, 1.7169747352600098, -108.99066925048828],
    [0.0, 0.0, 0.0, 1.0]
],
  "dcmmeta_reorient_transform": [
    [0.0, -1.0, 0.0, 103.0],
    [1.0, 0.0, 0.0, 0.0],
    [0.0, 0.0, 1.0, 0.0],
    [0.0, 0.0, 0.0, 1.0]
],
  "dcmmeta_shape": [104, 104, 60, 491],
  "dcmmeta_slice_dim": 2,
  "dcmmeta_version": 0.6,
  "global": {
    "const": {
      "AcquisitionMatrix": [104, 0, 0, 104],
      "AngioFlag": "N",
      "BitsAllocated": 16,
      "BitsStored": 16,
      "BodyPartExamined": "BRAIN",
      "Columns": 832,
      "EchoNumbers": 1,
      "EchoTime": 37.0,
      "EchoTrainLength": 104,
      "FlipAngle": 52.0,
      "HighBit": 15,
      "ImageOrientationPatient": [0.99960028317331, -0.0181575084549, 0.02166976618598, 0.02669917400532, 0.85834565763931, -0.5123767033338],
      "ImagePositionPatient": [-852.32318810078, -728.22733220516, 353.79358522015],
      "ImageType": [
        "ORIGINAL",
        "PRIMARY",
        "M",
        "MB",
        "ND",
        "MOSAIC"
],
      "ImagedNucleus": "1H",
      "ImagingFrequency": 123.25914,
      "InPlanePhaseEncodingDirection": "COL",
      "MRAcquisitionType": "2D",
      "MagneticFieldStrength": 3.0,
      "Manufacturer": "SIEMENS",
      "ManufacturerModelName": "Prisma_fit",
      "Modality": "MR",
      "NumberOfAverages": 1.0,
      "NumberOfPhaseEncodingSteps": 104,
      "PercentPhaseFieldOfView": 100.0,
      "PercentSampling": 100.0,
      "PerformedProcedureStepStartTime": "125928.311000",
      "PhotometricInterpretation": "MONOCHROME2",
      "PixelBandwidth": 2290.0,
      "PixelRepresentation": 0,
      "PixelSpacing": [2.0, 2.0],
      "ProtocolName": "func_task-friends-s01e14a",
      "RepetitionTime": 1490.0,
      "Rows": 832,
      "SAR": 0.0346938110974,
      "SamplesPerPixel": 1,
      "ScanOptions": "FS",
      "ScanningSequence": "EP",
      "SequenceName": "epfid2d1_104",
      "SequenceVariant": [
        "SK",
        "SS"
],
      "SeriesDescription": "func_task-friends-s01e14a",
      "SeriesNumber": 9,
      "SeriesTime": "131933.535000",
      "SliceLocation": -61.747819534167,
      "SliceThickness": 2.0,
      "SmallestImagePixelValue": 0,
      "SoftwareVersions": "syngo MR E11",
      "SpacingBetweenSlices": 1.9999999779349,
      "SpecificCharacterSet": "ISO_IR 100",
      "StudyID": "1",
      "StudyTime": "125928.122000",
      "TransmitCoilName": "Body",
      "VariableFlipAngleFlag": "N",
      "WindowCenterWidthExplanation": "Algo1",
      "dBdt": 0.0},
    "slices": {}
  },
  "time": {
    "samples": {
      "AcquisitionNumber": [1, 2, 3, 4, 5, 6, 7, 8, 9, 10, 11, 12, 13, 14, 15, 16, 17, 18, 19, 20, 21, 22, 23, 24, 25, 26, 27, 28, 29, 30, 31, 32, 33, 34, 35, 36, 37, 38, 39, 40, 41, 42, 43, 44, 45, 46, 47, 48, 49, 50, 51, 52, 53, 54, 55, 56, 57, 58, 59, 60, 61, 62, 63, 64, 65, 66, 67, 68, 69, 70, 71, 72, 73, 74, 75, 76, 77, 78, 79, 80, 81, 82, 83, 84, 85, 86, 87, 88, 89, 90, 91, 92, 93, 94, 95, 96, 97, 98, 99, 100, 101, 102, 103, 104, 105, 106, 107, 108, 109, 110, 111, 112, 113, 114, 115, 116, 117, 118, 119, 120, 121, 122, 123, 124, 125, 126, 127, 128, 129, 130, 131, 132, 133, 134, 135, 136, 137, 138, 139, 140, 141, 142, 143, 144, 145, 146, 147, 148, 149, 150, 151, 152, 153, 154, 155, 156, 157, 158, 159, 160, 161, 162, 163, 164, 165, 166, 167, 168, 169, 170, 171, 172, 173, 174, 175, 176, 177, 178, 179, 180, 181, 182, 183, 184, 185, 186, 187, 188, 189, 190, 191, 192, 193, 194, 195, 196, 197, 198, 199, 200, 201, 202, 203, 204, 205, 206, 207, 208, 209, 210, 211, 212, 213, 214, 215, 216, 217, 218, 219, 220, 221, 222, 223, 224, 225, 226, 227, 228, 229, 230, 231, 232, 233, 234, 235, 236, 237, 238, 239, 240, 241, 242, 243, 244, 245, 246, 247, 248, 249, 250, 251, 252, 253, 254, 255, 256, 257, 258, 259, 260, 261, 262, 263, 264, 265, 266, 267, 268, 269, 270, 271, 272, 273, 274, 275, 276, 277, 278, 279, 280, 281, 282, 283, 284, 285, 286, 287, 288, 289, 290, 291, 292, 293, 294, 295, 296, 297, 298, 299, 300, 301, 302, 303, 304, 305, 306, 307, 308, 309, 310, 311, 312, 313, 314, 315, 316, 317, 318, 319, 320, 321, 322, 323, 324, 325, 326, 327, 328, 329, 330, 331, 332, 333, 334, 335, 336, 337, 338, 339, 340, 341, 342, 343, 344, 345, 346, 347, 348, 349, 350, 351, 352, 353, 354, 355, 356, 357, 358, 359, 360, 361, 362, 363, 364, 365, 366, 367, 368, 369, 370, 371, 372, 373, 374, 375, 376, 377, 378, 379, 380, 381, 382, 383, 384, 385, 386, 387, 388, 389, 390, 391, 392, 393, 394, 395, 396, 397, 398, 399, 400, 401, 402, 403, 404, 405, 406, 407, 408, 409, 410, 411, 412, 413, 414, 415, 416, 417, 418, 419, 420, 421, 422, 423, 424, 425, 426, 427, 428, 429, 430, 431, 432, 433, 434, 435, 436, 437, 438, 439, 440, 441, 442, 443, 444, 445, 446, 447, 448, 449, 450, 451, 452, 453, 454, 455, 456, 457, 458, 459, 460, 461, 462, 463, 464, 465, 466, 467, 468, 469, 470, 471, 472, 473, 474, 475, 476, 477, 478, 479, 480, 481, 482, 483, 484, 485, 486, 487, 488, 489, 490, 491],
      "AcquisitionTime": ["131806.832500", "131808.322500", "131809.812500", "131811.302500", "131812.792500", "131814.282500", "131815.772500", "131817.262500", "131818.752500", "131820.242500", "131821.732500", "131823.222500", "131824.712500", "131826.202500", "131827.692500", "131829.182500", "131830.672500", "131832.162500", "131833.652500", "131835.142500", "131836.632500", "131838.122500", "131839.612500", "131841.102500", "131842.592500", "131844.082500", "131845.572500", "131847.062500", "131848.552500", "131850.042500", "131851.532500", "131853.022500", "131854.512500", "131856.002500", "131857.492500", "131858.982500", "131900.472500", "131901.962500", "131903.452500", "131904.942500", "131906.432500", "131907.922500", "131909.412500", "131910.902500", "131912.392500", "131913.882500", "131915.372500", "131916.862500", "131918.352500", "131919.842500", "131921.332500", "131922.822500", "131924.312500", "131925.802500", "131927.292500", "131928.782500", "131930.272500", "131931.762500", "131933.252500", "131934.742500", "131936.232500", "131937.722500", "131939.212500", "131940.702500", "131942.192500", "131943.682500", "131945.172500", "131946.662500", "131948.152500", "131949.642500", "131951.132500", "131952.622500", "131954.112500", "131955.602500", "131957.092500", "131958.582500", "132000.072500", "132001.562500", "132003.052500", "132004.542500", "132006.032500", "132007.522500", "132009.012500", "132010.502500", "132011.992500", "132013.482500", "132014.972500", "132016.462500", "132017.952500", "132019.442500", "132020.932500", "132022.422500", "132023.912500", "132025.402500", "132026.892500", "132028.382500", "132029.872500", "132031.362500", "132032.852500", "132034.342500", "132035.832500", "132037.322500", "132038.812500", "132040.302500", "132041.792500", "132043.282500", "132044.772500", "132046.262500", "132047.752500", "132049.242500", "132050.732500", "132052.222500", "132053.712500", "132055.202500", "132056.692500", "132058.182500", "132059.672500", "132101.162500", "132102.652500", "132104.142500", "132105.632500", "132107.122500", "132108.612500", "132110.102500", "132111.592500", "132113.082500", "132114.572500", "132116.062500", "132117.552500", "132119.042500", "132120.532500", "132122.022500", "132123.512500", "132125.002500", "132126.492500", "132127.982500", "132129.472500", "132130.962500", "132132.452500", "132133.942500", "132135.432500", "132136.922500", "132138.412500", "132139.902500", "132141.392500", "132142.882500", "132144.372500", "132145.862500", "132147.352500", "132148.842500", "132150.332500", "132151.822500", "132153.312500", "132154.802500", "132156.292500", "132157.782500", "132159.272500", "132200.762500", "132202.252500", "132203.742500", "132205.232500", "132206.722500", "132208.212500", "132209.702500", "132211.192500", "132212.682500", "132214.172500", "132215.662500", "132217.152500", "132218.642500", "132220.132500", "132221.622500", "132223.112500", "132224.602500", "132226.092500", "132227.582500", "132229.072500", "132230.562500", "132232.052500", "132233.542500", "132235.032500", "132236.522500", "132238.012500", "132239.502500", "132240.992500", "132242.482500", "132243.972500", "132245.462500", "132246.952500", "132248.442500", "132249.932500", "132251.422500", "132252.912500", "132254.402500", "132255.892500", "132257.382500", "132258.872500", "132300.362500", "132301.852500", "132303.342500", "132304.832500", "132306.322500", "132307.812500", "132309.302500", "132310.792500", "132312.282500", "132313.772500", "132315.262500", "132316.752500", "132318.242500", "132319.732500", "132321.222500", "132322.712500", "132324.202500", "132325.692500", "132327.182500", "132328.672500", "132330.162500", "132331.652500", "132333.142500", "132334.632500", "132336.122500", "132337.612500", "132339.102500", "132340.592500", "132342.082500", "132343.572500", "132345.062500", "132346.552500", "132348.042500", "132349.532500", "132351.022500", "132352.512500", "132354.002500", "132355.492500", "132356.982500", "132358.472500", "132359.962500", "132401.452500", "132402.942500", "132404.432500", "132405.922500", "132407.412500", "132408.902500", "132410.392500", "132411.882500", "132413.372500", "132414.862500", "132416.352500", "132417.842500", "132419.332500", "132420.822500", "132422.312500", "132423.802500", "132425.292500", "132426.782500", "132428.272500", "132429.762500", "132431.252500", "132432.742500", "132434.232500", "132435.722500", "132437.212500", "132438.702500", "132440.192500", "132441.682500", "132443.172500", "132444.662500", "132446.152500", "132447.642500", "132449.132500", "132450.622500", "132452.112500", "132453.602500", "132455.092500", "132456.582500", "132458.072500", "132459.562500", "132501.052500", "132502.542500", "132504.032500", "132505.522500", "132507.012500", "132508.502500", "132509.992500", "132511.482500", "132512.972500", "132514.462500", "132515.952500", "132517.442500", "132518.932500", "132520.422500", "132521.912500", "132523.402500", "132524.892500", "132526.382500", "132527.872500", "132529.362500", "132530.852500", "132532.342500", "132533.832500", "132535.322500", "132536.812500", "132538.302500", "132539.792500", "132541.282500", "132542.772500", "132544.262500", "132545.752500", "132547.242500", "132548.732500", "132550.222500", "132551.712500", "132553.202500", "132554.692500", "132556.182500", "132557.672500", "132559.162500", "132600.652500", "132602.142500", "132603.632500", "132605.122500", "132606.612500", "132608.102500", "132609.592500", "132611.082500", "132612.572500", "132614.062500", "132615.552500", "132617.042500", "132618.532500", "132620.022500", "132621.512500", "132623.002500", "132624.492500", "132625.982500", "132627.472500", "132628.962500", "132630.452500", "132631.942500", "132633.432500", "132634.922500", "132636.412500", "132637.902500", "132639.392500", "132640.882500", "132642.372500", "132643.862500", "132645.352500", "132646.842500", "132648.332500", "132649.822500", "132651.312500", "132652.802500", "132654.292500", "132655.782500", "132657.272500", "132658.762500", "132700.252500", "132701.742500", "132703.232500", "132704.722500", "132706.212500", "132707.702500", "132709.192500", "132710.682500", "132712.172500", "132713.662500", "132715.152500", "132716.642500", "132718.132500", "132719.622500", "132721.112500", "132722.602500", "132724.092500", "132725.582500", "132727.072500", "132728.562500", "132730.052500", "132731.542500", "132733.032500", "132734.522500", "132736.012500", "132737.502500", "132738.992500", "132740.482500", "132741.972500", "132743.462500", "132744.952500", "132746.442500", "132747.932500", "132749.422500", "132750.912500", "132752.402500", "132753.892500", "132755.382500", "132756.872500", "132758.362500", "132759.852500", "132801.342500", "132802.832500", "132804.322500", "132805.812500", "132807.302500", "132808.792500", "132810.282500", "132811.772500", "132813.262500", "132814.752500", "132816.242500", "132817.732500", "132819.222500", "132820.712500", "132822.202500", "132823.692500", "132825.182500", "132826.672500", "132828.162500", "132829.652500", "132831.142500", "132832.632500", "132834.122500", "132835.612500", "132837.102500", "132838.592500", "132840.082500", "132841.572500", "132843.062500", "132844.552500", "132846.042500", "132847.532500", "132849.022500", "132850.512500", "132852.002500", "132853.492500", "132854.982500", "132856.472500", "132857.962500", "132859.452500", "132900.942500", "132902.432500", "132903.922500", "132905.412500", "132906.902500", "132908.392500", "132909.882500", "132911.372500", "132912.862500", "132914.352500", "132915.842500", "132917.332500", "132918.822500", "132920.312500", "132921.802500", "132923.292500", "132924.782500", "132926.272500", "132927.762500", "132929.252500", "132930.742500", "132932.232500", "132933.722500", "132935.212500", "132936.702500", "132938.192500", "132939.682500", "132941.172500", "132942.662500", "132944.152500", "132945.642500", "132947.132500", "132948.622500", "132950.112500", "132951.602500", "132953.092500", "132954.582500", "132956.072500", "132957.562500", "132959.052500", "133000.542500", "133002.032500", "133003.522500", "133005.012500", "133006.502500", "133007.992500", "133009.482500", "133010.972500", "133012.462500", "133013.952500", "133015.442500", "133016.932500"],
      "ContentTime": ["131933.538000", "131933.541000", "131933.544000", "131933.547000", "131933.550000", "131933.552000", "131933.555000", "131933.562000", "131933.565000", "131933.567000", "131933.570000", "131933.573000", "131933.576000", "131933.579000", "131933.582000", "131933.585000", "131933.588000", "131933.590000", "131933.593000", "131933.596000", "131933.599000", "131933.602000", "131933.609000", "131933.612000", "131933.615000", "131933.618000", "131933.620000", "131933.623000", "131933.626000", "131933.629000", "131933.632000", "131933.634000", "131953.504000", "131953.507000", "131953.510000", "131953.512000", "131953.515000", "131953.518000", "131953.521000", "131953.524000", "131953.527000", "131953.530000", "131953.532000", "131953.535000", "131953.538000", "131953.541000", "131953.544000", "131953.547000", "131953.549000", "131953.552000", "131953.559000", "131953.562000", "131953.565000", "132013.503000", "132013.506000", "132013.509000", "132013.511000", "132013.514000", "132013.517000", "132013.520000", "132013.523000", "132013.526000", "132013.528000", "132013.531000", "132013.534000", "132013.537000", "132013.540000", "132013.543000", "132013.545000", "132013.548000", "132013.551000", "132013.554000", "132013.557000", "132033.503000", "132033.506000", "132033.508000", "132033.515000", "132033.518000", "132033.521000", "132033.524000", "132033.526000", "132033.529000", "132033.532000", "132033.535000", "132033.538000", "132033.541000", "132033.544000", "132033.547000", "132033.549000", "132033.552000", "132033.555000", "132033.558000", "132033.561000", "132113.504000", "132113.507000", "132113.517000", "132113.520000", "132113.523000", "132113.526000", "132113.529000", "132113.531000", "132113.541000", "132113.544000", "132113.547000", "132113.550000", "132113.553000", "132113.571000", "132113.574000", "132113.576000", "132113.587000", "132113.590000", "132113.593000", "132113.595000", "132113.598000", "132113.601000", "132113.604000", "132113.607000", "132113.610000", "132113.613000", "132113.615000", "132113.618000", "132113.621000", "132113.624000", "132113.627000", "132113.630000", "132153.504000", "132153.507000", "132153.510000", "132153.512000", "132153.515000", "132153.518000", "132153.521000", "132153.524000", "132153.527000", "132153.530000", "132153.532000", "132153.535000", "132153.538000", "132153.542000", "132153.544000", "132153.547000", "132153.550000", "132153.553000", "132153.556000", "132153.558000", "132153.561000", "132153.564000", "132153.567000", "132153.570000", "132153.573000", "132153.575000", "132233.503000", "132233.506000", "132233.509000", "132233.511000", "132233.514000", "132233.517000", "132233.520000", "132233.523000", "132233.525000", "132233.534000", "132233.536000", "132233.539000", "132233.542000", "132233.545000", "132233.548000", "132233.550000", "132233.553000", "132233.556000", "132233.559000", "132233.562000", "132233.565000", "132233.567000", "132233.570000", "132233.573000", "132233.583000", "132233.586000", "132233.588000", "132313.504000", "132313.507000", "132313.510000", "132313.512000", "132313.515000", "132313.518000", "132313.521000", "132313.524000", "132313.526000", "132313.529000", "132313.532000", "132313.535000", "132313.538000", "132313.541000", "132313.543000", "132313.546000", "132313.549000", "132313.552000", "132313.555000", "132313.557000", "132313.560000", "132313.563000", "132313.567000", "132313.569000", "132313.572000", "132313.575000", "132313.578000", "132353.504000", "132353.507000", "132353.510000", "132353.512000", "132353.515000", "132353.518000", "132353.521000", "132353.524000", "132353.526000", "132353.529000", "132353.532000", "132353.539000", "132353.542000", "132353.545000", "132353.548000", "132353.550000", "132353.553000", "132353.556000", "132353.559000", "132353.562000", "132353.565000", "132353.568000", "132353.571000", "132353.574000", "132353.576000", "132353.579000", "132353.582000", "132433.503000", "132433.506000", "132433.509000", "132433.511000", "132433.514000", "132433.517000", "132433.520000", "132433.522000", "132433.525000", "132433.528000", "132433.531000", "132433.534000", "132433.537000", "132433.539000", "132433.542000", "132433.545000", "132433.548000", "132433.551000", "132433.553000", "132433.556000", "132433.559000", "132433.562000", "132433.570000", "132433.573000", "132433.576000", "132433.579000", "132433.582000", "132513.503000", "132513.506000", "132513.509000", "132513.511000", "132513.514000", "132513.517000", "132513.520000", "132513.523000", "132513.526000", "132513.528000", "132513.531000", "132513.534000", "132513.537000", "132513.540000", "132513.543000", "132513.546000", "132513.548000", "132513.551000", "132513.554000", "132513.557000", "132513.560000", "132513.563000", "132513.565000", "132513.568000", "132513.571000", "132513.574000", "132513.577000", "132553.504000", "132553.507000", "132553.510000", "132553.513000", "132553.515000", "132553.518000", "132553.521000", "132553.524000", "132553.527000", "132553.529000", "132553.533000", "132553.535000", "132553.538000", "132553.541000", "132553.544000", "132553.547000", "132553.550000", "132553.553000", "132553.555000", "132553.558000", "132553.562000", "132553.565000", "132553.581000", "132553.584000", "132553.587000", "132553.590000", "132633.504000", "132633.511000", "132633.514000", "132633.517000", "132633.519000", "132633.522000", "132633.525000", "132633.533000", "132633.536000", "132633.539000", "132633.541000", "132633.544000", "132633.547000", "132633.550000", "132633.553000", "132633.556000", "132633.559000", "132633.562000", "132633.564000", "132633.567000", "132633.570000", "132633.573000", "132633.576000", "132633.579000", "132633.581000", "132633.584000", "132633.587000", "132713.503000", "132713.506000", "132713.509000", "132713.512000", "132713.514000", "132713.517000", "132713.520000", "132713.523000", "132713.526000", "132713.529000", "132713.541000", "132713.544000", "132713.547000", "132713.550000", "132713.553000", "132713.556000", "132713.559000", "132713.561000", "132713.564000", "132713.567000", "132713.570000", "132713.573000", "132713.576000", "132713.579000", "132713.581000", "132713.584000", "132713.587000", "132753.504000", "132753.507000", "132753.510000", "132753.513000", "132753.515000", "132753.518000", "132753.521000", "132753.524000", "132753.527000", "132753.529000", "132753.532000", "132753.535000", "132753.538000", "132753.541000", "132753.544000", "132753.546000", "132753.549000", "132753.552000", "132753.555000", "132753.558000", "132753.560000", "132753.563000", "132753.566000", "132753.569000", "132753.572000", "132753.575000", "132753.578000", "132833.504000", "132833.507000", "132833.509000", "132833.512000", "132833.515000", "132833.518000", "132833.521000", "132833.523000", "132833.534000", "132833.537000", "132833.540000", "132833.543000", "132833.546000", "132833.548000", "132833.551000", "132833.554000", "132833.557000", "132833.560000", "132833.563000", "132833.565000", "132833.568000", "132833.571000", "132833.574000", "132833.577000", "132833.580000", "132833.583000", "132833.585000", "132913.503000", "132913.506000", "132913.509000", "132913.511000", "132913.514000", "132913.517000", "132913.520000", "132913.523000", "132913.526000", "132913.529000", "132913.532000", "132913.534000", "132913.537000", "132913.540000", "132913.543000", "132913.546000", "132913.549000", "132913.551000", "132913.554000", "132913.557000", "132913.560000", "132913.563000", "132913.565000", "132913.568000", "132913.571000", "132913.574000", "132913.577000", "132953.503000", "132953.506000", "132953.509000", "132953.511000", "132953.514000", "132953.518000", "132953.521000", "132953.524000", "132953.527000", "132953.529000", "132953.532000", "132953.535000", "132953.538000", "132953.541000", "132953.543000", "132953.546000", "132953.549000", "132953.552000", "132953.555000", "132953.557000", "132953.560000", "132953.563000", "132953.566000", "132953.569000", "132953.572000", "132953.575000", "132953.577000", "133018.835000", "133018.838000", "133018.841000", "133018.844000", "133018.847000", "133018.849000", "133018.852000", "133018.855000", "133018.858000", "133018.869000", "133018.872000", "133018.875000", "133018.878000", "133018.881000", "133018.884000", "133018.886000", "133018.889000"],
