{
  "AcquisitionMatrixPE": 104,
  "AcquisitionNumber": 1,
  "AcquisitionTime": "13:30:56.315000",
  "BandwidthPerPixelPhaseEncode": 17.17,
  "BaseResolution": 104,
  "BodyPartExamined": "BRAIN",
  "CoilString": "HC1-7;NC1_2",
  "ConsistencyInfo": "N4_VE11C_LATEST_20160120",
  "ConversionSoftware": "dcm2niix",
  "ConversionSoftwareVersion": "v1.0.20190720  (JP2:OpenJPEG) GCC7.3.0",
  "DerivedVendorReportedEchoSpacing": 0.000560011,
  "DeviceSerialNumber": "167006",
  "DwellTime": 2.1e-06,
  "EchoTime": 0.037,
  "EchoTrainLength": 104,
  "EffectiveEchoSpacing": 0.000560011,
  "FlipAngle": 52,
  "ImageComments": "Unaliased_MB4_PE3_LB",
  "ImageOrientationPatientDICOM": [0.9996, -0.0181575, 0.0216698, 0.0266992, 0.858346, -0.512377],
  "ImageType": [
    "ORIGINAL",
    "PRIMARY",
    "M",
    "MB",
    "ND",
    "MOSAIC"
],
  "ImagingFrequency": 123.259,
  "InPlanePhaseEncodingDirectionDICOM": "COL",
  "InstitutionAddress": "Chemin_Queen-Mary_4565_Montreal_District_CA_H3W_1W5",
  "InstitutionName": "IUGM",
  "InstitutionalDepartmentName": "Department",
  "MRAcquisitionType": "2D",
  "MagneticFieldStrength": 3,
  "Manufacturer": "Siemens",
  "ManufacturersModelName": "Prisma_fit",
  "Modality": "MR",
  "MultibandAccelerationFactor": 4,
  "PartialFourier": 1,
  "PatientPosition": "HFS",
  "PercentPhaseFOV": 100,
  "PhaseEncodingDirection": "j",
  "PhaseEncodingSteps": 104,
  "PhaseResolution": 1,
  "PixelBandwidth": 2290,
  "ProcedureStepDescription": "video_friends",
  "ProtocolName": "func_task-friends-s01e14b",
  "PulseSequenceDetails": "%CustomerSeq%_cmrr_mbep2d_bold",
  "ReceiveCoilActiveElements": "HC1-7;NC1,2",
  "ReceiveCoilName": "HeadNeck_64",
  "ReconMatrixPE": 104,
  "RepetitionTime": 1.49,
  "SAR": 0.0346938,
  "ScanOptions": "FS",
  "ScanningSequence": "EP",
  "SequenceName": "epfid2d1_104",
  "SequenceVariant": "SK_SS",
  "SeriesDescription": "func_task-friends-s01e14b",
  "SeriesNumber": 11,
  "ShimSetting": [630, -7195, -8884, 430, -27, -256, 3, -7],
  "SliceThickness": 2,
  "SliceTiming": [0, 0.785, 0.0975, 0.8825, 0.1975, 0.98, 0.295, 1.0775, 0.3925, 1.1775, 0.49, 1.275, 0.5875, 1.3725, 0.6875, 0, 0.785, 0.0975, 0.8825, 0.1975, 0.98, 0.295, 1.0775, 0.3925, 1.1775, 0.49, 1.275, 0.5875, 1.3725, 0.6875, 0, 0.785, 0.0975, 0.8825, 0.1975, 0.98, 0.295, 1.0775, 0.3925, 1.1775, 0.49, 1.275, 0.5875, 1.3725, 0.6875, 0, 0.785, 0.0975, 0.8825, 0.1975, 0.98, 0.295, 1.0775, 0.3925, 1.1775, 0.49, 1.275, 0.5875, 1.3725, 0.6875],
  "SoftwareVersions": "syngo_MR_E11",
  "SpacingBetweenSlices": 2,
  "StationName": "MRC35049",
  "TaskName": "friends",
  "TotalReadoutTime": 0.0576811,
  "TxRefAmp": 248.75,
  "WipMemBlock": "8ec19d6a-d203-42a3-91c3-7ddf65f9e85f||Sequence: R016 ve11c/master r/e634e98; Dec 19 2017 11:00:25 by eja",
  "dcmmeta_affine": [
    [-1.9992005825042725, 0.05339834839105606, 0.018593329936265945, 99.67715454101562],
    [0.03631501644849777, 1.7166913747787476, -1.0255008935928345, -60.248844146728516],
    [0.04333953186869621, 1.024753451347351, 1.7169747352600098, -108.99066925048828],
    [0.0, 0.0, 0.0, 1.0]
],
  "dcmmeta_reorient_transform": [
    [0.0, -1.0, 0.0, 103.0],
    [1.0, 0.0, 0.0, 0.0],
    [0.0, 0.0, 1.0, 0.0],
    [0.0, 0.0, 0.0, 1.0]
],
  "dcmmeta_shape": [104, 104, 60, 491],
  "dcmmeta_slice_dim": 2,
  "dcmmeta_version": 0.6,
  "global": {
    "const": {
      "AcquisitionMatrix": [104, 0, 0, 104],
      "AngioFlag": "N",
      "BitsAllocated": 16,
      "BitsStored": 16,
      "BodyPartExamined": "BRAIN",
      "Columns": 832,
      "EchoNumbers": 1,
      "EchoTime": 37.0,
      "EchoTrainLength": 104,
      "FlipAngle": 52.0,
      "HighBit": 15,
      "ImageOrientationPatient": [0.99960028317331, -0.0181575084549, 0.02166976618598, 0.02669917400532, 0.85834565763931, -0.5123767033338],
      "ImagePositionPatient": [-852.32318810078, -728.22733220516, 353.79358522015],
      "ImageType": [
        "ORIGINAL",
        "PRIMARY",
        "M",
        "MB",
        "ND",
        "MOSAIC"
],
      "ImagedNucleus": "1H",
      "ImagingFrequency": 123.259152,
      "InPlanePhaseEncodingDirection": "COL",
      "MRAcquisitionType": "2D",
      "MagneticFieldStrength": 3.0,
      "Manufacturer": "SIEMENS",
      "ManufacturerModelName": "Prisma_fit",
      "Modality": "MR",
      "NumberOfAverages": 1.0,
      "NumberOfPhaseEncodingSteps": 104,
      "PercentPhaseFieldOfView": 100.0,
      "PercentSampling": 100.0,
      "PerformedProcedureStepStartTime": "125928.311000",
      "PhotometricInterpretation": "MONOCHROME2",
      "PixelBandwidth": 2290.0,
      "PixelRepresentation": 0,
      "PixelSpacing": [2.0, 2.0],
      "ProtocolName": "func_task-friends-s01e14b",
      "RepetitionTime": 1490.0,
      "Rows": 832,
      "SAR": 0.0346938110974,
      "SamplesPerPixel": 1,
      "ScanOptions": "FS",
      "ScanningSequence": "EP",
      "SequenceName": "epfid2d1_104",
      "SequenceVariant": [
        "SK",
        "SS"
],
      "SeriesDescription": "func_task-friends-s01e14b",
      "SeriesNumber": 11,
      "SeriesTime": "133212.482000",
      "SliceLocation": -61.747819534167,
      "SliceThickness": 2.0,
      "SmallestImagePixelValue": 0,
      "SoftwareVersions": "syngo MR E11",
      "SpacingBetweenSlices": 1.9999999779349,
      "SpecificCharacterSet": "ISO_IR 100",
      "StudyID": "1",
      "StudyTime": "125928.122000",
      "TransmitCoilName": "Body",
      "VariableFlipAngleFlag": "N",
      "WindowCenterWidthExplanation": "Algo1",
      "dBdt": 0.0},
    "slices": {}
  },
  "time": {
    "samples": {
      "AcquisitionNumber": [1, 2, 3, 4, 5, 6, 7, 8, 9, 10, 11, 12, 13, 14, 15, 16, 17, 18, 19, 20, 21, 22, 23, 24, 25, 26, 27, 28, 29, 30, 31, 32, 33, 34, 35, 36, 37, 38, 39, 40, 41, 42, 43, 44, 45, 46, 47, 48, 49, 50, 51, 52, 53, 54, 55, 56, 57, 58, 59, 60, 61, 62, 63, 64, 65, 66, 67, 68, 69, 70, 71, 72, 73, 74, 75, 76, 77, 78, 79, 80, 81, 82, 83, 84, 85, 86, 87, 88, 89, 90, 91, 92, 93, 94, 95, 96, 97, 98, 99, 100, 101, 102, 103, 104, 105, 106, 107, 108, 109, 110, 111, 112, 113, 114, 115, 116, 117, 118, 119, 120, 121, 122, 123, 124, 125, 126, 127, 128, 129, 130, 131, 132, 133, 134, 135, 136, 137, 138, 139, 140, 141, 142, 143, 144, 145, 146, 147, 148, 149, 150, 151, 152, 153, 154, 155, 156, 157, 158, 159, 160, 161, 162, 163, 164, 165, 166, 167, 168, 169, 170, 171, 172, 173, 174, 175, 176, 177, 178, 179, 180, 181, 182, 183, 184, 185, 186, 187, 188, 189, 190, 191, 192, 193, 194, 195, 196, 197, 198, 199, 200, 201, 202, 203, 204, 205, 206, 207, 208, 209, 210, 211, 212, 213, 214, 215, 216, 217, 218, 219, 220, 221, 222, 223, 224, 225, 226, 227, 228, 229, 230, 231, 232, 233, 234, 235, 236, 237, 238, 239, 240, 241, 242, 243, 244, 245, 246, 247, 248, 249, 250, 251, 252, 253, 254, 255, 256, 257, 258, 259, 260, 261, 262, 263, 264, 265, 266, 267, 268, 269, 270, 271, 272, 273, 274, 275, 276, 277, 278, 279, 280, 281, 282, 283, 284, 285, 286, 287, 288, 289, 290, 291, 292, 293, 294, 295, 296, 297, 298, 299, 300, 301, 302, 303, 304, 305, 306, 307, 308, 309, 310, 311, 312, 313, 314, 315, 316, 317, 318, 319, 320, 321, 322, 323, 324, 325, 326, 327, 328, 329, 330, 331, 332, 333, 334, 335, 336, 337, 338, 339, 340, 341, 342, 343, 344, 345, 346, 347, 348, 349, 350, 351, 352, 353, 354, 355, 356, 357, 358, 359, 360, 361, 362, 363, 364, 365, 366, 367, 368, 369, 370, 371, 372, 373, 374, 375, 376, 377, 378, 379, 380, 381, 382, 383, 384, 385, 386, 387, 388, 389, 390, 391, 392, 393, 394, 395, 396, 397, 398, 399, 400, 401, 402, 403, 404, 405, 406, 407, 408, 409, 410, 411, 412, 413, 414, 415, 416, 417, 418, 419, 420, 421, 422, 423, 424, 425, 426, 427, 428, 429, 430, 431, 432, 433, 434, 435, 436, 437, 438, 439, 440, 441, 442, 443, 444, 445, 446, 447, 448, 449, 450, 451, 452, 453, 454, 455, 456, 457, 458, 459, 460, 461, 462, 463, 464, 465, 466, 467, 468, 469, 470, 471, 472, 473, 474, 475, 476, 477, 478, 479, 480, 481, 482, 483, 484, 485, 486, 487, 488, 489, 490, 491],
      "AcquisitionTime": ["133056.315000", "133057.805000", "133059.295000", "133100.785000", "133102.275000", "133103.765000", "133105.255000", "133106.745000", "133108.235000", "133109.725000", "133111.215000", "133112.705000", "133114.195000", "133115.685000", "133117.175000", "133118.665000", "133120.155000", "133121.645000", "133123.135000", "133124.625000", "133126.115000", "133127.605000", "133129.095000", "133130.585000", "133132.075000", "133133.565000", "133135.055000", "133136.545000", "133138.035000", "133139.525000", "133141.015000", "133142.505000", "133143.995000", "133145.485000", "133146.975000", "133148.465000", "133149.955000", "133151.445000", "133152.935000", "133154.425000", "133155.915000", "133157.405000", "133158.895000", "133200.385000", "133201.875000", "133203.365000", "133204.855000", "133206.345000", "133207.835000", "133209.325000", "133210.815000", "133212.305000", "133213.795000", "133215.285000", "133216.775000", "133218.265000", "133219.755000", "133221.245000", "133222.735000", "133224.225000", "133225.715000", "133227.205000", "133228.695000", "133230.185000", "133231.675000", "133233.165000", "133234.655000", "133236.145000", "133237.635000", "133239.125000", "133240.615000", "133242.105000", "133243.595000", "133245.085000", "133246.575000", "133248.065000", "133249.555000", "133251.045000", "133252.535000", "133254.025000", "133255.515000", "133257.005000", "133258.495000", "133259.985000", "133301.475000", "133302.965000", "133304.455000", "133305.945000", "133307.435000", "133308.925000", "133310.415000", "133311.905000", "133313.395000", "133314.885000", "133316.375000", "133317.865000", "133319.355000", "133320.845000", "133322.335000", "133323.825000", "133325.315000", "133326.805000", "133328.295000", "133329.785000", "133331.275000", "133332.765000", "133334.255000", "133335.745000", "133337.235000", "133338.725000", "133340.215000", "133341.705000", "133343.195000", "133344.685000", "133346.175000", "133347.665000", "133349.155000", "133350.645000", "133352.135000", "133353.625000", "133355.115000", "133356.605000", "133358.095000", "133359.585000", "133401.075000", "133402.565000", "133404.055000", "133405.545000", "133407.035000", "133408.525000", "133410.015000", "133411.505000", "133412.995000", "133414.485000", "133415.975000", "133417.465000", "133418.955000", "133420.445000", "133421.935000", "133423.425000", "133424.915000", "133426.405000", "133427.895000", "133429.385000", "133430.875000", "133432.365000", "133433.855000", "133435.345000", "133436.835000", "133438.325000", "133439.815000", "133441.305000", "133442.795000", "133444.285000", "133445.775000", "133447.265000", "133448.755000", "133450.245000", "133451.735000", "133453.225000", "133454.715000", "133456.205000", "133457.695000", "133459.185000", "133500.675000", "133502.165000", "133503.655000", "133505.145000", "133506.635000", "133508.125000", "133509.615000", "133511.105000", "133512.595000", "133514.085000", "133515.575000", "133517.065000", "133518.555000", "133520.045000", "133521.535000", "133523.025000", "133524.515000", "133526.005000", "133527.495000", "133528.985000", "133530.475000", "133531.965000", "133533.455000", "133534.945000", "133536.435000", "133537.925000", "133539.415000", "133540.905000", "133542.395000", "133543.885000", "133545.375000", "133546.865000", "133548.355000", "133549.845000", "133551.335000", "133552.825000", "133554.315000", "133555.805000", "133557.295000", "133558.785000", "133600.275000", "133601.765000", "133603.255000", "133604.745000", "133606.235000", "133607.725000", "133609.215000", "133610.705000", "133612.195000", "133613.685000", "133615.175000", "133616.665000", "133618.155000", "133619.645000", "133621.135000", "133622.625000", "133624.115000", "133625.605000", "133627.095000", "133628.585000", "133630.075000", "133631.565000", "133633.055000", "133634.545000", "133636.035000", "133637.525000", "133639.015000", "133640.505000", "133641.995000", "133643.485000", "133644.975000", "133646.465000", "133647.955000", "133649.445000", "133650.935000", "133652.425000", "133653.915000", "133655.405000", "133656.895000", "133658.385000", "133659.875000", "133701.365000", "133702.855000", "133704.345000", "133705.835000", "133707.325000", "133708.815000", "133710.305000", "133711.795000", "133713.285000", "133714.775000", "133716.265000", "133717.755000", "133719.245000", "133720.735000", "133722.225000", "133723.715000", "133725.205000", "133726.695000", "133728.185000", "133729.675000", "133731.165000", "133732.655000", "133734.145000", "133735.635000", "133737.125000", "133738.615000", "133740.105000", "133741.595000", "133743.085000", "133744.575000", "133746.065000", "133747.555000", "133749.045000", "133750.535000", "133752.025000", "133753.515000", "133755.005000", "133756.495000", "133757.985000", "133759.475000", "133800.965000", "133802.455000", "133803.945000", "133805.435000", "133806.925000", "133808.415000", "133809.905000", "133811.395000", "133812.885000", "133814.375000", "133815.865000", "133817.355000", "133818.845000", "133820.335000", "133821.825000", "133823.315000", "133824.805000", "133826.295000", "133827.785000", "133829.275000", "133830.765000", "133832.255000", "133833.745000", "133835.235000", "133836.725000", "133838.215000", "133839.705000", "133841.195000", "133842.685000", "133844.175000", "133845.665000", "133847.155000", "133848.645000", "133850.135000", "133851.625000", "133853.115000", "133854.605000", "133856.095000", "133857.585000", "133859.075000", "133900.565000", "133902.055000", "133903.545000", "133905.035000", "133906.525000", "133908.015000", "133909.505000", "133910.995000", "133912.485000", "133913.975000", "133915.465000", "133916.955000", "133918.445000", "133919.935000", "133921.425000", "133922.915000", "133924.405000", "133925.895000", "133927.385000", "133928.875000", "133930.365000", "133931.855000", "133933.345000", "133934.835000", "133936.325000", "133937.815000", "133939.305000", "133940.795000", "133942.285000", "133943.775000", "133945.265000", "133946.755000", "133948.245000", "133949.735000", "133951.225000", "133952.715000", "133954.205000", "133955.695000", "133957.185000", "133958.675000", "134000.165000", "134001.655000", "134003.145000", "134004.635000", "134006.125000", "134007.615000", "134009.105000", "134010.595000", "134012.085000", "134013.575000", "134015.065000", "134016.555000", "134018.045000", "134019.535000", "134021.025000", "134022.515000", "134024.005000", "134025.495000", "134026.985000", "134028.475000", "134029.965000", "134031.455000", "134032.945000", "134034.435000", "134035.925000", "134037.415000", "134038.905000", "134040.395000", "134041.885000", "134043.375000", "134044.865000", "134046.355000", "134047.845000", "134049.335000", "134050.825000", "134052.315000", "134053.805000", "134055.295000", "134056.785000", "134058.275000", "134059.765000", "134101.255000", "134102.745000", "134104.235000", "134105.725000", "134107.215000", "134108.705000", "134110.195000", "134111.685000", "134113.175000", "134114.665000", "134116.155000", "134117.645000", "134119.135000", "134120.625000", "134122.115000", "134123.605000", "134125.095000", "134126.585000", "134128.075000", "134129.565000", "134131.055000", "134132.545000", "134134.035000", "134135.525000", "134137.015000", "134138.505000", "134139.995000", "134141.485000", "134142.975000", "134144.465000", "134145.955000", "134147.445000", "134148.935000", "134150.425000", "134151.915000", "134153.405000", "134154.895000", "134156.385000", "134157.875000", "134159.365000", "134200.855000", "134202.345000", "134203.835000", "134205.325000", "134206.815000", "134208.305000", "134209.795000", "134211.285000", "134212.775000", "134214.265000", "134215.755000", "134217.245000", "134218.735000", "134220.225000", "134221.715000", "134223.205000", "134224.695000", "134226.185000", "134227.675000", "134229.165000", "134230.655000", "134232.145000", "134233.635000", "134235.125000", "134236.615000", "134238.105000", "134239.595000", "134241.085000", "134242.575000", "134244.065000", "134245.555000", "134247.045000", "134248.535000", "134250.025000", "134251.515000", "134253.005000", "134254.495000", "134255.985000", "134257.475000", "134258.965000", "134300.455000", "134301.945000", "134303.435000", "134304.925000", "134306.415000"],
      "ContentTime": ["133212.484000", "133212.488000", "133212.491000", "133212.493000", "133212.496000", "133212.500000", "133212.503000", "133212.505000", "133212.508000", "133212.511000", "133212.514000", "133212.519000", "133212.522000", "133212.525000", "133212.528000", "133212.531000", "133212.534000", "133212.536000", "133212.539000", "133212.542000", "133212.545000", "133232.443000", "133232.446000", "133232.449000", "133232.452000", "133232.455000", "133232.457000", "133232.460000", "133232.463000", "133232.466000", "133232.469000", "133232.472000", "133232.474000", "133232.477000", "133232.480000", "133232.483000", "133232.485000", "133232.488000", "133232.491000", "133232.494000", "133232.497000", "133252.442000", "133252.445000", "133252.447000", "133252.450000", "133252.453000", "133252.456000", "133252.459000", "133252.462000", "133252.464000", "133252.467000", "133252.470000", "133252.473000", "133252.476000", "133252.478000", "133252.481000", "133252.484000", "133252.487000", "133252.490000", "133252.493000", "133252.495000", "133312.442000", "133312.445000", "133312.448000", "133312.457000", "133312.460000", "133312.462000", "133312.465000", "133312.468000", "133312.471000", "133312.474000", "133312.477000", "133312.480000", "133312.483000", "133312.486000", "133312.489000", "133312.492000", "133312.495000", "133312.498000", "133312.501000", "133312.503000", "133332.442000", "133332.445000", "133332.448000", "133332.450000", "133332.453000", "133332.456000", "133332.459000", "133332.462000", "133332.464000", "133332.467000", "133332.470000", "133332.473000", "133332.475000", "133332.478000", "133332.481000", "133332.484000", "133332.487000", "133332.489000", "133332.492000", "133332.495000", "133332.498000", "133412.442000", "133412.445000", "133412.448000", "133412.450000", "133412.453000", "133412.456000", "133412.459000", "133412.462000", "133412.465000", "133412.468000", "133412.471000", "133412.473000", "133412.476000", "133412.479000", "133412.482000", "133412.485000", "133412.488000", "133412.491000", "133412.499000", "133412.502000", "133412.505000", "133412.508000", "133412.510000", "133412.513000", "133412.516000", "133412.519000", "133412.522000", "133412.524000", "133452.443000", "133452.446000", "133452.449000", "133452.452000", "133452.454000", "133452.457000", "133452.460000", "133452.463000", "133452.466000", "133452.469000", "133452.471000", "133452.474000", "133452.477000", "133452.480000", "133452.482000", "133452.485000", "133452.488000", "133452.491000", "133452.494000", "133452.496000", "133452.499000", "133452.502000", "133452.505000", "133452.508000", "133452.510000", "133452.513000", "133452.516000", "133532.442000", "133532.445000", "133532.448000", "133532.451000", "133532.454000", "133532.468000", "133532.471000", "133532.473000", "133532.476000", "133532.479000", "133532.482000", "133532.485000", "133532.487000", "133532.490000", "133532.493000", "133532.496000", "133532.499000", "133532.502000", "133532.504000", "133532.507000", "133532.510000", "133532.513000", "133532.516000", "133532.518000", "133532.521000", "133532.524000", "133532.527000", "133612.442000", "133612.445000", "133612.448000", "133612.469000", "133612.472000", "133612.475000", "133612.478000", "133612.481000", "133612.483000", "133612.486000", "133612.489000", "133612.492000", "133612.495000", "133612.497000", "133612.500000", "133612.503000", "133612.506000", "133612.509000", "133612.511000", "133612.514000", "133612.517000", "133612.520000", "133612.523000", "133612.525000", "133612.528000", "133612.531000", "133612.534000", "133652.442000", "133652.449000", "133652.452000", "133652.454000", "133652.457000", "133652.460000", "133652.463000", "133652.466000", "133652.468000", "133652.471000", "133652.474000", "133652.477000", "133652.480000", "133652.482000", "133652.485000", "133652.488000", "133652.491000", "133652.494000", "133652.497000", "133652.500000", "133652.502000", "133652.505000", "133652.508000", "133652.511000", "133652.513000", "133652.516000", "133652.519000", "133732.442000", "133732.445000", "133732.448000", "133732.451000", "133732.454000", "133732.456000", "133732.459000", "133732.468000", "133732.471000", "133732.473000", "133732.476000", "133732.479000", "133732.482000", "133732.485000", "133732.488000", "133732.491000", "133732.493000", "133732.496000", "133732.499000", "133732.502000", "133732.505000", "133732.508000", "133732.510000", "133732.513000", "133732.516000", "133732.519000", "133732.521000", "133812.442000", "133812.445000", "133812.448000", "133812.452000", "133812.455000", "133812.458000", "133812.461000", "133812.464000", "133812.466000", "133812.469000", "133812.472000", "133812.475000", "133812.478000", "133812.480000", "133812.483000", "133812.486000", "133812.489000", "133812.492000", "133812.494000", "133812.497000", "133812.500000", "133812.503000", "133812.506000", "133812.508000", "133812.511000", "133812.514000", "133852.442000", "133852.452000", "133852.455000", "133852.458000", "133852.461000", "133852.463000", "133852.466000", "133852.469000", "133852.472000", "133852.475000", "133852.478000", "133852.481000", "133852.483000", "133852.486000", "133852.489000", "133852.492000", "133852.495000", "133852.498000", "133852.501000", "133852.504000", "133852.506000", "133852.509000", "133852.512000", "133852.515000", "133852.518000", "133852.521000", "133852.524000", "133932.443000", "133932.446000", "133932.449000", "133932.452000", "133932.455000", "133932.458000", "133932.461000", "133932.463000", "133932.466000", "133932.469000", "133932.472000", "133932.475000", "133932.478000", "133932.481000", "133932.483000", "133932.486000", "133932.489000", "133932.492000", "133932.495000", "133932.498000", "133932.500000", "133932.504000", "133932.506000", "133932.509000", "133932.512000", "133932.515000", "133932.518000", "134012.442000", "134012.445000", "134012.448000", "134012.451000", "134012.454000", "134012.456000", "134012.459000", "134012.462000", "134012.465000", "134012.468000", "134012.471000", "134012.474000", "134012.476000", "134012.479000", "134012.482000", "134012.485000", "134012.488000", "134012.491000", "134012.494000", "134012.496000", "134012.507000", "134012.510000", "134012.513000", "134012.516000", "134012.519000", "134012.522000", "134012.525000", "134052.442000", "134052.445000", "134052.448000", "134052.467000", "134052.470000", "134052.473000", "134052.476000", "134052.479000", "134052.490000", "134052.493000", "134052.495000", "134052.498000", "134052.501000", "134052.504000", "134052.507000", "134052.510000", "134052.513000", "134052.515000", "134052.518000", "134052.521000", "134052.524000", "134052.527000", "134052.530000", "134052.533000", "134052.536000", "134052.538000", "134052.541000", "134132.442000", "134132.445000", "134132.448000", "134132.451000", "134132.454000", "134132.460000", "134132.463000", "134132.465000", "134132.468000", "134132.471000", "134132.474000", "134132.477000", "134132.480000", "134132.483000", "134132.486000", "134132.488000", "134132.491000", "134132.494000", "134132.497000", "134132.500000", "134132.503000", "134132.506000", "134132.509000", "134132.512000", "134132.514000", "134132.517000", "134132.520000", "134212.442000", "134212.445000", "134212.448000", "134212.451000", "134212.454000", "134212.457000", "134212.460000", "134212.463000", "134212.465000", "134212.469000", "134212.471000", "134212.474000", "134212.477000", "134212.480000", "134212.483000", "134212.486000", "134212.489000", "134212.492000", "134212.495000", "134212.497000", "134212.500000", "134212.503000", "134212.506000", "134212.509000", "134212.512000", "134212.515000", "134212.517000", "134252.442000", "134252.445000", "134252.448000", "134252.451000", "134252.454000", "134252.457000", "134252.460000", "134252.462000", "134252.465000", "134252.468000", "134252.471000", "134252.474000", "134252.477000", "134252.479000", "134252.482000", "134252.485000", "134252.488000", "134252.491000", "134252.494000", "134252.497000", "134252.500000", "134252.503000", "134252.506000", "134252.509000", "134252.511000", "134252.514000", "134308.996000", "134309.000000", "134309.003000", "134309.006000", "134309.009000", "134309.012000", "134309.015000", "134309.018000", "134309.020000", "134309.023000", "134309.026000", "134309.029000"],
