{
  "AcquisitionMatrixPE": 104,
  "AcquisitionNumber": 1,
  "AcquisitionTime": "20:06:21.935000",
  "BandwidthPerPixelPhaseEncode": 17.17,
  "BaseResolution": 104,
  "BodyPartExamined": "BRAIN",
  "CoilString": "HC1-7;NC1_2",
  "ConsistencyInfo": "N4_VE11C_LATEST_20160120",
  "ConversionSoftware": "dcm2niix",
  "ConversionSoftwareVersion": "v1.0.20190720  (JP2:OpenJPEG) GCC7.3.0",
  "DerivedVendorReportedEchoSpacing": 0.000560011,
  "DeviceSerialNumber": "167006",
  "DwellTime": 2.1e-06,
  "EchoTime": 0.037,
  "EchoTrainLength": 104,
  "EffectiveEchoSpacing": 0.000560011,
  "FlipAngle": 52,
  "ImageComments": "Unaliased_MB4_PE3_LB",
  "ImageOrientationPatientDICOM": [0.996352, -0.0847044, -0.0103784, 0.0754407, 0.931109, -0.356853],
  "ImageType": [
    "ORIGINAL",
    "PRIMARY",
    "M",
    "MB",
    "ND",
    "MOSAIC"
],
  "ImagingFrequency": 123.259,
  "InPlanePhaseEncodingDirectionDICOM": "COL",
  "InstitutionAddress": "Chemin_Queen-Mary_4565_Montreal_District_CA_H3W_1W5",
  "InstitutionName": "IUGM",
  "InstitutionalDepartmentName": "Department",
  "MRAcquisitionType": "2D",
  "MagneticFieldStrength": 3,
  "Manufacturer": "Siemens",
  "ManufacturersModelName": "Prisma_fit",
  "Modality": "MR",
  "MultibandAccelerationFactor": 4,
  "PartialFourier": 1,
  "PatientPosition": "HFS",
  "PercentPhaseFOV": 100,
  "PhaseEncodingDirection": "j",
  "PhaseEncodingSteps": 104,
  "PhaseResolution": 1,
  "PixelBandwidth": 2290,
  "ProcedureStepDescription": "video_friends",
  "ProtocolName": "func_task-friends-s01e21b",
  "PulseSequenceDetails": "%CustomerSeq%_cmrr_mbep2d_bold",
  "ReceiveCoilActiveElements": "HC1-7;NC1,2",
  "ReceiveCoilName": "HeadNeck_64",
  "ReconMatrixPE": 104,
  "RepetitionTime": 1.49,
  "SAR": 0.0322278,
  "ScanOptions": "FS",
  "ScanningSequence": "EP",
  "SequenceName": "epfid2d1_104",
  "SequenceVariant": "SK_SS",
  "SeriesDescription": "func_task-friends-s01e21b",
  "SeriesNumber": 25,
  "ShimSetting": [622, -7265, -8862, 381, 64, -440, 3, 45],
  "SliceThickness": 2,
  "SliceTiming": [0, 0.785, 0.1, 0.8825, 0.1975, 0.98, 0.295, 1.08, 0.3925, 1.1775, 0.49, 1.275, 0.59, 1.3725, 0.6875, 0, 0.785, 0.1, 0.8825, 0.1975, 0.98, 0.295, 1.08, 0.3925, 1.1775, 0.49, 1.275, 0.59, 1.3725, 0.6875, 0, 0.785, 0.1, 0.8825, 0.1975, 0.98, 0.295, 1.08, 0.3925, 1.1775, 0.49, 1.275, 0.59, 1.3725, 0.6875, 0, 0.785, 0.1, 0.8825, 0.1975, 0.98, 0.295, 1.08, 0.3925, 1.1775, 0.49, 1.275, 0.59, 1.3725, 0.6875],
  "SoftwareVersions": "syngo_MR_E11",
  "SpacingBetweenSlices": 2,
  "StationName": "MRC35049",
  "TaskName": "friends",
  "TotalReadoutTime": 0.0576811,
  "TxRefAmp": 232.646,
  "WipMemBlock": "fb9ad46f-21d7-4a7c-81ea-8bfae33e9f3a||Sequence: R016 ve11c/master r/e634e98; Dec 19 2017 11:00:25 by eja",
  "dcmmeta_affine": [
    [-1.992704153060913, 0.15088145434856415, -0.07978096604347229, 93.45552062988281],
    [0.1694088727235794, 1.8622186183929443, -0.7095369100570679, -79.00889587402344],
    [-0.02075681835412979, 0.7137063145637512, 1.8682056665420532, -73.73194885253906],
    [0.0, 0.0, 0.0, 1.0]
],
  "dcmmeta_reorient_transform": [
    [0.0, -1.0, 0.0, 103.0],
    [1.0, 0.0, 0.0, 0.0],
    [0.0, 0.0, 1.0, 0.0],
    [0.0, 0.0, 0.0, 1.0]
],
  "dcmmeta_shape": [104, 104, 60, 477],
  "dcmmeta_slice_dim": 2,
  "dcmmeta_version": 0.6,
  "global": {
    "const": {
      "AcquisitionMatrix": [104, 0, 0, 104],
      "AngioFlag": "N",
      "BitsAllocated": 16,
      "BitsStored": 16,
      "BodyPartExamined": "BRAIN",
      "Columns": 832,
      "EchoNumbers": 1,
      "EchoTime": 37.0,
      "EchoTrainLength": 104,
      "FlipAngle": 52.0,
      "HighBit": 15,
      "ImageOrientationPatient": [0.99635206957457, -0.0847044394905, -0.0103784095633, 0.07544072490873, 0.93110929235096, -0.3568531668949],
      "ImagePositionPatient": [-889.26146121509, -728.98234946647, 267.12439439157],
      "ImageType": [
        "ORIGINAL",
        "PRIMARY",
        "M",
        "MB",
        "ND",
        "MOSAIC"
],
      "ImagedNucleus": "1H",
      "ImagingFrequency": 123.259473,
      "InPlanePhaseEncodingDirection": "COL",
      "MRAcquisitionType": "2D",
      "MagneticFieldStrength": 3.0,
      "Manufacturer": "SIEMENS",
      "ManufacturerModelName": "Prisma_fit",
      "Modality": "MR",
      "NumberOfAverages": 1.0,
      "NumberOfPhaseEncodingSteps": 104,
      "PercentPhaseFieldOfView": 100.0,
      "PercentSampling": 100.0,
      "PerformedProcedureStepStartTime": "180642.828000",
      "PhotometricInterpretation": "MONOCHROME2",
      "PixelBandwidth": 2290.0,
      "PixelRepresentation": 0,
      "PixelSpacing": [2.0, 2.0],
      "ProtocolName": "func_task-friends-s01e21b",
      "RepetitionTime": 1490.0,
      "Rows": 832,
      "SAR": 0.03222784122242,
      "SamplesPerPixel": 1,
      "ScanOptions": "FS",
      "ScanningSequence": "EP",
      "SequenceName": "epfid2d1_104",
      "SequenceVariant": [
        "SK",
        "SS"
],
      "SeriesDescription": "func_task-friends-s01e21b",
      "SeriesNumber": 25,
      "SeriesTime": "200736.475000",
      "SliceLocation": -44.571341899591,
      "SliceThickness": 2.0,
      "SmallestImagePixelValue": 0,
      "SoftwareVersions": "syngo MR E11",
      "SpacingBetweenSlices": 2.0000000243065,
      "SpecificCharacterSet": "ISO_IR 100",
      "StudyID": "1",
      "StudyTime": "180642.764000",
      "TransmitCoilName": "Body",
      "VariableFlipAngleFlag": "N",
      "WindowCenterWidthExplanation": "Algo1",
      "dBdt": 0.0},
    "slices": {}
  },
  "time": {
    "samples": {
      "AcquisitionNumber": [1, 2, 3, 4, 5, 6, 7, 8, 9, 10, 11, 12, 13, 14, 15, 16, 17, 18, 19, 20, 21, 22, 23, 24, 25, 26, 27, 28, 29, 30, 31, 32, 33, 34, 35, 36, 37, 38, 39, 40, 41, 42, 43, 44, 45, 46, 47, 48, 49, 50, 51, 52, 53, 54, 55, 56, 57, 58, 59, 60, 61, 62, 63, 64, 65, 66, 67, 68, 69, 70, 71, 72, 73, 74, 75, 76, 77, 78, 79, 80, 81, 82, 83, 84, 85, 86, 87, 88, 89, 90, 91, 92, 93, 94, 95, 96, 97, 98, 99, 100, 101, 102, 103, 104, 105, 106, 107, 108, 109, 110, 111, 112, 113, 114, 115, 116, 117, 118, 119, 120, 121, 122, 123, 124, 125, 126, 127, 128, 129, 130, 131, 132, 133, 134, 135, 136, 137, 138, 139, 140, 141, 142, 143, 144, 145, 146, 147, 148, 149, 150, 151, 152, 153, 154, 155, 156, 157, 158, 159, 160, 161, 162, 163, 164, 165, 166, 167, 168, 169, 170, 171, 172, 173, 174, 175, 176, 177, 178, 179, 180, 181, 182, 183, 184, 185, 186, 187, 188, 189, 190, 191, 192, 193, 194, 195, 196, 197, 198, 199, 200, 201, 202, 203, 204, 205, 206, 207, 208, 209, 210, 211, 212, 213, 214, 215, 216, 217, 218, 219, 220, 221, 222, 223, 224, 225, 226, 227, 228, 229, 230, 231, 232, 233, 234, 235, 236, 237, 238, 239, 240, 241, 242, 243, 244, 245, 246, 247, 248, 249, 250, 251, 252, 253, 254, 255, 256, 257, 258, 259, 260, 261, 262, 263, 264, 265, 266, 267, 268, 269, 270, 271, 272, 273, 274, 275, 276, 277, 278, 279, 280, 281, 282, 283, 284, 285, 286, 287, 288, 289, 290, 291, 292, 293, 294, 295, 296, 297, 298, 299, 300, 301, 302, 303, 304, 305, 306, 307, 308, 309, 310, 311, 312, 313, 314, 315, 316, 317, 318, 319, 320, 321, 322, 323, 324, 325, 326, 327, 328, 329, 330, 331, 332, 333, 334, 335, 336, 337, 338, 339, 340, 341, 342, 343, 344, 345, 346, 347, 348, 349, 350, 351, 352, 353, 354, 355, 356, 357, 358, 359, 360, 361, 362, 363, 364, 365, 366, 367, 368, 369, 370, 371, 372, 373, 374, 375, 376, 377, 378, 379, 380, 381, 382, 383, 384, 385, 386, 387, 388, 389, 390, 391, 392, 393, 394, 395, 396, 397, 398, 399, 400, 401, 402, 403, 404, 405, 406, 407, 408, 409, 410, 411, 412, 413, 414, 415, 416, 417, 418, 419, 420, 421, 422, 423, 424, 425, 426, 427, 428, 429, 430, 431, 432, 433, 434, 435, 436, 437, 438, 439, 440, 441, 442, 443, 444, 445, 446, 447, 448, 449, 450, 451, 452, 453, 454, 455, 456, 457, 458, 459, 460, 461, 462, 463, 464, 465, 466, 467, 468, 469, 470, 471, 472, 473, 474, 475, 476, 477],
      "AcquisitionTime": ["200621.935000", "200623.425000", "200624.915000", "200626.405000", "200627.895000", "200629.385000", "200630.875000", "200632.365000", "200633.855000", "200635.345000", "200636.835000", "200638.325000", "200639.815000", "200641.305000", "200642.795000", "200644.285000", "200645.775000", "200647.265000", "200648.755000", "200650.245000", "200651.735000", "200653.225000", "200654.715000", "200656.205000", "200657.695000", "200659.185000", "200700.675000", "200702.165000", "200703.655000", "200705.145000", "200706.635000", "200708.125000", "200709.615000", "200711.105000", "200712.595000", "200714.085000", "200715.575000", "200717.065000", "200718.555000", "200720.045000", "200721.535000", "200723.025000", "200724.515000", "200726.005000", "200727.495000", "200728.985000", "200730.475000", "200731.965000", "200733.455000", "200734.945000", "200736.435000", "200737.925000", "200739.415000", "200740.905000", "200742.395000", "200743.885000", "200745.375000", "200746.865000", "200748.355000", "200749.845000", "200751.335000", "200752.825000", "200754.315000", "200755.805000", "200757.295000", "200758.785000", "200800.275000", "200801.765000", "200803.255000", "200804.745000", "200806.235000", "200807.725000", "200809.215000", "200810.705000", "200812.195000", "200813.685000", "200815.175000", "200816.665000", "200818.155000", "200819.645000", "200821.135000", "200822.625000", "200824.115000", "200825.605000", "200827.095000", "200828.585000", "200830.075000", "200831.565000", "200833.055000", "200834.545000", "200836.035000", "200837.525000", "200839.015000", "200840.505000", "200841.995000", "200843.485000", "200844.975000", "200846.465000", "200847.955000", "200849.445000", "200850.935000", "200852.425000", "200853.915000", "200855.405000", "200856.895000", "200858.385000", "200859.875000", "200901.365000", "200902.855000", "200904.345000", "200905.835000", "200907.325000", "200908.815000", "200910.305000", "200911.795000", "200913.285000", "200914.775000", "200916.265000", "200917.755000", "200919.245000", "200920.735000", "200922.225000", "200923.715000", "200925.205000", "200926.695000", "200928.185000", "200929.675000", "200931.165000", "200932.655000", "200934.145000", "200935.635000", "200937.125000", "200938.615000", "200940.105000", "200941.595000", "200943.085000", "200944.575000", "200946.065000", "200947.555000", "200949.045000", "200950.535000", "200952.025000", "200953.515000", "200955.005000", "200956.495000", "200957.985000", "200959.475000", "201000.965000", "201002.455000", "201003.945000", "201005.435000", "201006.925000", "201008.415000", "201009.905000", "201011.395000", "201012.885000", "201014.375000", "201015.865000", "201017.355000", "201018.845000", "201020.335000", "201021.825000", "201023.315000", "201024.805000", "201026.295000", "201027.785000", "201029.275000", "201030.765000", "201032.255000", "201033.745000", "201035.235000", "201036.725000", "201038.215000", "201039.705000", "201041.195000", "201042.685000", "201044.175000", "201045.665000", "201047.155000", "201048.645000", "201050.135000", "201051.625000", "201053.115000", "201054.605000", "201056.095000", "201057.585000", "201059.075000", "201100.565000", "201102.055000", "201103.545000", "201105.035000", "201106.525000", "201108.015000", "201109.505000", "201110.995000", "201112.485000", "201113.975000", "201115.465000", "201116.955000", "201118.445000", "201119.935000", "201121.425000", "201122.915000", "201124.405000", "201125.895000", "201127.385000", "201128.875000", "201130.365000", "201131.855000", "201133.345000", "201134.835000", "201136.325000", "201137.815000", "201139.305000", "201140.795000", "201142.285000", "201143.775000", "201145.265000", "201146.755000", "201148.245000", "201149.735000", "201151.225000", "201152.715000", "201154.205000", "201155.695000", "201157.185000", "201158.675000", "201200.165000", "201201.655000", "201203.145000", "201204.635000", "201206.125000", "201207.615000", "201209.105000", "201210.595000", "201212.085000", "201213.575000", "201215.065000", "201216.555000", "201218.045000", "201219.535000", "201221.025000", "201222.515000", "201224.005000", "201225.495000", "201226.985000", "201228.475000", "201229.965000", "201231.455000", "201232.945000", "201234.435000", "201235.925000", "201237.415000", "201238.905000", "201240.395000", "201241.885000", "201243.375000", "201244.865000", "201246.355000", "201247.845000", "201249.335000", "201250.825000", "201252.315000", "201253.805000", "201255.295000", "201256.785000", "201258.275000", "201259.765000", "201301.255000", "201302.745000", "201304.235000", "201305.725000", "201307.215000", "201308.705000", "201310.195000", "201311.685000", "201313.175000", "201314.665000", "201316.155000", "201317.645000", "201319.135000", "201320.625000", "201322.115000", "201323.605000", "201325.095000", "201326.585000", "201328.075000", "201329.565000", "201331.055000", "201332.545000", "201334.035000", "201335.525000", "201337.015000", "201338.505000", "201339.995000", "201341.485000", "201342.975000", "201344.465000", "201345.955000", "201347.445000", "201348.935000", "201350.425000", "201351.915000", "201353.405000", "201354.895000", "201356.385000", "201357.875000", "201359.365000", "201400.855000", "201402.345000", "201403.835000", "201405.325000", "201406.815000", "201408.305000", "201409.795000", "201411.285000", "201412.775000", "201414.265000", "201415.755000", "201417.245000", "201418.735000", "201420.225000", "201421.715000", "201423.205000", "201424.695000", "201426.185000", "201427.675000", "201429.165000", "201430.655000", "201432.145000", "201433.635000", "201435.125000", "201436.615000", "201438.105000", "201439.595000", "201441.085000", "201442.575000", "201444.065000", "201445.555000", "201447.045000", "201448.535000", "201450.025000", "201451.515000", "201453.005000", "201454.495000", "201455.985000", "201457.475000", "201458.965000", "201500.455000", "201501.945000", "201503.435000", "201504.925000", "201506.415000", "201507.905000", "201509.395000", "201510.885000", "201512.375000", "201513.865000", "201515.355000", "201516.845000", "201518.335000", "201519.825000", "201521.315000", "201522.805000", "201524.295000", "201525.785000", "201527.275000", "201528.765000", "201530.255000", "201531.745000", "201533.235000", "201534.725000", "201536.215000", "201537.705000", "201539.195000", "201540.685000", "201542.175000", "201543.665000", "201545.155000", "201546.645000", "201548.135000", "201549.625000", "201551.115000", "201552.605000", "201554.095000", "201555.585000", "201557.075000", "201558.565000", "201600.055000", "201601.545000", "201603.035000", "201604.525000", "201606.015000", "201607.505000", "201608.995000", "201610.485000", "201611.975000", "201613.465000", "201614.955000", "201616.445000", "201617.935000", "201619.425000", "201620.915000", "201622.405000", "201623.895000", "201625.385000", "201626.875000", "201628.365000", "201629.855000", "201631.345000", "201632.835000", "201634.325000", "201635.815000", "201637.305000", "201638.795000", "201640.285000", "201641.775000", "201643.265000", "201644.755000", "201646.245000", "201647.735000", "201649.225000", "201650.715000", "201652.205000", "201653.695000", "201655.185000", "201656.675000", "201658.165000", "201659.655000", "201701.145000", "201702.635000", "201704.125000", "201705.615000", "201707.105000", "201708.595000", "201710.085000", "201711.575000", "201713.065000", "201714.555000", "201716.045000", "201717.535000", "201719.025000", "201720.515000", "201722.005000", "201723.495000", "201724.985000", "201726.475000", "201727.965000", "201729.455000", "201730.945000", "201732.435000", "201733.925000", "201735.415000", "201736.905000", "201738.395000", "201739.885000", "201741.375000", "201742.865000", "201744.355000", "201745.845000", "201747.335000", "201748.825000", "201750.315000", "201751.805000", "201753.295000", "201754.785000", "201756.275000", "201757.765000", "201759.255000", "201800.745000", "201802.235000", "201803.725000", "201805.215000", "201806.705000", "201808.195000", "201809.685000", "201811.175000"],
      "ContentTime": ["200736.477000", "200736.481000", "200736.484000", "200736.487000", "200736.489000", "200736.492000", "200736.495000", "200736.498000", "200736.501000", "200736.504000", "200736.507000", "200736.513000", "200736.516000", "200736.525000", "200736.527000", "200736.530000", "200736.533000", "200736.536000", "200736.539000", "200736.542000", "200736.545000", "200756.434000", "200756.439000", "200756.442000", "200756.445000", "200756.448000", "200756.451000", "200756.453000", "200756.456000", "200756.459000", "200756.462000", "200756.465000", "200756.468000", "200756.471000", "200756.474000", "200756.476000", "200756.479000", "200756.483000", "200756.486000", "200756.489000", "200756.492000", "200816.433000", "200816.436000", "200816.439000", "200816.442000", "200816.445000", "200816.447000", "200816.450000", "200816.453000", "200816.456000", "200816.459000", "200816.462000", "200816.465000", "200816.467000", "200816.470000", "200816.473000", "200816.476000", "200816.479000", "200816.482000", "200816.492000", "200816.495000", "200836.434000", "200836.437000", "200836.440000", "200836.443000", "200836.446000", "200836.448000", "200836.451000", "200836.454000", "200836.457000", "200836.460000", "200836.463000", "200836.466000", "200836.468000", "200836.471000", "200836.474000", "200836.477000", "200836.480000", "200836.483000", "200836.486000", "200836.489000", "200856.434000", "200856.437000", "200856.440000", "200856.443000", "200856.446000", "200856.448000", "200856.451000", "200856.454000", "200856.457000", "200856.460000", "200856.463000", "200856.466000", "200856.469000", "200856.472000", "200856.475000", "200856.478000", "200856.480000", "200856.483000", "200856.486000", "200856.489000", "200936.434000", "200936.437000", "200936.440000", "200936.444000", "200936.448000", "200936.451000", "200936.455000", "200936.457000", "200936.460000", "200936.463000", "200936.466000", "200936.469000", "200936.472000", "200936.475000", "200936.477000", "200936.487000", "200936.490000", "200936.493000", "200936.512000", "200936.515000", "200936.518000", "200936.521000", "200936.523000", "200936.526000", "200936.529000", "200936.532000", "200936.535000", "200936.538000", "201016.434000", "201016.437000", "201016.440000", "201016.443000", "201016.446000", "201016.449000", "201016.452000", "201016.454000", "201016.457000", "201016.460000", "201016.463000", "201016.466000", "201016.469000", "201016.472000", "201016.474000", "201016.477000", "201016.480000", "201016.483000", "201016.486000", "201016.489000", "201016.492000", "201016.495000", "201016.497000", "201016.500000", "201016.503000", "201016.506000", "201016.509000", "201056.434000", "201056.437000", "201056.440000", "201056.443000", "201056.446000", "201056.449000", "201056.451000", "201056.454000", "201056.457000", "201056.460000", "201056.463000", "201056.466000", "201056.469000", "201056.472000", "201056.475000", "201056.478000", "201056.481000", "201056.484000", "201056.487000", "201056.490000", "201056.493000", "201056.496000", "201056.499000", "201056.502000", "201056.504000", "201056.507000", "201056.510000", "201136.434000", "201136.437000", "201136.440000", "201136.443000", "201136.446000", "201136.449000", "201136.451000", "201136.454000", "201136.457000", "201136.460000", "201136.463000", "201136.466000", "201136.469000", "201136.472000", "201136.474000", "201136.477000", "201136.480000", "201136.483000", "201136.486000", "201136.489000", "201136.492000", "201136.495000", "201136.498000", "201136.500000", "201136.503000", "201136.506000", "201136.509000", "201216.434000", "201216.437000", "201216.440000", "201216.443000", "201216.446000", "201216.449000", "201216.452000", "201216.455000", "201216.458000", "201216.460000", "201216.463000", "201216.466000", "201216.469000", "201216.472000", "201216.475000", "201216.478000", "201216.481000", "201216.484000", "201216.487000", "201216.489000", "201216.492000", "201216.495000", "201216.498000", "201216.501000", "201216.504000", "201216.507000", "201216.509000", "201256.433000", "201256.436000", "201256.439000", "201256.442000", "201256.445000", "201256.448000", "201256.450000", "201256.453000", "201256.456000", "201256.459000", "201256.462000", "201256.465000", "201256.468000", "201256.471000", "201256.474000", "201256.476000", "201256.479000", "201256.482000", "201256.485000", "201256.488000", "201256.491000", "201256.494000", "201256.497000", "201256.500000", "201256.503000", "201256.505000", "201256.508000", "201336.434000", "201336.437000", "201336.440000", "201336.443000", "201336.445000", "201336.448000", "201336.451000", "201336.454000", "201336.457000", "201336.460000", "201336.463000", "201336.466000", "201336.469000", "201336.471000", "201336.474000", "201336.477000", "201336.480000", "201336.483000", "201336.486000", "201336.489000", "201336.492000", "201336.495000", "201336.498000", "201336.500000", "201336.503000", "201336.506000", "201336.509000", "201416.434000", "201416.437000", "201416.440000", "201416.443000", "201416.446000", "201416.449000", "201416.452000", "201416.455000", "201416.457000", "201416.460000", "201416.463000", "201416.466000", "201416.469000", "201416.472000", "201416.475000", "201416.478000", "201416.481000", "201416.506000", "201416.509000", "201416.512000", "201416.515000", "201416.517000", "201416.520000", "201416.523000", "201416.526000", "201416.529000", "201456.434000", "201456.437000", "201456.440000", "201456.443000", "201456.446000", "201456.449000", "201456.451000", "201456.454000", "201456.457000", "201456.460000", "201456.463000", "201456.466000", "201456.469000", "201456.472000", "201456.475000", "201456.477000", "201456.480000", "201456.483000", "201456.486000", "201456.489000", "201456.492000", "201456.495000", "201456.498000", "201456.501000", "201456.503000", "201456.506000", "201456.509000", "201516.433000", "201516.436000", "201516.439000", "201516.442000", "201516.445000", "201516.448000", "201516.450000", "201516.453000", "201516.456000", "201516.459000", "201516.462000", "201516.465000", "201516.468000", "201516.470000", "201556.434000", "201556.437000", "201556.440000", "201556.443000", "201556.446000", "201556.449000", "201556.452000", "201556.454000", "201556.457000", "201556.460000", "201556.463000", "201556.466000", "201556.469000", "201556.472000", "201556.475000", "201556.477000", "201556.480000", "201556.483000", "201556.486000", "201556.489000", "201556.492000", "201556.495000", "201556.498000", "201556.501000", "201556.504000", "201556.506000", "201556.509000", "201636.434000", "201636.437000", "201636.440000", "201636.443000", "201636.446000", "201636.449000", "201636.452000", "201636.455000", "201636.457000", "201636.460000", "201636.463000", "201636.466000", "201636.469000", "201636.472000", "201636.475000", "201636.478000", "201636.481000", "201636.483000", "201636.487000", "201636.490000", "201636.493000", "201636.496000", "201636.499000", "201636.502000", "201636.504000", "201636.507000", "201716.434000", "201716.437000", "201716.440000", "201716.443000", "201716.446000", "201716.449000", "201716.452000", "201716.455000", "201716.458000", "201716.460000", "201716.463000", "201716.466000", "201716.469000", "201716.472000", "201716.475000", "201716.478000", "201716.481000", "201716.484000", "201716.487000", "201716.489000", "201716.492000", "201716.495000", "201716.498000", "201716.501000", "201716.504000", "201716.507000", "201716.510000", "201756.434000", "201756.437000", "201756.440000", "201756.443000", "201756.446000", "201756.449000", "201756.452000", "201756.455000", "201756.457000", "201756.460000", "201756.463000", "201756.466000", "201756.469000", "201756.472000", "201756.475000", "201756.478000", "201756.481000", "201756.484000", "201756.487000", "201756.490000", "201756.493000", "201756.495000", "201756.498000", "201756.501000", "201756.504000", "201756.507000", "201756.510000", "201813.521000", "201813.525000", "201813.527000", "201813.530000", "201813.533000", "201813.536000", "201813.539000", "201813.542000", "201813.545000", "201813.548000", "201813.551000", "201813.553000"],
