{
  "AcquisitionMatrixPE": 104,
  "AcquisitionNumber": 1,
  "AcquisitionTime": "19:18:9.847500",
  "BandwidthPerPixelPhaseEncode": 17.17,
  "BaseResolution": 104,
  "BodyPartExamined": "BRAIN",
  "CoilString": "HC1-7;NC1_2",
  "ConsistencyInfo": "N4_VE11C_LATEST_20160120",
  "ConversionSoftware": "dcm2niix",
  "ConversionSoftwareVersion": "v1.0.20190720  (JP2:OpenJPEG) GCC7.3.0",
  "DerivedVendorReportedEchoSpacing": 0.000560011,
  "DeviceSerialNumber": "167006",
  "DwellTime": 2.1e-06,
  "EchoTime": 0.037,
  "EchoTrainLength": 104,
  "EffectiveEchoSpacing": 0.000560011,
  "FlipAngle": 52,
  "ImageComments": "Unaliased_MB4_PE3_LB",
  "ImageOrientationPatientDICOM": [0.996352, -0.0847044, -0.0103784, 0.0754407, 0.931109, -0.356853],
  "ImageType": [
    "ORIGINAL",
    "PRIMARY",
    "M",
    "MB",
    "ND",
    "MOSAIC"
],
  "ImagingFrequency": 123.259,
  "InPlanePhaseEncodingDirectionDICOM": "COL",
  "InstitutionAddress": "Chemin_Queen-Mary_4565_Montreal_District_CA_H3W_1W5",
  "InstitutionName": "IUGM",
  "InstitutionalDepartmentName": "Department",
  "MRAcquisitionType": "2D",
  "MagneticFieldStrength": 3,
  "Manufacturer": "Siemens",
  "ManufacturersModelName": "Prisma_fit",
  "Modality": "MR",
  "MultibandAccelerationFactor": 4,
  "PartialFourier": 1,
  "PatientPosition": "HFS",
  "PercentPhaseFOV": 100,
  "PhaseEncodingDirection": "j",
  "PhaseEncodingSteps": 104,
  "PhaseResolution": 1,
  "PixelBandwidth": 2290,
  "ProcedureStepDescription": "video_friends",
  "ProtocolName": "func_task-friends-s01e19b",
  "PulseSequenceDetails": "%CustomerSeq%_cmrr_mbep2d_bold",
  "ReceiveCoilActiveElements": "HC1-7;NC1,2",
  "ReceiveCoilName": "HeadNeck_64",
  "ReconMatrixPE": 104,
  "RepetitionTime": 1.49,
  "SAR": 0.0322229,
  "ScanOptions": "FS",
  "ScanningSequence": "EP",
  "SequenceName": "epfid2d1_104",
  "SequenceVariant": "SK_SS",
  "SeriesDescription": "func_task-friends-s01e19b",
  "SeriesNumber": 17,
  "ShimSetting": [622, -7265, -8862, 381, 64, -440, 3, 45],
  "SliceThickness": 2,
  "SliceTiming": [0, 0.7825, 0.0975, 0.8825, 0.195, 0.98, 0.295, 1.0775, 0.3925, 1.175, 0.49, 1.2725, 0.5875, 1.3725, 0.685, 0, 0.7825, 0.0975, 0.8825, 0.195, 0.98, 0.295, 1.0775, 0.3925, 1.175, 0.49, 1.2725, 0.5875, 1.3725, 0.685, 0, 0.7825, 0.0975, 0.8825, 0.195, 0.98, 0.295, 1.0775, 0.3925, 1.175, 0.49, 1.2725, 0.5875, 1.3725, 0.685, 0, 0.7825, 0.0975, 0.8825, 0.195, 0.98, 0.295, 1.0775, 0.3925, 1.175, 0.49, 1.2725, 0.5875, 1.3725, 0.685],
  "SoftwareVersions": "syngo_MR_E11",
  "SpacingBetweenSlices": 2,
  "StationName": "MRC35049",
  "TaskName": "friends",
  "TotalReadoutTime": 0.0576811,
  "TxRefAmp": 232.646,
  "WipMemBlock": "018697cb-45e0-4cbc-acc4-d2273f5fe3d1||Sequence: R016 ve11c/master r/e634e98; Dec 19 2017 11:00:25 by eja",
  "dcmmeta_affine": [
    [-1.992704153060913, 0.15088145434856415, -0.07978096604347229, 93.45552062988281],
    [0.1694088727235794, 1.8622186183929443, -0.7095369100570679, -79.00889587402344],
    [-0.02075681835412979, 0.7137063145637512, 1.8682056665420532, -73.73194885253906],
    [0.0, 0.0, 0.0, 1.0]
],
  "dcmmeta_reorient_transform": [
    [0.0, -1.0, 0.0, 103.0],
    [1.0, 0.0, 0.0, 0.0],
    [0.0, 0.0, 1.0, 0.0],
    [0.0, 0.0, 0.0, 1.0]
],
  "dcmmeta_shape": [104, 104, 60, 460],
  "dcmmeta_slice_dim": 2,
  "dcmmeta_version": 0.6,
  "global": {
    "const": {
      "AcquisitionMatrix": [104, 0, 0, 104],
      "AngioFlag": "N",
      "BitsAllocated": 16,
      "BitsStored": 16,
      "BodyPartExamined": "BRAIN",
      "Columns": 832,
      "EchoNumbers": 1,
      "EchoTime": 37.0,
      "EchoTrainLength": 104,
      "FlipAngle": 52.0,
      "HighBit": 15,
      "ImageOrientationPatient": [0.99635206957457, -0.0847044394905, -0.0103784095633, 0.07544072490873, 0.93110929235096, -0.3568531668949],
      "ImagePositionPatient": [-889.26146121509, -728.98234946647, 267.12439439157],
      "ImageType": [
        "ORIGINAL",
        "PRIMARY",
        "M",
        "MB",
        "ND",
        "MOSAIC"
],
      "ImagedNucleus": "1H",
      "ImagingFrequency": 123.259462,
      "InPlanePhaseEncodingDirection": "COL",
      "MRAcquisitionType": "2D",
      "MagneticFieldStrength": 3.0,
      "Manufacturer": "SIEMENS",
      "ManufacturerModelName": "Prisma_fit",
      "Modality": "MR",
      "NumberOfAverages": 1.0,
      "NumberOfPhaseEncodingSteps": 104,
      "PercentPhaseFieldOfView": 100.0,
      "PercentSampling": 100.0,
      "PerformedProcedureStepStartTime": "180642.828000",
      "PhotometricInterpretation": "MONOCHROME2",
      "PixelBandwidth": 2290.0,
      "PixelRepresentation": 0,
      "PixelSpacing": [2.0, 2.0],
      "ProtocolName": "func_task-friends-s01e19b",
      "RepetitionTime": 1490.0,
      "Rows": 832,
      "SAR": 0.03222290552949,
      "SamplesPerPixel": 1,
      "ScanOptions": "FS",
      "ScanningSequence": "EP",
      "SequenceName": "epfid2d1_104",
      "SequenceVariant": [
        "SK",
        "SS"
],
      "SeriesDescription": "func_task-friends-s01e19b",
      "SeriesNumber": 17,
      "SeriesTime": "191941.239000",
      "SliceLocation": -44.571341899591,
      "SliceThickness": 2.0,
      "SmallestImagePixelValue": 0,
      "SoftwareVersions": "syngo MR E11",
      "SpacingBetweenSlices": 2.0000000243065,
      "SpecificCharacterSet": "ISO_IR 100",
      "StudyID": "1",
      "StudyTime": "180642.764000",
      "TransmitCoilName": "Body",
      "VariableFlipAngleFlag": "N",
      "WindowCenterWidthExplanation": "Algo1",
      "dBdt": 0.0},
    "slices": {}
  },
  "time": {
    "samples": {
      "AcquisitionNumber": [1, 2, 3, 4, 5, 6, 7, 8, 9, 10, 11, 12, 13, 14, 15, 16, 17, 18, 19, 20, 21, 22, 23, 24, 25, 26, 27, 28, 29, 30, 31, 32, 33, 34, 35, 36, 37, 38, 39, 40, 41, 42, 43, 44, 45, 46, 47, 48, 49, 50, 51, 52, 53, 54, 55, 56, 57, 58, 59, 60, 61, 62, 63, 64, 65, 66, 67, 68, 69, 70, 71, 72, 73, 74, 75, 76, 77, 78, 79, 80, 81, 82, 83, 84, 85, 86, 87, 88, 89, 90, 91, 92, 93, 94, 95, 96, 97, 98, 99, 100, 101, 102, 103, 104, 105, 106, 107, 108, 109, 110, 111, 112, 113, 114, 115, 116, 117, 118, 119, 120, 121, 122, 123, 124, 125, 126, 127, 128, 129, 130, 131, 132, 133, 134, 135, 136, 137, 138, 139, 140, 141, 142, 143, 144, 145, 146, 147, 148, 149, 150, 151, 152, 153, 154, 155, 156, 157, 158, 159, 160, 161, 162, 163, 164, 165, 166, 167, 168, 169, 170, 171, 172, 173, 174, 175, 176, 177, 178, 179, 180, 181, 182, 183, 184, 185, 186, 187, 188, 189, 190, 191, 192, 193, 194, 195, 196, 197, 198, 199, 200, 201, 202, 203, 204, 205, 206, 207, 208, 209, 210, 211, 212, 213, 214, 215, 216, 217, 218, 219, 220, 221, 222, 223, 224, 225, 226, 227, 228, 229, 230, 231, 232, 233, 234, 235, 236, 237, 238, 239, 240, 241, 242, 243, 244, 245, 246, 247, 248, 249, 250, 251, 252, 253, 254, 255, 256, 257, 258, 259, 260, 261, 262, 263, 264, 265, 266, 267, 268, 269, 270, 271, 272, 273, 274, 275, 276, 277, 278, 279, 280, 281, 282, 283, 284, 285, 286, 287, 288, 289, 290, 291, 292, 293, 294, 295, 296, 297, 298, 299, 300, 301, 302, 303, 304, 305, 306, 307, 308, 309, 310, 311, 312, 313, 314, 315, 316, 317, 318, 319, 320, 321, 322, 323, 324, 325, 326, 327, 328, 329, 330, 331, 332, 333, 334, 335, 336, 337, 338, 339, 340, 341, 342, 343, 344, 345, 346, 347, 348, 349, 350, 351, 352, 353, 354, 355, 356, 357, 358, 359, 360, 361, 362, 363, 364, 365, 366, 367, 368, 369, 370, 371, 372, 373, 374, 375, 376, 377, 378, 379, 380, 381, 382, 383, 384, 385, 386, 387, 388, 389, 390, 391, 392, 393, 394, 395, 396, 397, 398, 399, 400, 401, 402, 403, 404, 405, 406, 407, 408, 409, 410, 411, 412, 413, 414, 415, 416, 417, 418, 419, 420, 421, 422, 423, 424, 425, 426, 427, 428, 429, 430, 431, 432, 433, 434, 435, 436, 437, 438, 439, 440, 441, 442, 443, 444, 445, 446, 447, 448, 449, 450, 451, 452, 453, 454, 455, 456, 457, 458, 459, 460],
      "AcquisitionTime": ["191809.847500", "191811.337500", "191812.827500", "191814.317500", "191815.807500", "191817.297500", "191818.787500", "191820.277500", "191821.767500", "191823.257500", "191824.747500", "191826.237500", "191827.727500", "191829.217500", "191830.707500", "191832.197500", "191833.687500", "191835.177500", "191836.667500", "191838.157500", "191839.647500", "191841.137500", "191842.627500", "191844.117500", "191845.607500", "191847.097500", "191848.587500", "191850.077500", "191851.567500", "191853.057500", "191854.547500", "191856.037500", "191857.527500", "191859.017500", "191900.507500", "191901.997500", "191903.487500", "191904.977500", "191906.467500", "191907.957500", "191909.447500", "191910.937500", "191912.427500", "191913.917500", "191915.407500", "191916.897500", "191918.387500", "191919.877500", "191921.367500", "191922.857500", "191924.347500", "191925.837500", "191927.327500", "191928.817500", "191930.307500", "191931.797500", "191933.287500", "191934.777500", "191936.267500", "191937.757500", "191939.247500", "191940.737500", "191942.227500", "191943.717500", "191945.207500", "191946.697500", "191948.187500", "191949.677500", "191951.167500", "191952.657500", "191954.147500", "191955.637500", "191957.127500", "191958.617500", "192000.107500", "192001.597500", "192003.087500", "192004.577500", "192006.067500", "192007.557500", "192009.047500", "192010.537500", "192012.027500", "192013.517500", "192015.007500", "192016.497500", "192017.987500", "192019.477500", "192020.967500", "192022.457500", "192023.947500", "192025.437500", "192026.927500", "192028.417500", "192029.907500", "192031.397500", "192032.887500", "192034.377500", "192035.867500", "192037.357500", "192038.847500", "192040.337500", "192041.827500", "192043.317500", "192044.807500", "192046.297500", "192047.787500", "192049.277500", "192050.767500", "192052.257500", "192053.747500", "192055.237500", "192056.727500", "192058.217500", "192059.707500", "192101.197500", "192102.687500", "192104.177500", "192105.667500", "192107.157500", "192108.647500", "192110.137500", "192111.627500", "192113.117500", "192114.607500", "192116.097500", "192117.587500", "192119.077500", "192120.567500", "192122.057500", "192123.547500", "192125.037500", "192126.527500", "192128.017500", "192129.507500", "192130.997500", "192132.487500", "192133.977500", "192135.467500", "192136.957500", "192138.447500", "192139.937500", "192141.427500", "192142.917500", "192144.407500", "192145.897500", "192147.387500", "192148.877500", "192150.367500", "192151.857500", "192153.347500", "192154.837500", "192156.327500", "192157.817500", "192159.307500", "192200.797500", "192202.287500", "192203.777500", "192205.267500", "192206.757500", "192208.247500", "192209.737500", "192211.227500", "192212.717500", "192214.207500", "192215.697500", "192217.187500", "192218.677500", "192220.167500", "192221.657500", "192223.147500", "192224.637500", "192226.127500", "192227.617500", "192229.107500", "192230.597500", "192232.087500", "192233.577500", "192235.067500", "192236.557500", "192238.047500", "192239.537500", "192241.027500", "192242.517500", "192244.007500", "192245.497500", "192246.987500", "192248.477500", "192249.967500", "192251.457500", "192252.947500", "192254.437500", "192255.927500", "192257.417500", "192258.907500", "192300.397500", "192301.887500", "192303.377500", "192304.867500", "192306.357500", "192307.847500", "192309.337500", "192310.827500", "192312.317500", "192313.807500", "192315.297500", "192316.787500", "192318.277500", "192319.767500", "192321.257500", "192322.747500", "192324.237500", "192325.727500", "192327.217500", "192328.707500", "192330.197500", "192331.687500", "192333.177500", "192334.667500", "192336.157500", "192337.647500", "192339.137500", "192340.627500", "192342.117500", "192343.607500", "192345.097500", "192346.587500", "192348.077500", "192349.567500", "192351.057500", "192352.547500", "192354.037500", "192355.527500", "192357.017500", "192358.507500", "192359.997500", "192401.487500", "192402.977500", "192404.467500", "192405.957500", "192407.447500", "192408.937500", "192410.427500", "192411.917500", "192413.407500", "192414.897500", "192416.387500", "192417.877500", "192419.367500", "192420.857500", "192422.347500", "192423.837500", "192425.327500", "192426.817500", "192428.307500", "192429.797500", "192431.287500", "192432.777500", "192434.267500", "192435.757500", "192437.247500", "192438.737500", "192440.227500", "192441.717500", "192443.207500", "192444.697500", "192446.187500", "192447.677500", "192449.167500", "192450.657500", "192452.147500", "192453.637500", "192455.127500", "192456.617500", "192458.107500", "192459.597500", "192501.087500", "192502.577500", "192504.067500", "192505.557500", "192507.047500", "192508.537500", "192510.027500", "192511.517500", "192513.007500", "192514.497500", "192515.987500", "192517.477500", "192518.967500", "192520.457500", "192521.947500", "192523.437500", "192524.927500", "192526.417500", "192527.907500", "192529.397500", "192530.887500", "192532.377500", "192533.867500", "192535.357500", "192536.847500", "192538.337500", "192539.827500", "192541.317500", "192542.807500", "192544.297500", "192545.787500", "192547.277500", "192548.767500", "192550.257500", "192551.747500", "192553.237500", "192554.727500", "192556.217500", "192557.707500", "192559.197500", "192600.687500", "192602.177500", "192603.667500", "192605.157500", "192606.647500", "192608.137500", "192609.627500", "192611.117500", "192612.607500", "192614.097500", "192615.587500", "192617.077500", "192618.567500", "192620.057500", "192621.547500", "192623.037500", "192624.527500", "192626.017500", "192627.507500", "192628.997500", "192630.487500", "192631.977500", "192633.467500", "192634.957500", "192636.447500", "192637.937500", "192639.427500", "192640.917500", "192642.407500", "192643.897500", "192645.387500", "192646.877500", "192648.367500", "192649.857500", "192651.347500", "192652.837500", "192654.327500", "192655.817500", "192657.307500", "192658.797500", "192700.287500", "192701.777500", "192703.267500", "192704.757500", "192706.247500", "192707.737500", "192709.227500", "192710.717500", "192712.207500", "192713.697500", "192715.187500", "192716.677500", "192718.167500", "192719.657500", "192721.147500", "192722.637500", "192724.127500", "192725.617500", "192727.107500", "192728.597500", "192730.087500", "192731.577500", "192733.067500", "192734.557500", "192736.047500", "192737.537500", "192739.027500", "192740.517500", "192742.007500", "192743.497500", "192744.987500", "192746.477500", "192747.967500", "192749.457500", "192750.947500", "192752.437500", "192753.927500", "192755.417500", "192756.907500", "192758.397500", "192759.887500", "192801.377500", "192802.867500", "192804.357500", "192805.847500", "192807.337500", "192808.827500", "192810.317500", "192811.807500", "192813.297500", "192814.787500", "192816.277500", "192817.767500", "192819.257500", "192820.747500", "192822.237500", "192823.727500", "192825.217500", "192826.707500", "192828.197500", "192829.687500", "192831.177500", "192832.667500", "192834.157500", "192835.647500", "192837.137500", "192838.627500", "192840.117500", "192841.607500", "192843.097500", "192844.587500", "192846.077500", "192847.567500", "192849.057500", "192850.547500", "192852.037500", "192853.527500", "192855.017500", "192856.507500", "192857.997500", "192859.487500", "192900.977500", "192902.467500", "192903.957500", "192905.447500", "192906.937500", "192908.427500", "192909.917500", "192911.407500", "192912.897500", "192914.387500", "192915.877500", "192917.367500", "192918.857500", "192920.347500", "192921.837500", "192923.327500", "192924.817500", "192926.307500", "192927.797500", "192929.287500", "192930.777500", "192932.267500", "192933.757500"],
      "ContentTime": ["191941.242000", "191941.251000", "191941.254000", "191941.257000", "191941.260000", "191941.263000", "191941.266000", "191941.269000", "191941.271000", "191941.274000", "191941.277000", "191941.280000", "191941.283000", "191941.286000", "191941.289000", "191941.292000", "191941.295000", "191941.298000", "191941.301000", "191941.304000", "191941.306000", "191941.309000", "191941.312000", "191941.315000", "191941.318000", "191941.321000", "191941.324000", "191941.327000", "191941.330000", "191941.333000", "191941.336000", "191941.339000", "191941.341000", "191941.344000", "191941.350000", "191941.353000", "191941.356000", "192001.203000", "192001.206000", "192001.209000", "192001.212000", "192001.215000", "192001.218000", "192001.221000", "192001.224000", "192001.226000", "192001.229000", "192001.232000", "192001.235000", "192001.249000", "192001.252000", "192001.255000", "192001.258000", "192001.260000", "192001.263000", "192001.266000", "192001.269000", "192021.203000", "192021.206000", "192021.209000", "192021.212000", "192021.215000", "192021.218000", "192021.221000", "192021.223000", "192021.226000", "192021.229000", "192021.232000", "192021.235000", "192021.238000", "192021.241000", "192021.244000", "192021.247000", "192021.250000", "192021.253000", "192021.256000", "192021.258000", "192041.203000", "192041.206000", "192041.209000", "192041.212000", "192041.215000", "192041.218000", "192041.221000", "192041.224000", "192041.226000", "192041.229000", "192041.232000", "192041.235000", "192041.238000", "192041.241000", "192041.244000", "192041.247000", "192041.250000", "192041.254000", "192041.257000", "192041.260000", "192121.203000", "192121.206000", "192121.209000", "192121.212000", "192121.215000", "192121.218000", "192121.220000", "192121.224000", "192121.226000", "192121.229000", "192121.232000", "192121.235000", "192121.238000", "192121.241000", "192121.244000", "192121.247000", "192121.250000", "192121.253000", "192121.256000", "192121.259000", "192121.261000", "192121.264000", "192121.279000", "192121.282000", "192121.285000", "192121.287000", "192121.290000", "192121.293000", "192121.296000", "192121.299000", "192121.302000", "192201.203000", "192201.206000", "192201.209000", "192201.212000", "192201.215000", "192201.219000", "192201.222000", "192201.225000", "192201.228000", "192201.230000", "192201.233000", "192201.236000", "192201.239000", "192201.242000", "192201.245000", "192201.248000", "192201.251000", "192201.254000", "192201.256000", "192201.259000", "192201.262000", "192201.265000", "192201.268000", "192201.271000", "192201.274000", "192201.277000", "192241.203000", "192241.206000", "192241.209000", "192241.212000", "192241.215000", "192241.218000", "192241.221000", "192241.224000", "192241.227000", "192241.230000", "192241.232000", "192241.235000", "192241.238000", "192241.241000", "192241.244000", "192241.247000", "192241.250000", "192241.253000", "192241.264000", "192241.267000", "192241.270000", "192241.273000", "192241.275000", "192241.278000", "192241.281000", "192241.284000", "192241.287000", "192321.203000", "192321.206000", "192321.209000", "192321.212000", "192321.215000", "192321.218000", "192321.221000", "192321.224000", "192321.227000", "192321.230000", "192321.233000", "192321.235000", "192321.238000", "192321.242000", "192321.245000", "192321.248000", "192321.251000", "192321.254000", "192321.257000", "192321.260000", "192321.263000", "192321.266000", "192321.269000", "192321.272000", "192321.274000", "192321.277000", "192321.280000", "192401.203000", "192401.206000", "192401.209000", "192401.212000", "192401.215000", "192401.218000", "192401.221000", "192401.224000", "192401.226000", "192401.230000", "192401.232000", "192401.235000", "192401.238000", "192401.241000", "192401.244000", "192401.247000", "192401.250000", "192401.253000", "192401.260000", "192401.263000", "192401.266000", "192401.269000", "192401.272000", "192401.275000", "192401.278000", "192401.281000", "192401.283000", "192441.203000", "192441.206000", "192441.209000", "192441.212000", "192441.215000", "192441.218000", "192441.221000", "192441.224000", "192441.227000", "192441.230000", "192441.232000", "192441.235000", "192441.238000", "192441.241000", "192441.244000", "192441.247000", "192441.250000", "192441.253000", "192441.256000", "192441.259000", "192441.262000", "192441.265000", "192441.268000", "192441.271000", "192441.274000", "192441.277000", "192441.280000", "192521.203000", "192521.206000", "192521.209000", "192521.212000", "192521.215000", "192521.218000", "192521.221000", "192521.224000", "192521.227000", "192521.229000", "192521.232000", "192521.235000", "192521.238000", "192521.241000", "192521.244000", "192521.247000", "192521.250000", "192521.253000", "192521.256000", "192521.259000", "192521.262000", "192521.264000", "192521.267000", "192521.270000", "192521.273000", "192521.276000", "192521.279000", "192601.202000", "192601.205000", "192601.208000", "192601.211000", "192601.214000", "192601.217000", "192601.220000", "192601.224000", "192601.228000", "192601.231000", "192601.234000", "192601.237000", "192601.240000", "192601.243000", "192601.246000", "192601.249000", "192601.251000", "192601.254000", "192601.257000", "192601.271000", "192601.274000", "192601.277000", "192601.280000", "192601.283000", "192601.286000", "192601.289000", "192641.203000", "192641.206000", "192641.209000", "192641.212000", "192641.215000", "192641.218000", "192641.221000", "192641.224000", "192641.227000", "192641.230000", "192641.233000", "192641.235000", "192641.238000", "192641.241000", "192641.244000", "192641.247000", "192641.250000", "192641.253000", "192641.256000", "192641.259000", "192641.261000", "192641.264000", "192641.267000", "192641.270000", "192641.273000", "192641.276000", "192641.279000", "192721.203000", "192721.206000", "192721.209000", "192721.212000", "192721.215000", "192721.218000", "192721.221000", "192721.224000", "192721.227000", "192721.230000", "192721.233000", "192721.236000", "192721.238000", "192721.241000", "192721.244000", "192721.247000", "192721.250000", "192721.253000", "192721.256000", "192721.259000", "192721.262000", "192721.265000", "192721.268000", "192721.270000", "192721.273000", "192721.276000", "192721.279000", "192801.203000", "192801.206000", "192801.209000", "192801.212000", "192801.215000", "192801.218000", "192801.221000", "192801.224000", "192801.227000", "192801.230000", "192801.233000", "192801.236000", "192801.239000", "192801.242000", "192801.245000", "192801.248000", "192801.251000", "192801.254000", "192801.256000", "192801.259000", "192801.262000", "192801.265000", "192801.268000", "192801.271000", "192801.274000", "192801.277000", "192801.280000", "192841.203000", "192841.207000", "192841.210000", "192841.213000", "192841.216000", "192841.219000", "192841.222000", "192841.225000", "192841.228000", "192841.231000", "192841.234000", "192841.237000", "192841.240000", "192841.243000", "192841.246000", "192841.249000", "192841.252000", "192841.255000", "192841.257000", "192841.260000", "192841.263000", "192841.266000", "192841.269000", "192841.272000", "192841.275000", "192841.278000", "192841.281000", "192921.203000", "192921.206000", "192921.209000", "192921.212000", "192921.215000", "192921.218000", "192921.221000", "192921.224000", "192921.227000", "192921.230000", "192921.233000", "192921.236000", "192921.239000", "192921.241000", "192921.244000", "192921.247000", "192921.250000", "192921.253000", "192921.256000", "192921.259000", "192921.262000", "192921.265000", "192921.268000", "192921.271000", "192921.274000", "192921.277000", "192921.279000", "192935.855000", "192935.859000", "192935.861000", "192935.864000", "192935.871000", "192935.874000", "192935.877000", "192935.880000", "192935.883000", "192935.886000"],
