{
  "AcquisitionMatrixPE": 104,
  "AcquisitionNumber": 1,
  "AcquisitionTime": "11:27:12.677500",
  "BandwidthPerPixelPhaseEncode": 17.17,
  "BaseResolution": 104,
  "BodyPartExamined": "BRAIN",
  "CoilString": "HC1-7;NC1_2",
  "ConsistencyInfo": "N4_VE11C_LATEST_20160120",
  "ConversionSoftware": "dcm2niix",
  "ConversionSoftwareVersion": "v1.0.20190720  (JP2:OpenJPEG) GCC7.3.0",
  "DerivedVendorReportedEchoSpacing": 0.000560011,
  "DeviceSerialNumber": "167006",
  "DwellTime": 2.1e-06,
  "EchoTime": 0.037,
  "EchoTrainLength": 104,
  "EffectiveEchoSpacing": 0.000560011,
  "FlipAngle": 52,
  "ImageComments": "Unaliased_MB4_PE3_LB",
  "ImageOrientationPatientDICOM": [0.997502, 0.0593624, 0.0382744, -0.0419821, 0.934078, -0.354593],
  "ImageType": [
    "ORIGINAL",
    "PRIMARY",
    "M",
    "MB",
    "ND",
    "MOSAIC"
],
  "ImagingFrequency": 123.259,
  "InPlanePhaseEncodingDirectionDICOM": "COL",
  "InstitutionAddress": "Chemin_Queen-Mary_4565_Montreal_District_CA_H3W_1W5",
  "InstitutionName": "IUGM",
  "InstitutionalDepartmentName": "Department",
  "MRAcquisitionType": "2D",
  "MagneticFieldStrength": 3,
  "Manufacturer": "Siemens",
  "ManufacturersModelName": "Prisma_fit",
  "Modality": "MR",
  "MultibandAccelerationFactor": 4,
  "PartialFourier": 1,
  "PatientPosition": "HFS",
  "PercentPhaseFOV": 100,
  "PhaseEncodingDirection": "j",
  "PhaseEncodingSteps": 104,
  "PhaseResolution": 1,
  "PixelBandwidth": 2290,
  "ProcedureStepDescription": "video_friends",
  "ProtocolName": "func_task-s01e02a",
  "PulseSequenceDetails": "%CustomerSeq%_cmrr_mbep2d_bold",
  "ReceiveCoilActiveElements": "HC1-7;NC1,2",
  "ReceiveCoilName": "HeadNeck_64",
  "ReconMatrixPE": 104,
  "RepetitionTime": 1.49,
  "SAR": 0.0383981,
  "ScanOptions": "FS",
  "ScanningSequence": "EP",
  "SequenceName": "epfid2d1_104",
  "SequenceVariant": "SK_SS",
  "SeriesDescription": "func_task-s01e02a",
  "SeriesNumber": 14,
  "ShimSetting": [639, -7202, -8827, 719, 124, -21, 1, -22],
  "SliceThickness": 2,
  "SliceTiming": [0, 0.7825, 0.0975, 0.88, 0.195, 0.98, 0.2925, 1.0775, 0.39, 1.175, 0.49, 1.2725, 0.5875, 1.37, 0.685, 0, 0.7825, 0.0975, 0.88, 0.195, 0.98, 0.2925, 1.0775, 0.39, 1.175, 0.49, 1.2725, 0.5875, 1.37, 0.685, 0, 0.7825, 0.0975, 0.88, 0.195, 0.98, 0.2925, 1.0775, 0.39, 1.175, 0.49, 1.2725, 0.5875, 1.37, 0.685, 0, 0.7825, 0.0975, 0.88, 0.195, 0.98, 0.2925, 1.0775, 0.39, 1.175, 0.49, 1.2725, 0.5875, 1.37, 0.685],
  "SoftwareVersions": "syngo_MR_E11",
  "SpacingBetweenSlices": 2,
  "StationName": "MRC35049",
  "TaskName": "friends",
  "TotalReadoutTime": 0.0576811,
  "TxRefAmp": 246.432,
  "WipMemBlock": "60f8628f-854d-4bd2-9886-7dc40e156a62||Sequence: R016 ve11c/master r/e634e98; Dec 19 2017 11:00:25 by eja",
  "dcmmeta_affine": [
    [-1.9950048923492432, -0.08396422863006592, 0.11360155045986176, 105.41881561279297],
    [-0.1187247633934021, 1.8681559562683105, -0.7042001485824585, -62.526145935058594],
    [0.07654888927936554, 0.7091850638389587, 1.8684744834899902, -66.90298461914062],
    [0.0, 0.0, 0.0, 1.0]
],
  "dcmmeta_reorient_transform": [
    [0.0, -1.0, 0.0, 103.0],
    [1.0, 0.0, 0.0, 0.0],
    [0.0, 0.0, 1.0, 0.0],
    [0.0, 0.0, 0.0, 1.0]
],
  "dcmmeta_shape": [104, 104, 60, 472],
  "dcmmeta_slice_dim": 2,
  "dcmmeta_version": 0.6,
  "global": {
    "const": {
      "AcquisitionMatrix": [104, 0, 0, 104],
      "AngioFlag": "N",
      "BitsAllocated": 16,
      "BitsStored": 16,
      "BodyPartExamined": "BRAIN",
      "Columns": 832,
      "EchoNumbers": 1,
      "EchoTime": 37.0,
      "EchoTrainLength": 104,
      "FlipAngle": 52.0,
      "HighBit": 15,
      "ImageOrientationPatient": [0.99750246833527, 0.05936238327832, 0.03827444469307, -0.0419821141674, 0.93407796655556, -0.3545925189361],
      "ImagePositionPatient": [-792.38931962213, -853.11849143837, 236.42263424543],
      "ImageType": [
        "ORIGINAL",
        "PRIMARY",
        "M",
        "MB",
        "ND",
        "MOSAIC"
],
      "ImagedNucleus": "1H",
      "ImagingFrequency": 123.259145,
      "InPlanePhaseEncodingDirection": "COL",
      "MRAcquisitionType": "2D",
      "MagneticFieldStrength": 3.0,
      "Manufacturer": "SIEMENS",
      "ManufacturerModelName": "Prisma_fit",
      "Modality": "MR",
      "NumberOfAverages": 1.0,
      "NumberOfPhaseEncodingSteps": 104,
      "PercentPhaseFieldOfView": 100.0,
      "PercentSampling": 100.0,
      "PerformedProcedureStepStartTime": "102747.635000",
      "PhotometricInterpretation": "MONOCHROME2",
      "PixelBandwidth": 2290.0,
      "PixelRepresentation": 0,
      "PixelSpacing": [2.0, 2.0],
      "ProtocolName": "func_task-s01e02a",
      "RepetitionTime": 1490.0,
      "Rows": 832,
      "SAR": 0.03839806751426,
      "SamplesPerPixel": 1,
      "ScanOptions": "FS",
      "ScanningSequence": "EP",
      "SequenceName": "epfid2d1_104",
      "SequenceVariant": [
        "SK",
        "SS"
],
      "SeriesDescription": "func_task-s01e02a",
      "SeriesNumber": 14,
      "SeriesTime": "112839.184000",
      "SliceLocation": -34.499927506096,
      "SliceThickness": 2.0,
      "SmallestImagePixelValue": 0,
      "SoftwareVersions": "syngo MR E11",
      "SpacingBetweenSlices": 2.0000000366881,
      "SpecificCharacterSet": "ISO_IR 100",
      "StudyID": "1",
      "StudyTime": "102747.562000",
      "TransmitCoilName": "Body",
      "VariableFlipAngleFlag": "N",
      "WindowCenterWidthExplanation": "Algo1",
      "dBdt": 0.0},
    "slices": {}
  },
  "time": {
    "samples": {
      "AcquisitionNumber": [1, 2, 3, 4, 5, 6, 7, 8, 9, 10, 11, 12, 13, 14, 15, 16, 17, 18, 19, 20, 21, 22, 23, 24, 25, 26, 27, 28, 29, 30, 31, 32, 33, 34, 35, 36, 37, 38, 39, 40, 41, 42, 43, 44, 45, 46, 47, 48, 49, 50, 51, 52, 53, 54, 55, 56, 57, 58, 59, 60, 61, 62, 63, 64, 65, 66, 67, 68, 69, 70, 71, 72, 73, 74, 75, 76, 77, 78, 79, 80, 81, 82, 83, 84, 85, 86, 87, 88, 89, 90, 91, 92, 93, 94, 95, 96, 97, 98, 99, 100, 101, 102, 103, 104, 105, 106, 107, 108, 109, 110, 111, 112, 113, 114, 115, 116, 117, 118, 119, 120, 121, 122, 123, 124, 125, 126, 127, 128, 129, 130, 131, 132, 133, 134, 135, 136, 137, 138, 139, 140, 141, 142, 143, 144, 145, 146, 147, 148, 149, 150, 151, 152, 153, 154, 155, 156, 157, 158, 159, 160, 161, 162, 163, 164, 165, 166, 167, 168, 169, 170, 171, 172, 173, 174, 175, 176, 177, 178, 179, 180, 181, 182, 183, 184, 185, 186, 187, 188, 189, 190, 191, 192, 193, 194, 195, 196, 197, 198, 199, 200, 201, 202, 203, 204, 205, 206, 207, 208, 209, 210, 211, 212, 213, 214, 215, 216, 217, 218, 219, 220, 221, 222, 223, 224, 225, 226, 227, 228, 229, 230, 231, 232, 233, 234, 235, 236, 237, 238, 239, 240, 241, 242, 243, 244, 245, 246, 247, 248, 249, 250, 251, 252, 253, 254, 255, 256, 257, 258, 259, 260, 261, 262, 263, 264, 265, 266, 267, 268, 269, 270, 271, 272, 273, 274, 275, 276, 277, 278, 279, 280, 281, 282, 283, 284, 285, 286, 287, 288, 289, 290, 291, 292, 293, 294, 295, 296, 297, 298, 299, 300, 301, 302, 303, 304, 305, 306, 307, 308, 309, 310, 311, 312, 313, 314, 315, 316, 317, 318, 319, 320, 321, 322, 323, 324, 325, 326, 327, 328, 329, 330, 331, 332, 333, 334, 335, 336, 337, 338, 339, 340, 341, 342, 343, 344, 345, 346, 347, 348, 349, 350, 351, 352, 353, 354, 355, 356, 357, 358, 359, 360, 361, 362, 363, 364, 365, 366, 367, 368, 369, 370, 371, 372, 373, 374, 375, 376, 377, 378, 379, 380, 381, 382, 383, 384, 385, 386, 387, 388, 389, 390, 391, 392, 393, 394, 395, 396, 397, 398, 399, 400, 401, 402, 403, 404, 405, 406, 407, 408, 409, 410, 411, 412, 413, 414, 415, 416, 417, 418, 419, 420, 421, 422, 423, 424, 425, 426, 427, 428, 429, 430, 431, 432, 433, 434, 435, 436, 437, 438, 439, 440, 441, 442, 443, 444, 445, 446, 447, 448, 449, 450, 451, 452, 453, 454, 455, 456, 457, 458, 459, 460, 461, 462, 463, 464, 465, 466, 467, 468, 469, 470, 471, 472],
      "AcquisitionTime": ["112712.677500", "112714.167500", "112715.657500", "112717.147500", "112718.637500", "112720.127500", "112721.617500", "112723.107500", "112724.597500", "112726.087500", "112727.577500", "112729.067500", "112730.557500", "112732.047500", "112733.537500", "112735.027500", "112736.517500", "112738.007500", "112739.497500", "112740.987500", "112742.477500", "112743.967500", "112745.457500", "112746.947500", "112748.437500", "112749.927500", "112751.417500", "112752.907500", "112754.397500", "112755.887500", "112757.377500", "112758.867500", "112800.357500", "112801.847500", "112803.337500", "112804.827500", "112806.317500", "112807.807500", "112809.297500", "112810.787500", "112812.277500", "112813.767500", "112815.257500", "112816.747500", "112818.237500", "112819.727500", "112821.217500", "112822.707500", "112824.197500", "112825.687500", "112827.177500", "112828.667500", "112830.157500", "112831.647500", "112833.137500", "112834.627500", "112836.117500", "112837.607500", "112839.097500", "112840.587500", "112842.077500", "112843.567500", "112845.057500", "112846.547500", "112848.037500", "112849.527500", "112851.017500", "112852.507500", "112853.997500", "112855.487500", "112856.977500", "112858.467500", "112859.957500", "112901.447500", "112902.937500", "112904.427500", "112905.917500", "112907.407500", "112908.897500", "112910.387500", "112911.877500", "112913.367500", "112914.857500", "112916.347500", "112917.837500", "112919.327500", "112920.817500", "112922.307500", "112923.797500", "112925.287500", "112926.777500", "112928.267500", "112929.757500", "112931.247500", "112932.737500", "112934.227500", "112935.717500", "112937.207500", "112938.697500", "112940.187500", "112941.677500", "112943.167500", "112944.657500", "112946.147500", "112947.637500", "112949.127500", "112950.617500", "112952.107500", "112953.597500", "112955.087500", "112956.577500", "112958.067500", "112959.557500", "113001.047500", "113002.537500", "113004.027500", "113005.517500", "113007.007500", "113008.497500", "113009.987500", "113011.477500", "113012.967500", "113014.457500", "113015.947500", "113017.437500", "113018.927500", "113020.417500", "113021.907500", "113023.397500", "113024.887500", "113026.377500", "113027.867500", "113029.357500", "113030.847500", "113032.337500", "113033.827500", "113035.317500", "113036.807500", "113038.297500", "113039.787500", "113041.277500", "113042.767500", "113044.257500", "113045.747500", "113047.237500", "113048.727500", "113050.217500", "113051.707500", "113053.197500", "113054.687500", "113056.177500", "113057.667500", "113059.157500", "113100.647500", "113102.137500", "113103.627500", "113105.117500", "113106.607500", "113108.097500", "113109.587500", "113111.077500", "113112.567500", "113114.057500", "113115.547500", "113117.037500", "113118.527500", "113120.017500", "113121.507500", "113122.997500", "113124.487500", "113125.977500", "113127.467500", "113128.957500", "113130.447500", "113131.937500", "113133.427500", "113134.917500", "113136.407500", "113137.897500", "113139.387500", "113140.877500", "113142.367500", "113143.857500", "113145.347500", "113146.837500", "113148.327500", "113149.817500", "113151.307500", "113152.797500", "113154.287500", "113155.777500", "113157.267500", "113158.757500", "113200.247500", "113201.737500", "113203.227500", "113204.717500", "113206.207500", "113207.697500", "113209.187500", "113210.677500", "113212.167500", "113213.657500", "113215.147500", "113216.637500", "113218.127500", "113219.617500", "113221.107500", "113222.597500", "113224.087500", "113225.577500", "113227.067500", "113228.557500", "113230.047500", "113231.537500", "113233.027500", "113234.517500", "113236.007500", "113237.497500", "113238.987500", "113240.477500", "113241.967500", "113243.457500", "113244.947500", "113246.437500", "113247.927500", "113249.417500", "113250.907500", "113252.397500", "113253.887500", "113255.377500", "113256.867500", "113258.357500", "113259.847500", "113301.337500", "113302.827500", "113304.317500", "113305.807500", "113307.297500", "113308.787500", "113310.277500", "113311.767500", "113313.257500", "113314.747500", "113316.237500", "113317.727500", "113319.217500", "113320.707500", "113322.197500", "113323.687500", "113325.177500", "113326.667500", "113328.157500", "113329.647500", "113331.137500", "113332.627500", "113334.117500", "113335.607500", "113337.097500", "113338.587500", "113340.077500", "113341.567500", "113343.057500", "113344.547500", "113346.037500", "113347.527500", "113349.017500", "113350.507500", "113351.997500", "113353.487500", "113354.977500", "113356.467500", "113357.957500", "113359.447500", "113400.937500", "113402.427500", "113403.917500", "113405.407500", "113406.897500", "113408.387500", "113409.877500", "113411.367500", "113412.857500", "113414.347500", "113415.837500", "113417.327500", "113418.817500", "113420.307500", "113421.797500", "113423.287500", "113424.777500", "113426.267500", "113427.757500", "113429.247500", "113430.737500", "113432.227500", "113433.717500", "113435.207500", "113436.697500", "113438.187500", "113439.677500", "113441.167500", "113442.657500", "113444.147500", "113445.637500", "113447.127500", "113448.617500", "113450.107500", "113451.597500", "113453.087500", "113454.577500", "113456.067500", "113457.557500", "113459.047500", "113500.537500", "113502.027500", "113503.517500", "113505.007500", "113506.497500", "113507.987500", "113509.477500", "113510.967500", "113512.457500", "113513.947500", "113515.437500", "113516.927500", "113518.417500", "113519.907500", "113521.397500", "113522.887500", "113524.377500", "113525.867500", "113527.357500", "113528.847500", "113530.337500", "113531.827500", "113533.317500", "113534.807500", "113536.297500", "113537.787500", "113539.277500", "113540.767500", "113542.257500", "113543.747500", "113545.237500", "113546.727500", "113548.217500", "113549.707500", "113551.197500", "113552.687500", "113554.177500", "113555.667500", "113557.157500", "113558.647500", "113600.137500", "113601.627500", "113603.117500", "113604.607500", "113606.097500", "113607.587500", "113609.077500", "113610.567500", "113612.057500", "113613.547500", "113615.037500", "113616.527500", "113618.017500", "113619.507500", "113620.997500", "113622.487500", "113623.977500", "113625.467500", "113626.957500", "113628.447500", "113629.937500", "113631.427500", "113632.917500", "113634.407500", "113635.897500", "113637.387500", "113638.877500", "113640.367500", "113641.857500", "113643.347500", "113644.837500", "113646.327500", "113647.817500", "113649.307500", "113650.797500", "113652.287500", "113653.777500", "113655.267500", "113656.757500", "113658.247500", "113659.737500", "113701.227500", "113702.717500", "113704.207500", "113705.697500", "113707.187500", "113708.677500", "113710.167500", "113711.657500", "113713.147500", "113714.637500", "113716.127500", "113717.617500", "113719.107500", "113720.597500", "113722.087500", "113723.577500", "113725.067500", "113726.557500", "113728.047500", "113729.537500", "113731.027500", "113732.517500", "113734.007500", "113735.497500", "113736.987500", "113738.477500", "113739.967500", "113741.457500", "113742.947500", "113744.437500", "113745.927500", "113747.417500", "113748.907500", "113750.397500", "113751.887500", "113753.377500", "113754.867500", "113756.357500", "113757.847500", "113759.337500", "113800.827500", "113802.317500", "113803.807500", "113805.297500", "113806.787500", "113808.277500", "113809.767500", "113811.257500", "113812.747500", "113814.237500", "113815.727500", "113817.217500", "113818.707500", "113820.197500", "113821.687500", "113823.177500", "113824.667500", "113826.157500", "113827.647500", "113829.137500", "113830.627500", "113832.117500", "113833.607500", "113835.097500", "113836.587500", "113838.077500", "113839.567500", "113841.057500", "113842.547500", "113844.037500", "113845.527500", "113847.017500", "113848.507500", "113849.997500", "113851.487500", "113852.977500", "113854.467500"],
      "ContentTime": ["112839.187000", "112839.190000", "112839.193000", "112839.196000", "112839.198000", "112839.201000", "112839.204000", "112839.207000", "112839.210000", "112839.212000", "112839.215000", "112839.218000", "112839.221000", "112839.224000", "112839.226000", "112839.229000", "112839.232000", "112839.235000", "112839.238000", "112839.249000", "112839.252000", "112839.256000", "112839.259000", "112839.261000", "112839.264000", "112839.278000", "112839.283000", "112839.286000", "112839.288000", "112839.291000", "112839.294000", "112839.297000", "112839.300000", "112839.303000", "112859.151000", "112859.154000", "112859.157000", "112859.160000", "112859.163000", "112859.165000", "112859.168000", "112859.171000", "112859.174000", "112859.177000", "112859.180000", "112859.182000", "112859.185000", "112859.188000", "112859.191000", "112859.194000", "112859.196000", "112859.199000", "112859.202000", "112859.205000", "112919.151000", "112919.154000", "112919.157000", "112919.160000", "112919.162000", "112919.165000", "112919.173000", "112919.175000", "112919.178000", "112919.181000", "112919.184000", "112919.187000", "112919.190000", "112919.192000", "112919.195000", "112919.198000", "112919.201000", "112919.204000", "112919.207000", "112919.210000", "112939.152000", "112939.162000", "112939.165000", "112939.168000", "112939.170000", "112939.173000", "112939.176000", "112939.179000", "112939.182000", "112939.185000", "112939.187000", "112939.190000", "112939.193000", "112939.196000", "112939.198000", "112939.201000", "112939.204000", "112939.207000", "112939.210000", "112939.212000", "113019.152000", "113019.155000", "113019.159000", "113019.162000", "113019.165000", "113019.168000", "113019.172000", "113019.175000", "113019.178000", "113019.181000", "113019.184000", "113019.187000", "113019.191000", "113019.194000", "113019.197000", "113019.200000", "113019.203000", "113019.206000", "113019.210000", "113019.212000", "113019.216000", "113019.219000", "113019.222000", "113019.225000", "113019.228000", "113019.231000", "113019.235000", "113019.237000", "113019.241000", "113019.244000", "113059.151000", "113059.154000", "113059.158000", "113059.161000", "113059.164000", "113059.167000", "113059.176000", "113059.180000", "113059.182000", "113059.186000", "113059.189000", "113059.192000", "113059.195000", "113059.198000", "113059.202000", "113059.205000", "113059.208000", "113059.211000", "113059.215000", "113059.218000", "113059.221000", "113059.224000", "113059.227000", "113059.230000", "113059.233000", "113059.236000", "113059.240000", "113119.151000", "113119.154000", "113119.158000", "113119.161000", "113119.164000", "113119.167000", "113119.170000", "113119.173000", "113119.176000", "113119.179000", "113119.183000", "113119.186000", "113119.189000", "113119.192000", "113159.152000", "113159.155000", "113159.158000", "113159.160000", "113159.163000", "113159.166000", "113159.169000", "113159.172000", "113159.175000", "113159.177000", "113159.180000", "113159.183000", "113159.186000", "113159.189000", "113159.192000", "113159.195000", "113159.197000", "113159.200000", "113159.203000", "113159.206000", "113159.209000", "113159.212000", "113159.215000", "113159.217000", "113159.220000", "113159.223000", "113159.226000", "113239.152000", "113239.155000", "113239.158000", "113239.160000", "113239.163000", "113239.166000", "113239.169000", "113239.172000", "113239.175000", "113239.177000", "113239.180000", "113239.183000", "113239.186000", "113239.189000", "113239.191000", "113239.194000", "113239.197000", "113239.200000", "113239.203000", "113239.206000", "113239.208000", "113239.222000", "113239.225000", "113239.228000", "113239.231000", "113239.233000", "113319.151000", "113319.154000", "113319.157000", "113319.160000", "113319.163000", "113319.165000", "113319.168000", "113319.171000", "113319.174000", "113319.177000", "113319.180000", "113319.183000", "113319.185000", "113319.188000", "113319.191000", "113319.194000", "113319.197000", "113319.200000", "113319.202000", "113319.205000", "113319.208000", "113319.211000", "113319.214000", "113319.217000", "113319.220000", "113319.222000", "113319.225000", "113359.151000", "113359.154000", "113359.157000", "113359.160000", "113359.163000", "113359.166000", "113359.169000", "113359.172000", "113359.174000", "113359.177000", "113359.180000", "113359.183000", "113359.186000", "113359.189000", "113359.192000", "113359.195000", "113359.197000", "113359.200000", "113359.203000", "113359.206000", "113359.209000", "113359.211000", "113359.214000", "113359.217000", "113359.220000", "113359.223000", "113359.226000", "113439.152000", "113439.155000", "113439.158000", "113439.161000", "113439.163000", "113439.166000", "113439.169000", "113439.172000", "113439.175000", "113439.178000", "113439.180000", "113439.183000", "113439.186000", "113439.189000", "113439.192000", "113439.194000", "113439.197000", "113439.200000", "113439.203000", "113439.206000", "113439.208000", "113439.211000", "113439.214000", "113439.217000", "113439.220000", "113439.223000", "113439.226000", "113519.151000", "113519.154000", "113519.157000", "113519.160000", "113519.163000", "113519.166000", "113519.168000", "113519.171000", "113519.174000", "113519.177000", "113519.180000", "113519.183000", "113519.186000", "113519.189000", "113519.191000", "113519.194000", "113519.197000", "113519.200000", "113519.203000", "113519.205000", "113519.208000", "113519.211000", "113519.214000", "113519.217000", "113519.220000", "113519.223000", "113519.226000", "113559.151000", "113559.154000", "113559.157000", "113559.160000", "113559.162000", "113559.165000", "113559.168000", "113559.171000", "113559.174000", "113559.177000", "113559.180000", "113559.183000", "113559.185000", "113559.188000", "113559.191000", "113559.194000", "113559.197000", "113559.199000", "113559.202000", "113559.205000", "113559.208000", "113559.211000", "113559.214000", "113559.217000", "113559.219000", "113559.222000", "113559.225000", "113639.153000", "113639.156000", "113639.159000", "113639.162000", "113639.165000", "113639.168000", "113639.172000", "113639.174000", "113639.177000", "113639.180000", "113639.183000", "113639.186000", "113639.189000", "113639.192000", "113639.195000", "113639.198000", "113639.201000", "113639.203000", "113639.206000", "113639.209000", "113639.212000", "113639.215000", "113639.218000", "113639.221000", "113639.223000", "113639.226000", "113719.152000", "113719.155000", "113719.158000", "113719.161000", "113719.163000", "113719.166000", "113719.169000", "113719.172000", "113719.175000", "113719.178000", "113719.180000", "113719.183000", "113719.186000", "113719.189000", "113719.192000", "113719.194000", "113719.197000", "113719.200000", "113719.203000", "113719.206000", "113719.208000", "113719.211000", "113719.214000", "113719.234000", "113719.237000", "113719.239000", "113719.242000", "113759.151000", "113759.154000", "113759.157000", "113759.160000", "113759.163000", "113759.166000", "113759.169000", "113759.171000", "113759.174000", "113759.177000", "113759.180000", "113759.183000", "113759.186000", "113759.188000", "113759.191000", "113759.194000", "113759.197000", "113759.200000", "113759.202000", "113759.205000", "113759.208000", "113759.211000", "113759.214000", "113759.217000", "113759.219000", "113759.222000", "113759.225000", "113839.151000", "113839.154000", "113839.157000", "113839.160000", "113839.163000", "113839.165000", "113839.168000", "113839.171000", "113839.174000", "113839.177000", "113839.180000", "113839.183000", "113839.186000", "113839.188000", "113839.191000", "113839.194000", "113839.197000", "113839.200000", "113839.203000", "113839.206000", "113839.209000", "113839.211000", "113839.214000", "113839.217000", "113839.220000", "113839.223000", "113839.226000", "113856.286000", "113856.290000", "113856.292000", "113856.295000", "113856.298000", "113856.301000", "113856.316000", "113856.319000", "113856.322000", "113856.325000", "113856.328000", "113856.331000"],
