{
  "AcquisitionMatrixPE": 104,
  "AcquisitionNumber": 1,
  "AcquisitionTime": "11:00:53.920000",
  "BandwidthPerPixelPhaseEncode": 17.17,
  "BaseResolution": 104,
  "BodyPartExamined": "BRAIN",
  "CoilString": "HC1-7;NC1_2",
  "ConsistencyInfo": "N4_VE11C_LATEST_20160120",
  "ConversionSoftware": "dcm2niix",
  "ConversionSoftwareVersion": "v1.0.20190720  (JP2:OpenJPEG) GCC7.3.0",
  "DerivedVendorReportedEchoSpacing": 0.000560011,
  "DeviceSerialNumber": "167006",
  "DwellTime": 2.1e-06,
  "EchoTime": 0.037,
  "EchoTrainLength": 104,
  "EffectiveEchoSpacing": 0.000560011,
  "FlipAngle": 52,
  "ImageComments": "Unaliased_MB4_PE3_LB",
  "ImageOrientationPatientDICOM": [0.997502, 0.0593624, 0.0382744, -0.0419821, 0.934078, -0.354593],
  "ImageType": [
    "ORIGINAL",
    "PRIMARY",
    "M",
    "MB",
    "ND",
    "MOSAIC"
],
  "ImagingFrequency": 123.259,
  "InPlanePhaseEncodingDirectionDICOM": "COL",
  "InstitutionAddress": "Chemin_Queen-Mary_4565_Montreal_District_CA_H3W_1W5",
  "InstitutionName": "IUGM",
  "InstitutionalDepartmentName": "Department",
  "MRAcquisitionType": "2D",
  "MagneticFieldStrength": 3,
  "Manufacturer": "Siemens",
  "ManufacturersModelName": "Prisma_fit",
  "Modality": "MR",
  "MultibandAccelerationFactor": 4,
  "PartialFourier": 1,
  "PatientPosition": "HFS",
  "PercentPhaseFOV": 100,
  "PhaseEncodingDirection": "j",
  "PhaseEncodingSteps": 104,
  "PhaseResolution": 1,
  "PixelBandwidth": 2290,
  "ProcedureStepDescription": "video_friends",
  "ProtocolName": "func_task-s01e01a",
  "PulseSequenceDetails": "%CustomerSeq%_cmrr_mbep2d_bold",
  "ReceiveCoilActiveElements": "HC1-7;NC1,2",
  "ReceiveCoilName": "HeadNeck_64",
  "ReconMatrixPE": 104,
  "RepetitionTime": 1.49,
  "SAR": 0.0384014,
  "ScanOptions": "FS",
  "ScanningSequence": "EP",
  "SequenceName": "epfid2d1_104",
  "SequenceVariant": "SK_SS",
  "SeriesDescription": "func_task-s01e01a",
  "SeriesNumber": 10,
  "ShimSetting": [639, -7202, -8827, 719, 124, -21, 1, -22],
  "SliceThickness": 2,
  "SliceTiming": [0, 0.785, 0.1, 0.8825, 0.1975, 0.98, 0.295, 1.08, 0.3925, 1.1775, 0.49, 1.275, 0.59, 1.3725, 0.6875, 0, 0.785, 0.1, 0.8825, 0.1975, 0.98, 0.295, 1.08, 0.3925, 1.1775, 0.49, 1.275, 0.59, 1.3725, 0.6875, 0, 0.785, 0.1, 0.8825, 0.1975, 0.98, 0.295, 1.08, 0.3925, 1.1775, 0.49, 1.275, 0.59, 1.3725, 0.6875, 0, 0.785, 0.1, 0.8825, 0.1975, 0.98, 0.295, 1.08, 0.3925, 1.1775, 0.49, 1.275, 0.59, 1.3725, 0.6875],
  "SoftwareVersions": "syngo_MR_E11",
  "SpacingBetweenSlices": 2,
  "StationName": "MRC35049",
  "TaskName": "friends",
  "TotalReadoutTime": 0.0576811,
  "TxRefAmp": 246.432,
  "WipMemBlock": "bf900d47-d7d9-4fc8-8a39-1992f522e2af||Sequence: R016 ve11c/master r/e634e98; Dec 19 2017 11:00:25 by eja",
  "dcmmeta_affine": [
    [-1.9950048923492432, -0.08396422863006592, 0.11360155045986176, 105.41881561279297],
    [-0.1187247633934021, 1.8681559562683105, -0.7042001485824585, -62.526145935058594],
    [0.07654888927936554, 0.7091850638389587, 1.8684744834899902, -66.90298461914062],
    [0.0, 0.0, 0.0, 1.0]
],
  "dcmmeta_reorient_transform": [
    [0.0, -1.0, 0.0, 103.0],
    [1.0, 0.0, 0.0, 0.0],
    [0.0, 0.0, 1.0, 0.0],
    [0.0, 0.0, 0.0, 1.0]
],
  "dcmmeta_shape": [104, 104, 60, 482],
  "dcmmeta_slice_dim": 2,
  "dcmmeta_version": 0.6,
  "global": {
    "const": {
      "AcquisitionMatrix": [104, 0, 0, 104],
      "AngioFlag": "N",
      "BitsAllocated": 16,
      "BitsStored": 16,
      "BodyPartExamined": "BRAIN",
      "Columns": 832,
      "EchoNumbers": 1,
      "EchoTime": 37.0,
      "EchoTrainLength": 104,
      "FlipAngle": 52.0,
      "HighBit": 15,
      "ImageOrientationPatient": [0.99750246833527, 0.05936238327832, 0.03827444469307, -0.0419821141674, 0.93407796655556, -0.3545925189361],
      "ImagePositionPatient": [-792.38931962213, -853.11849143837, 236.42263424543],
      "ImageType": [
        "ORIGINAL",
        "PRIMARY",
        "M",
        "MB",
        "ND",
        "MOSAIC"
],
      "ImagedNucleus": "1H",
      "ImagingFrequency": 123.259131,
      "InPlanePhaseEncodingDirection": "COL",
      "MRAcquisitionType": "2D",
      "MagneticFieldStrength": 3.0,
      "Manufacturer": "SIEMENS",
      "ManufacturerModelName": "Prisma_fit",
      "Modality": "MR",
      "NumberOfAverages": 1.0,
      "NumberOfPhaseEncodingSteps": 104,
      "PercentPhaseFieldOfView": 100.0,
      "PercentSampling": 100.0,
      "PerformedProcedureStepStartTime": "102747.635000",
      "PhotometricInterpretation": "MONOCHROME2",
      "PixelBandwidth": 2290.0,
      "PixelRepresentation": 0,
      "PixelSpacing": [2.0, 2.0],
      "ProtocolName": "func_task-s01e01a",
      "RepetitionTime": 1490.0,
      "Rows": 832,
      "SAR": 0.038401406525,
      "SamplesPerPixel": 1,
      "ScanOptions": "FS",
      "ScanningSequence": "EP",
      "SequenceName": "epfid2d1_104",
      "SequenceVariant": [
        "SK",
        "SS"
],
      "SeriesDescription": "func_task-s01e01a",
      "SeriesNumber": 10,
      "SeriesTime": "110159.248000",
      "SliceLocation": -34.499927506096,
      "SliceThickness": 2.0,
      "SmallestImagePixelValue": 0,
      "SoftwareVersions": "syngo MR E11",
      "SpacingBetweenSlices": 2.0000000366881,
      "SpecificCharacterSet": "ISO_IR 100",
      "StudyID": "1",
      "StudyTime": "102747.562000",
      "TransmitCoilName": "Body",
      "VariableFlipAngleFlag": "N",
      "WindowCenterWidthExplanation": "Algo1",
      "dBdt": 0.0},
    "slices": {}
  },
  "time": {
    "samples": {
      "AcquisitionNumber": [1, 2, 3, 4, 5, 6, 7, 8, 9, 10, 11, 12, 13, 14, 15, 16, 17, 18, 19, 20, 21, 22, 23, 24, 25, 26, 27, 28, 29, 30, 31, 32, 33, 34, 35, 36, 37, 38, 39, 40, 41, 42, 43, 44, 45, 46, 47, 48, 49, 50, 51, 52, 53, 54, 55, 56, 57, 58, 59, 60, 61, 62, 63, 64, 65, 66, 67, 68, 69, 70, 71, 72, 73, 74, 75, 76, 77, 78, 79, 80, 81, 82, 83, 84, 85, 86, 87, 88, 89, 90, 91, 92, 93, 94, 95, 96, 97, 98, 99, 100, 101, 102, 103, 104, 105, 106, 107, 108, 109, 110, 111, 112, 113, 114, 115, 116, 117, 118, 119, 120, 121, 122, 123, 124, 125, 126, 127, 128, 129, 130, 131, 132, 133, 134, 135, 136, 137, 138, 139, 140, 141, 142, 143, 144, 145, 146, 147, 148, 149, 150, 151, 152, 153, 154, 155, 156, 157, 158, 159, 160, 161, 162, 163, 164, 165, 166, 167, 168, 169, 170, 171, 172, 173, 174, 175, 176, 177, 178, 179, 180, 181, 182, 183, 184, 185, 186, 187, 188, 189, 190, 191, 192, 193, 194, 195, 196, 197, 198, 199, 200, 201, 202, 203, 204, 205, 206, 207, 208, 209, 210, 211, 212, 213, 214, 215, 216, 217, 218, 219, 220, 221, 222, 223, 224, 225, 226, 227, 228, 229, 230, 231, 232, 233, 234, 235, 236, 237, 238, 239, 240, 241, 242, 243, 244, 245, 246, 247, 248, 249, 250, 251, 252, 253, 254, 255, 256, 257, 258, 259, 260, 261, 262, 263, 264, 265, 266, 267, 268, 269, 270, 271, 272, 273, 274, 275, 276, 277, 278, 279, 280, 281, 282, 283, 284, 285, 286, 287, 288, 289, 290, 291, 292, 293, 294, 295, 296, 297, 298, 299, 300, 301, 302, 303, 304, 305, 306, 307, 308, 309, 310, 311, 312, 313, 314, 315, 316, 317, 318, 319, 320, 321, 322, 323, 324, 325, 326, 327, 328, 329, 330, 331, 332, 333, 334, 335, 336, 337, 338, 339, 340, 341, 342, 343, 344, 345, 346, 347, 348, 349, 350, 351, 352, 353, 354, 355, 356, 357, 358, 359, 360, 361, 362, 363, 364, 365, 366, 367, 368, 369, 370, 371, 372, 373, 374, 375, 376, 377, 378, 379, 380, 381, 382, 383, 384, 385, 386, 387, 388, 389, 390, 391, 392, 393, 394, 395, 396, 397, 398, 399, 400, 401, 402, 403, 404, 405, 406, 407, 408, 409, 410, 411, 412, 413, 414, 415, 416, 417, 418, 419, 420, 421, 422, 423, 424, 425, 426, 427, 428, 429, 430, 431, 432, 433, 434, 435, 436, 437, 438, 439, 440, 441, 442, 443, 444, 445, 446, 447, 448, 449, 450, 451, 452, 453, 454, 455, 456, 457, 458, 459, 460, 461, 462, 463, 464, 465, 466, 467, 468, 469, 470, 471, 472, 473, 474, 475, 476, 477, 478, 479, 480, 481, 482],
      "AcquisitionTime": ["110053.920000", "110055.410000", "110056.900000", "110058.390000", "110059.880000", "110101.370000", "110102.860000", "110104.350000", "110105.840000", "110107.330000", "110108.820000", "110110.310000", "110111.800000", "110113.290000", "110114.780000", "110116.270000", "110117.760000", "110119.250000", "110120.740000", "110122.230000", "110123.720000", "110125.210000", "110126.700000", "110128.190000", "110129.680000", "110131.170000", "110132.660000", "110134.150000", "110135.640000", "110137.130000", "110138.620000", "110140.110000", "110141.600000", "110143.090000", "110144.580000", "110146.070000", "110147.560000", "110149.050000", "110150.540000", "110152.030000", "110153.520000", "110155.010000", "110156.500000", "110157.990000", "110159.480000", "110200.970000", "110202.460000", "110203.950000", "110205.440000", "110206.930000", "110208.420000", "110209.910000", "110211.400000", "110212.890000", "110214.380000", "110215.870000", "110217.360000", "110218.850000", "110220.340000", "110221.830000", "110223.320000", "110224.810000", "110226.300000", "110227.790000", "110229.280000", "110230.770000", "110232.260000", "110233.750000", "110235.240000", "110236.730000", "110238.220000", "110239.710000", "110241.200000", "110242.690000", "110244.180000", "110245.670000", "110247.160000", "110248.650000", "110250.140000", "110251.630000", "110253.120000", "110254.610000", "110256.100000", "110257.590000", "110259.080000", "110300.570000", "110302.060000", "110303.550000", "110305.040000", "110306.530000", "110308.020000", "110309.510000", "110311.000000", "110312.490000", "110313.980000", "110315.470000", "110316.960000", "110318.450000", "110319.940000", "110321.430000", "110322.920000", "110324.410000", "110325.900000", "110327.390000", "110328.880000", "110330.370000", "110331.860000", "110333.350000", "110334.840000", "110336.330000", "110337.820000", "110339.310000", "110340.800000", "110342.290000", "110343.780000", "110345.270000", "110346.760000", "110348.250000", "110349.740000", "110351.230000", "110352.720000", "110354.210000", "110355.700000", "110357.190000", "110358.680000", "110400.170000", "110401.660000", "110403.150000", "110404.640000", "110406.130000", "110407.620000", "110409.110000", "110410.600000", "110412.090000", "110413.580000", "110415.070000", "110416.560000", "110418.050000", "110419.540000", "110421.030000", "110422.520000", "110424.010000", "110425.500000", "110426.990000", "110428.480000", "110429.970000", "110431.460000", "110432.950000", "110434.440000", "110435.930000", "110437.420000", "110438.910000", "110440.400000", "110441.890000", "110443.380000", "110444.870000", "110446.360000", "110447.850000", "110449.340000", "110450.830000", "110452.320000", "110453.810000", "110455.300000", "110456.790000", "110458.280000", "110459.770000", "110501.260000", "110502.750000", "110504.240000", "110505.730000", "110507.220000", "110508.710000", "110510.200000", "110511.690000", "110513.180000", "110514.670000", "110516.160000", "110517.650000", "110519.140000", "110520.630000", "110522.120000", "110523.610000", "110525.100000", "110526.590000", "110528.080000", "110529.570000", "110531.060000", "110532.550000", "110534.040000", "110535.530000", "110537.020000", "110538.510000", "110540.000000", "110541.490000", "110542.980000", "110544.470000", "110545.960000", "110547.450000", "110548.940000", "110550.430000", "110551.920000", "110553.410000", "110554.900000", "110556.390000", "110557.880000", "110559.370000", "110600.860000", "110602.350000", "110603.840000", "110605.330000", "110606.820000", "110608.310000", "110609.800000", "110611.290000", "110612.780000", "110614.270000", "110615.760000", "110617.250000", "110618.740000", "110620.230000", "110621.720000", "110623.210000", "110624.700000", "110626.190000", "110627.680000", "110629.170000", "110630.660000", "110632.150000", "110633.640000", "110635.130000", "110636.620000", "110638.110000", "110639.600000", "110641.090000", "110642.580000", "110644.070000", "110645.560000", "110647.050000", "110648.540000", "110650.030000", "110651.520000", "110653.010000", "110654.500000", "110655.990000", "110657.480000", "110658.970000", "110700.460000", "110701.950000", "110703.440000", "110704.930000", "110706.420000", "110707.910000", "110709.400000", "110710.890000", "110712.380000", "110713.870000", "110715.360000", "110716.850000", "110718.340000", "110719.830000", "110721.320000", "110722.810000", "110724.300000", "110725.790000", "110727.280000", "110728.770000", "110730.260000", "110731.750000", "110733.240000", "110734.730000", "110736.220000", "110737.710000", "110739.200000", "110740.690000", "110742.180000", "110743.670000", "110745.160000", "110746.650000", "110748.140000", "110749.630000", "110751.120000", "110752.610000", "110754.100000", "110755.590000", "110757.080000", "110758.570000", "110800.060000", "110801.550000", "110803.040000", "110804.530000", "110806.020000", "110807.510000", "110809.000000", "110810.490000", "110811.980000", "110813.470000", "110814.960000", "110816.450000", "110817.940000", "110819.430000", "110820.920000", "110822.410000", "110823.900000", "110825.390000", "110826.880000", "110828.370000", "110829.860000", "110831.350000", "110832.840000", "110834.330000", "110835.820000", "110837.310000", "110838.800000", "110840.290000", "110841.780000", "110843.270000", "110844.760000", "110846.250000", "110847.740000", "110849.230000", "110850.720000", "110852.210000", "110853.700000", "110855.190000", "110856.680000", "110858.170000", "110859.660000", "110901.150000", "110902.640000", "110904.130000", "110905.620000", "110907.110000", "110908.600000", "110910.090000", "110911.580000", "110913.070000", "110914.560000", "110916.050000", "110917.540000", "110919.030000", "110920.520000", "110922.010000", "110923.500000", "110924.990000", "110926.480000", "110927.970000", "110929.460000", "110930.950000", "110932.440000", "110933.930000", "110935.420000", "110936.910000", "110938.400000", "110939.890000", "110941.380000", "110942.870000", "110944.360000", "110945.850000", "110947.340000", "110948.830000", "110950.320000", "110951.810000", "110953.300000", "110954.790000", "110956.280000", "110957.770000", "110959.260000", "111000.750000", "111002.240000", "111003.730000", "111005.220000", "111006.710000", "111008.200000", "111009.690000", "111011.180000", "111012.670000", "111014.160000", "111015.650000", "111017.140000", "111018.630000", "111020.120000", "111021.610000", "111023.100000", "111024.590000", "111026.080000", "111027.570000", "111029.060000", "111030.550000", "111032.040000", "111033.530000", "111035.020000", "111036.510000", "111038.000000", "111039.490000", "111040.980000", "111042.470000", "111043.960000", "111045.450000", "111046.940000", "111048.430000", "111049.920000", "111051.410000", "111052.900000", "111054.390000", "111055.880000", "111057.370000", "111058.860000", "111100.350000", "111101.840000", "111103.330000", "111104.820000", "111106.310000", "111107.800000", "111109.290000", "111110.780000", "111112.270000", "111113.760000", "111115.250000", "111116.740000", "111118.230000", "111119.720000", "111121.210000", "111122.700000", "111124.190000", "111125.680000", "111127.170000", "111128.660000", "111130.150000", "111131.640000", "111133.130000", "111134.620000", "111136.110000", "111137.600000", "111139.090000", "111140.580000", "111142.070000", "111143.560000", "111145.050000", "111146.540000", "111148.030000", "111149.520000", "111151.010000", "111152.500000", "111153.990000", "111155.480000", "111156.970000", "111158.460000", "111159.950000", "111201.440000", "111202.930000", "111204.420000", "111205.910000", "111207.400000", "111208.890000", "111210.380000", "111211.870000", "111213.360000", "111214.850000", "111216.340000", "111217.830000", "111219.320000", "111220.810000", "111222.300000", "111223.790000", "111225.280000", "111226.770000", "111228.260000", "111229.750000", "111231.240000", "111232.730000", "111234.220000", "111235.710000", "111237.200000", "111238.690000", "111240.180000", "111241.670000", "111243.160000", "111244.650000", "111246.140000", "111247.630000", "111249.120000", "111250.610000"],
      "ContentTime": ["110159.251000", "110159.254000", "110159.257000", "110159.260000", "110159.263000", "110159.265000", "110159.268000", "110159.271000", "110159.274000", "110159.277000", "110219.222000", "110219.225000", "110219.228000", "110219.231000", "110219.234000", "110219.236000", "110219.244000", "110219.247000", "110219.250000", "110219.253000", "110219.255000", "110219.258000", "110219.261000", "110219.264000", "110219.267000", "110219.270000", "110219.272000", "110219.275000", "110219.278000", "110219.281000", "110239.222000", "110239.225000", "110239.228000", "110239.231000", "110239.250000", "110239.253000", "110239.256000", "110239.259000", "110239.261000", "110239.264000", "110239.267000", "110239.270000", "110239.273000", "110239.275000", "110239.278000", "110239.281000", "110239.284000", "110239.287000", "110239.289000", "110239.292000", "110259.221000", "110259.224000", "110259.227000", "110259.229000", "110259.232000", "110259.235000", "110259.238000", "110259.241000", "110259.243000", "110259.246000", "110259.249000", "110259.252000", "110259.255000", "110259.258000", "110259.260000", "110259.263000", "110259.267000", "110259.271000", "110259.275000", "110259.279000", "110319.221000", "110319.229000", "110319.232000", "110319.235000", "110319.238000", "110319.241000", "110319.244000", "110319.246000", "110319.249000", "110319.252000", "110319.255000", "110319.258000", "110319.261000", "110319.263000", "110319.266000", "110319.269000", "110319.272000", "110319.275000", "110319.278000", "110319.281000", "110319.284000", "110359.221000", "110359.224000", "110359.227000", "110359.231000", "110359.234000", "110359.236000", "110359.239000", "110359.242000", "110359.245000", "110359.248000", "110359.251000", "110359.253000", "110359.256000", "110359.259000", "110359.262000", "110359.265000", "110359.268000", "110359.271000", "110359.273000", "110359.276000", "110359.279000", "110359.282000", "110359.285000", "110359.288000", "110359.291000", "110359.294000", "110359.297000", "110359.300000", "110359.303000", "110359.305000", "110359.308000", "110359.311000", "110439.222000", "110439.225000", "110439.228000", "110439.230000", "110439.233000", "110439.236000", "110439.250000", "110439.253000", "110439.256000", "110439.259000", "110439.262000", "110439.265000", "110439.268000", "110439.270000", "110439.273000", "110439.276000", "110439.279000", "110439.282000", "110439.285000", "110439.288000", "110439.290000", "110439.293000", "110439.296000", "110439.299000", "110439.302000", "110439.304000", "110439.307000", "110519.221000", "110519.224000", "110519.227000", "110519.230000", "110519.232000", "110519.235000", "110519.238000", "110519.241000", "110519.244000", "110519.247000", "110519.249000", "110519.252000", "110519.255000", "110519.258000", "110519.261000", "110519.263000", "110519.266000", "110519.269000", "110519.272000", "110519.275000", "110519.278000", "110519.280000", "110519.283000", "110519.286000", "110519.289000", "110519.292000", "110519.295000", "110559.221000", "110559.224000", "110559.227000", "110559.230000", "110559.232000", "110559.235000", "110559.238000", "110559.241000", "110559.244000", "110559.247000", "110559.249000", "110559.252000", "110559.255000", "110559.258000", "110559.261000", "110559.264000", "110559.266000", "110559.269000", "110559.272000", "110559.275000", "110559.278000", "110559.280000", "110559.283000", "110559.286000", "110559.289000", "110559.292000", "110559.295000", "110639.222000", "110639.225000", "110639.228000", "110639.231000", "110639.233000", "110639.236000", "110639.239000", "110639.242000", "110639.245000", "110639.248000", "110639.251000", "110639.253000", "110639.256000", "110639.259000", "110639.262000", "110639.265000", "110639.267000", "110639.270000", "110639.273000", "110639.276000", "110639.279000", "110639.282000", "110639.284000", "110639.287000", "110639.290000", "110639.293000", "110639.296000", "110719.222000", "110719.225000", "110719.228000", "110719.231000", "110719.234000", "110719.237000", "110719.239000", "110719.243000", "110719.245000", "110719.248000", "110719.251000", "110719.255000", "110719.258000", "110719.261000", "110719.264000", "110719.267000", "110719.269000", "110719.272000", "110719.275000", "110719.278000", "110719.281000", "110719.284000", "110719.286000", "110719.296000", "110719.299000", "110719.301000", "110759.221000", "110759.224000", "110759.227000", "110759.230000", "110759.233000", "110759.235000", "110759.238000", "110759.241000", "110759.244000", "110759.247000", "110759.250000", "110759.252000", "110759.255000", "110759.258000", "110759.261000", "110759.274000", "110759.277000", "110759.280000", "110759.283000", "110759.286000", "110759.289000", "110759.291000", "110759.294000", "110759.297000", "110759.300000", "110759.303000", "110759.306000", "110839.221000", "110839.224000", "110839.227000", "110839.230000", "110839.233000", "110839.236000", "110839.239000", "110839.241000", "110839.244000", "110839.247000", "110839.250000", "110839.253000", "110839.256000", "110839.258000", "110839.261000", "110839.264000", "110839.267000", "110839.270000", "110839.273000", "110839.276000", "110839.279000", "110839.281000", "110839.284000", "110839.287000", "110839.290000", "110839.293000", "110839.296000", "110919.222000", "110919.225000", "110919.228000", "110919.231000", "110919.234000", "110919.236000", "110919.239000", "110919.242000", "110919.245000", "110919.248000", "110919.250000", "110919.253000", "110919.256000", "110919.259000", "110919.262000", "110919.273000", "110919.276000", "110919.279000", "110919.282000", "110919.284000", "110919.287000", "110919.290000", "110919.293000", "110919.296000", "110919.299000", "110919.302000", "110919.305000", "110959.221000", "110959.224000", "110959.227000", "110959.230000", "110959.232000", "110959.235000", "110959.238000", "110959.241000", "110959.244000", "110959.247000", "110959.249000", "110959.252000", "110959.255000", "110959.258000", "110959.261000", "110959.264000", "110959.266000", "110959.269000", "110959.272000", "110959.275000", "110959.278000", "110959.281000", "110959.283000", "110959.286000", "110959.289000", "110959.292000", "110959.295000", "111039.221000", "111039.224000", "111039.227000", "111039.230000", "111039.233000", "111039.236000", "111039.239000", "111039.241000", "111039.244000", "111039.247000", "111039.250000", "111039.253000", "111039.255000", "111039.258000", "111039.261000", "111039.264000", "111039.267000", "111039.270000", "111039.272000", "111039.275000", "111039.278000", "111039.281000", "111039.284000", "111039.287000", "111039.289000", "111039.292000", "111039.295000", "111119.222000", "111119.226000", "111119.228000", "111119.231000", "111119.234000", "111119.237000", "111119.240000", "111119.243000", "111119.246000", "111119.249000", "111119.251000", "111119.254000", "111119.257000", "111119.260000", "111119.263000", "111119.266000", "111119.269000", "111119.272000", "111119.274000", "111119.277000", "111119.280000", "111119.283000", "111119.286000", "111119.289000", "111119.292000", "111119.295000", "111119.297000", "111139.222000", "111139.225000", "111139.228000", "111139.231000", "111139.233000", "111139.236000", "111139.239000", "111139.242000", "111139.245000", "111139.248000", "111139.250000", "111139.253000", "111139.256000", "111219.221000", "111219.224000", "111219.227000", "111219.230000", "111219.233000", "111219.237000", "111219.240000", "111219.243000", "111219.246000", "111219.248000", "111219.251000", "111219.254000", "111219.257000", "111219.260000", "111219.263000", "111219.266000", "111219.273000", "111219.276000", "111219.279000", "111219.282000", "111219.285000", "111219.288000", "111219.291000", "111219.294000", "111219.297000", "111219.300000", "111219.303000", "111253.063000", "111253.066000", "111253.069000", "111253.072000", "111253.075000", "111253.078000", "111253.081000", "111253.089000", "111253.092000", "111253.103000", "111253.106000", "111253.110000", "111253.113000", "111253.116000", "111253.119000", "111253.122000", "111253.124000", "111253.127000", "111253.130000", "111253.133000", "111253.136000", "111253.139000", "111253.142000"],
