{
  "AcquisitionMatrixPE": 104,
  "AcquisitionNumber": 1,
  "AcquisitionTime": "18:50:4.717500",
  "BandwidthPerPixelPhaseEncode": 17.17,
  "BaseResolution": 104,
  "BodyPartExamined": "BRAIN",
  "CoilString": "HC1-7;NC1_2",
  "ConsistencyInfo": "N4_VE11C_LATEST_20160120",
  "ConversionSoftware": "dcm2niix",
  "ConversionSoftwareVersion": "v1.0.20190720  (JP2:OpenJPEG) GCC7.3.0",
  "DerivedVendorReportedEchoSpacing": 0.000560011,
  "DeviceSerialNumber": "167006",
  "DwellTime": 2.1e-06,
  "EchoTime": 0.037,
  "EchoTrainLength": 104,
  "EffectiveEchoSpacing": 0.000560011,
  "FlipAngle": 52,
  "ImageComments": "Unaliased_MB4_PE3_LB",
  "ImageOrientationPatientDICOM": [0.999629, -0.0259236, -0.00830309, 0.0212883, 0.934608, -0.355043],
  "ImageType": [
    "ORIGINAL",
    "PRIMARY",
    "M",
    "MB",
    "ND",
    "MOSAIC"
],
  "ImagingFrequency": 123.259,
  "InPlanePhaseEncodingDirectionDICOM": "COL",
  "InstitutionAddress": "Chemin_Queen-Mary_4565_Montreal_District_CA_H3W_1W5",
  "InstitutionName": "IUGM",
  "InstitutionalDepartmentName": "Department",
  "MRAcquisitionType": "2D",
  "MagneticFieldStrength": 3,
  "Manufacturer": "Siemens",
  "ManufacturersModelName": "Prisma_fit",
  "Modality": "MR",
  "MultibandAccelerationFactor": 4,
  "PartialFourier": 1,
  "PatientPosition": "HFS",
  "PercentPhaseFOV": 100,
  "PhaseEncodingDirection": "j",
  "PhaseEncodingSteps": 104,
  "PhaseResolution": 1,
  "PixelBandwidth": 2290,
  "ProcedureStepDescription": "video_friends",
  "ProtocolName": "func_task-friends-s01e02b",
  "PulseSequenceDetails": "%CustomerSeq%_cmrr_mbep2d_bold",
  "ReceiveCoilActiveElements": "HC1-7;NC1,2",
  "ReceiveCoilName": "HeadNeck_64",
  "ReconMatrixPE": 104,
  "RepetitionTime": 1.49,
  "SAR": 0.037093,
  "ScanOptions": "FS",
  "ScanningSequence": "EP",
  "SequenceName": "epfid2d1_104",
  "SequenceVariant": "SK_SS",
  "SeriesDescription": "func_task-friends-s01e02b",
  "SeriesNumber": 24,
  "ShimSetting": [603, -7258, -8854, 340, -15, -497, -30, 14],
  "SliceThickness": 2,
  "SliceTiming": [0, 0.785, 0.1, 0.8825, 0.1975, 0.98, 0.295, 1.08, 0.3925, 1.1775, 0.49, 1.275, 0.59, 1.3725, 0.6875, 0, 0.785, 0.1, 0.8825, 0.1975, 0.98, 0.295, 1.08, 0.3925, 1.1775, 0.49, 1.275, 0.59, 1.3725, 0.6875, 0, 0.785, 0.1, 0.8825, 0.1975, 0.98, 0.295, 1.08, 0.3925, 1.1775, 0.49, 1.275, 0.59, 1.3725, 0.6875, 0, 0.785, 0.1, 0.8825, 0.1975, 0.98, 0.295, 1.08, 0.3925, 1.1775, 0.49, 1.275, 0.59, 1.3725, 0.6875],
  "SoftwareVersions": "syngo_MR_E11",
  "SpacingBetweenSlices": 2,
  "StationName": "MRC35049",
  "TaskName": "friends",
  "TotalReadoutTime": 0.0576811,
  "TxRefAmp": 239.471,
  "WipMemBlock": "1ff4fd8c-1b23-478c-990f-dec622c00d11||Sequence: R016 ve11c/master r/e634e98; Dec 19 2017 11:00:25 by eja",
  "dcmmeta_affine": [
    [-1.9992588758468628, 0.04257667437195778, -0.03392823785543442, 100.54151153564453],
    [0.05184720829129219, 1.8692153692245483, -0.7094687223434448, -87.0346450805664],
    [-0.016606183722615242, 0.7100853323936462, 1.8696264028549194, -83.03783416748047],
    [0.0, 0.0, 0.0, 1.0]
],
  "dcmmeta_reorient_transform": [
    [0.0, -1.0, 0.0, 103.0],
    [1.0, 0.0, 0.0, 0.0],
    [0.0, 0.0, 1.0, 0.0],
    [0.0, 0.0, 0.0, 1.0]
],
  "dcmmeta_shape": [104, 104, 60, 472],
  "dcmmeta_slice_dim": 2,
  "dcmmeta_version": 0.6,
  "global": {
    "const": {
      "AcquisitionMatrix": [104, 0, 0, 104],
      "AngioFlag": "N",
      "BitsAllocated": 16,
      "BitsStored": 16,
      "BodyPartExamined": "BRAIN",
      "Columns": 832,
      "EchoNumbers": 1,
      "EchoTime": 37.0,
      "EchoTrainLength": 104,
      "FlipAngle": 52.0,
      "HighBit": 15,
      "ImageOrientationPatient": [0.99962944402691, -0.0259236050714, -0.0083030918676, 0.02128833679956, 0.93460767410311, -0.3550426766234],
      "ImagePositionPatient": [-848.15505551114, -767.01654138473, 254.61667529512],
      "ImageType": [
        "ORIGINAL",
        "PRIMARY",
        "M",
        "MB",
        "ND",
        "MOSAIC"
],
      "ImagedNucleus": "1H",
      "ImagingFrequency": 123.259352,
      "InPlanePhaseEncodingDirection": "COL",
      "MRAcquisitionType": "2D",
      "MagneticFieldStrength": 3.0,
      "Manufacturer": "SIEMENS",
      "ManufacturerModelName": "Prisma_fit",
      "Modality": "MR",
      "NumberOfAverages": 1.0,
      "NumberOfPhaseEncodingSteps": 104,
      "PercentPhaseFieldOfView": 100.0,
      "PercentSampling": 100.0,
      "PerformedProcedureStepStartTime": "174355.880000",
      "PhotometricInterpretation": "MONOCHROME2",
      "PixelBandwidth": 2290.0,
      "PixelRepresentation": 0,
      "PixelSpacing": [2.0, 2.0],
      "ProtocolName": "func_task-friends-s01e02b",
      "RepetitionTime": 1490.0,
      "Rows": 832,
      "SAR": 0.03709302613495,
      "SamplesPerPixel": 1,
      "ScanOptions": "FS",
      "ScanningSequence": "EP",
      "SequenceName": "epfid2d1_104",
      "SequenceVariant": [
        "SK",
        "SS"
],
      "SeriesDescription": "func_task-friends-s01e02b",
      "SeriesNumber": 24,
      "SeriesTime": "185133.882000",
      "SliceLocation": -48.456287245351,
      "SliceThickness": 2.0,
      "SmallestImagePixelValue": 0,
      "SoftwareVersions": "syngo MR E11",
      "SpacingBetweenSlices": 2.0000000096948,
      "SpecificCharacterSet": "ISO_IR 100",
      "StudyID": "1",
      "StudyTime": "174355.812000",
      "TransmitCoilName": "Body",
      "VariableFlipAngleFlag": "N",
      "WindowCenterWidthExplanation": "Algo1",
      "dBdt": 0.0},
    "slices": {}
  },
  "time": {
    "samples": {
      "AcquisitionNumber": [1, 2, 3, 4, 5, 6, 7, 8, 9, 10, 11, 12, 13, 14, 15, 16, 17, 18, 19, 20, 21, 22, 23, 24, 25, 26, 27, 28, 29, 30, 31, 32, 33, 34, 35, 36, 37, 38, 39, 40, 41, 42, 43, 44, 45, 46, 47, 48, 49, 50, 51, 52, 53, 54, 55, 56, 57, 58, 59, 60, 61, 62, 63, 64, 65, 66, 67, 68, 69, 70, 71, 72, 73, 74, 75, 76, 77, 78, 79, 80, 81, 82, 83, 84, 85, 86, 87, 88, 89, 90, 91, 92, 93, 94, 95, 96, 97, 98, 99, 100, 101, 102, 103, 104, 105, 106, 107, 108, 109, 110, 111, 112, 113, 114, 115, 116, 117, 118, 119, 120, 121, 122, 123, 124, 125, 126, 127, 128, 129, 130, 131, 132, 133, 134, 135, 136, 137, 138, 139, 140, 141, 142, 143, 144, 145, 146, 147, 148, 149, 150, 151, 152, 153, 154, 155, 156, 157, 158, 159, 160, 161, 162, 163, 164, 165, 166, 167, 168, 169, 170, 171, 172, 173, 174, 175, 176, 177, 178, 179, 180, 181, 182, 183, 184, 185, 186, 187, 188, 189, 190, 191, 192, 193, 194, 195, 196, 197, 198, 199, 200, 201, 202, 203, 204, 205, 206, 207, 208, 209, 210, 211, 212, 213, 214, 215, 216, 217, 218, 219, 220, 221, 222, 223, 224, 225, 226, 227, 228, 229, 230, 231, 232, 233, 234, 235, 236, 237, 238, 239, 240, 241, 242, 243, 244, 245, 246, 247, 248, 249, 250, 251, 252, 253, 254, 255, 256, 257, 258, 259, 260, 261, 262, 263, 264, 265, 266, 267, 268, 269, 270, 271, 272, 273, 274, 275, 276, 277, 278, 279, 280, 281, 282, 283, 284, 285, 286, 287, 288, 289, 290, 291, 292, 293, 294, 295, 296, 297, 298, 299, 300, 301, 302, 303, 304, 305, 306, 307, 308, 309, 310, 311, 312, 313, 314, 315, 316, 317, 318, 319, 320, 321, 322, 323, 324, 325, 326, 327, 328, 329, 330, 331, 332, 333, 334, 335, 336, 337, 338, 339, 340, 341, 342, 343, 344, 345, 346, 347, 348, 349, 350, 351, 352, 353, 354, 355, 356, 357, 358, 359, 360, 361, 362, 363, 364, 365, 366, 367, 368, 369, 370, 371, 372, 373, 374, 375, 376, 377, 378, 379, 380, 381, 382, 383, 384, 385, 386, 387, 388, 389, 390, 391, 392, 393, 394, 395, 396, 397, 398, 399, 400, 401, 402, 403, 404, 405, 406, 407, 408, 409, 410, 411, 412, 413, 414, 415, 416, 417, 418, 419, 420, 421, 422, 423, 424, 425, 426, 427, 428, 429, 430, 431, 432, 433, 434, 435, 436, 437, 438, 439, 440, 441, 442, 443, 444, 445, 446, 447, 448, 449, 450, 451, 452, 453, 454, 455, 456, 457, 458, 459, 460, 461, 462, 463, 464, 465, 466, 467, 468, 469, 470, 471, 472],
      "AcquisitionTime": ["185004.717500", "185006.207500", "185007.697500", "185009.187500", "185010.677500", "185012.167500", "185013.657500", "185015.147500", "185016.637500", "185018.127500", "185019.617500", "185021.107500", "185022.597500", "185024.087500", "185025.577500", "185027.067500", "185028.557500", "185030.047500", "185031.537500", "185033.027500", "185034.517500", "185036.007500", "185037.497500", "185038.987500", "185040.477500", "185041.967500", "185043.457500", "185044.947500", "185046.437500", "185047.927500", "185049.417500", "185050.907500", "185052.397500", "185053.887500", "185055.377500", "185056.867500", "185058.357500", "185059.847500", "185101.337500", "185102.827500", "185104.317500", "185105.807500", "185107.297500", "185108.787500", "185110.277500", "185111.767500", "185113.257500", "185114.747500", "185116.237500", "185117.727500", "185119.217500", "185120.707500", "185122.197500", "185123.687500", "185125.177500", "185126.667500", "185128.157500", "185129.647500", "185131.137500", "185132.627500", "185134.117500", "185135.607500", "185137.097500", "185138.587500", "185140.077500", "185141.567500", "185143.057500", "185144.547500", "185146.037500", "185147.527500", "185149.017500", "185150.507500", "185151.997500", "185153.487500", "185154.977500", "185156.467500", "185157.957500", "185159.447500", "185200.937500", "185202.427500", "185203.917500", "185205.407500", "185206.897500", "185208.387500", "185209.877500", "185211.367500", "185212.857500", "185214.347500", "185215.837500", "185217.327500", "185218.817500", "185220.307500", "185221.797500", "185223.287500", "185224.777500", "185226.267500", "185227.757500", "185229.247500", "185230.737500", "185232.227500", "185233.717500", "185235.207500", "185236.697500", "185238.187500", "185239.677500", "185241.167500", "185242.657500", "185244.147500", "185245.637500", "185247.127500", "185248.617500", "185250.107500", "185251.597500", "185253.087500", "185254.577500", "185256.067500", "185257.557500", "185259.047500", "185300.537500", "185302.027500", "185303.517500", "185305.007500", "185306.497500", "185307.987500", "185309.477500", "185310.967500", "185312.457500", "185313.947500", "185315.437500", "185316.927500", "185318.417500", "185319.907500", "185321.397500", "185322.887500", "185324.377500", "185325.867500", "185327.357500", "185328.847500", "185330.337500", "185331.827500", "185333.317500", "185334.807500", "185336.297500", "185337.787500", "185339.277500", "185340.767500", "185342.257500", "185343.747500", "185345.237500", "185346.727500", "185348.217500", "185349.707500", "185351.197500", "185352.687500", "185354.177500", "185355.667500", "185357.157500", "185358.647500", "185400.137500", "185401.627500", "185403.117500", "185404.607500", "185406.097500", "185407.587500", "185409.077500", "185410.567500", "185412.057500", "185413.547500", "185415.037500", "185416.527500", "185418.017500", "185419.507500", "185420.997500", "185422.487500", "185423.977500", "185425.467500", "185426.957500", "185428.447500", "185429.937500", "185431.427500", "185432.917500", "185434.407500", "185435.897500", "185437.387500", "185438.877500", "185440.367500", "185441.857500", "185443.347500", "185444.837500", "185446.327500", "185447.817500", "185449.307500", "185450.797500", "185452.287500", "185453.777500", "185455.267500", "185456.757500", "185458.247500", "185459.737500", "185501.227500", "185502.717500", "185504.207500", "185505.697500", "185507.187500", "185508.677500", "185510.167500", "185511.657500", "185513.147500", "185514.637500", "185516.127500", "185517.617500", "185519.107500", "185520.597500", "185522.087500", "185523.577500", "185525.067500", "185526.557500", "185528.047500", "185529.537500", "185531.027500", "185532.517500", "185534.007500", "185535.497500", "185536.987500", "185538.477500", "185539.967500", "185541.457500", "185542.947500", "185544.437500", "185545.927500", "185547.417500", "185548.907500", "185550.397500", "185551.887500", "185553.377500", "185554.867500", "185556.357500", "185557.847500", "185559.337500", "185600.827500", "185602.317500", "185603.807500", "185605.297500", "185606.787500", "185608.277500", "185609.767500", "185611.257500", "185612.747500", "185614.237500", "185615.727500", "185617.217500", "185618.707500", "185620.197500", "185621.687500", "185623.177500", "185624.667500", "185626.157500", "185627.647500", "185629.137500", "185630.627500", "185632.117500", "185633.607500", "185635.097500", "185636.587500", "185638.077500", "185639.567500", "185641.057500", "185642.547500", "185644.037500", "185645.527500", "185647.017500", "185648.507500", "185649.997500", "185651.487500", "185652.977500", "185654.467500", "185655.957500", "185657.447500", "185658.937500", "185700.427500", "185701.917500", "185703.407500", "185704.897500", "185706.387500", "185707.877500", "185709.367500", "185710.857500", "185712.347500", "185713.837500", "185715.327500", "185716.817500", "185718.307500", "185719.797500", "185721.287500", "185722.777500", "185724.267500", "185725.757500", "185727.247500", "185728.737500", "185730.227500", "185731.717500", "185733.207500", "185734.697500", "185736.187500", "185737.677500", "185739.167500", "185740.657500", "185742.147500", "185743.637500", "185745.127500", "185746.617500", "185748.107500", "185749.597500", "185751.087500", "185752.577500", "185754.067500", "185755.557500", "185757.047500", "185758.537500", "185800.027500", "185801.517500", "185803.007500", "185804.497500", "185805.987500", "185807.477500", "185808.967500", "185810.457500", "185811.947500", "185813.437500", "185814.927500", "185816.417500", "185817.907500", "185819.397500", "185820.887500", "185822.377500", "185823.867500", "185825.357500", "185826.847500", "185828.337500", "185829.827500", "185831.317500", "185832.807500", "185834.297500", "185835.787500", "185837.277500", "185838.767500", "185840.257500", "185841.747500", "185843.237500", "185844.727500", "185846.217500", "185847.707500", "185849.197500", "185850.687500", "185852.177500", "185853.667500", "185855.157500", "185856.647500", "185858.137500", "185859.627500", "185901.117500", "185902.607500", "185904.097500", "185905.587500", "185907.077500", "185908.567500", "185910.057500", "185911.547500", "185913.037500", "185914.527500", "185916.017500", "185917.507500", "185918.997500", "185920.487500", "185921.977500", "185923.467500", "185924.957500", "185926.447500", "185927.937500", "185929.427500", "185930.917500", "185932.407500", "185933.897500", "185935.387500", "185936.877500", "185938.367500", "185939.857500", "185941.347500", "185942.837500", "185944.327500", "185945.817500", "185947.307500", "185948.797500", "185950.287500", "185951.777500", "185953.267500", "185954.757500", "185956.247500", "185957.737500", "185959.227500", "190000.717500", "190002.207500", "190003.697500", "190005.187500", "190006.677500", "190008.167500", "190009.657500", "190011.147500", "190012.637500", "190014.127500", "190015.617500", "190017.107500", "190018.597500", "190020.087500", "190021.577500", "190023.067500", "190024.557500", "190026.047500", "190027.537500", "190029.027500", "190030.517500", "190032.007500", "190033.497500", "190034.987500", "190036.477500", "190037.967500", "190039.457500", "190040.947500", "190042.437500", "190043.927500", "190045.417500", "190046.907500", "190048.397500", "190049.887500", "190051.377500", "190052.867500", "190054.357500", "190055.847500", "190057.337500", "190058.827500", "190100.317500", "190101.807500", "190103.297500", "190104.787500", "190106.277500", "190107.767500", "190109.257500", "190110.747500", "190112.237500", "190113.727500", "190115.217500", "190116.707500", "190118.197500", "190119.687500", "190121.177500", "190122.667500", "190124.157500", "190125.647500", "190127.137500", "190128.627500", "190130.117500", "190131.607500", "190133.097500", "190134.587500", "190136.077500", "190137.567500", "190139.057500", "190140.547500", "190142.037500", "190143.527500", "190145.017500", "190146.507500"],
      "ContentTime": ["185133.885000", "185133.888000", "185133.892000", "185133.894000", "185133.897000", "185133.900000", "185133.903000", "185133.906000", "185133.909000", "185133.912000", "185133.914000", "185133.917000", "185133.920000", "185133.923000", "185133.926000", "185133.937000", "185133.940000", "185133.943000", "185133.946000", "185133.949000", "185133.952000", "185133.954000", "185133.957000", "185133.960000", "185133.963000", "185133.975000", "185133.978000", "185133.981000", "185133.984000", "185133.987000", "185133.990000", "185133.993000", "185153.843000", "185153.846000", "185153.849000", "185153.852000", "185153.855000", "185153.857000", "185153.860000", "185153.863000", "185153.866000", "185153.869000", "185153.872000", "185153.875000", "185153.878000", "185153.880000", "185153.883000", "185153.886000", "185153.889000", "185153.892000", "185153.895000", "185153.898000", "185153.900000", "185213.843000", "185213.846000", "185213.849000", "185213.852000", "185213.855000", "185213.857000", "185213.860000", "185213.863000", "185213.866000", "185213.870000", "185213.873000", "185213.876000", "185213.879000", "185213.882000", "185213.884000", "185213.887000", "185213.890000", "185213.893000", "185213.896000", "185213.899000", "185233.843000", "185233.846000", "185233.849000", "185233.852000", "185233.855000", "185233.858000", "185233.861000", "185233.863000", "185233.866000", "185233.869000", "185233.872000", "185233.875000", "185233.878000", "185233.881000", "185233.884000", "185233.887000", "185233.889000", "185233.892000", "185233.895000", "185233.898000", "185253.844000", "185253.852000", "185253.855000", "185253.858000", "185253.861000", "185253.864000", "185253.867000", "185253.870000", "185253.873000", "185253.875000", "185253.878000", "185253.881000", "185253.884000", "185253.887000", "185253.890000", "185253.893000", "185253.896000", "185253.899000", "185253.902000", "185253.904000", "185333.844000", "185333.847000", "185333.850000", "185333.853000", "185333.856000", "185333.859000", "185333.862000", "185333.865000", "185333.867000", "185333.870000", "185333.873000", "185333.876000", "185333.879000", "185333.882000", "185333.885000", "185333.887000", "185333.890000", "185333.893000", "185333.896000", "185333.899000", "185333.902000", "185333.905000", "185333.908000", "185333.911000", "185333.913000", "185333.916000", "185333.919000", "185413.843000", "185413.846000", "185413.849000", "185413.852000", "185413.855000", "185413.858000", "185413.861000", "185413.864000", "185413.867000", "185413.870000", "185413.873000", "185413.876000", "185413.879000", "185413.882000", "185413.885000", "185413.888000", "185413.891000", "185413.894000", "185413.897000", "185413.900000", "185413.903000", "185413.905000", "185413.908000", "185413.911000", "185413.914000", "185413.917000", "185453.843000", "185453.846000", "185453.854000", "185453.857000", "185453.860000", "185453.863000", "185453.866000", "185453.869000", "185453.872000", "185453.875000", "185453.878000", "185453.880000", "185453.883000", "185453.886000", "185453.889000", "185453.892000", "185453.895000", "185453.898000", "185453.901000", "185453.904000", "185453.906000", "185453.909000", "185453.912000", "185453.915000", "185453.918000", "185453.921000", "185453.924000", "185533.844000", "185533.847000", "185533.850000", "185533.853000", "185533.856000", "185533.859000", "185533.862000", "185533.865000", "185533.868000", "185533.870000", "185533.873000", "185533.876000", "185533.879000", "185533.882000", "185533.885000", "185533.888000", "185533.891000", "185533.894000", "185533.897000", "185533.899000", "185533.902000", "185533.905000", "185533.908000", "185533.911000", "185533.914000", "185533.917000", "185533.920000", "185613.843000", "185613.846000", "185613.849000", "185613.852000", "185613.855000", "185613.858000", "185613.861000", "185613.879000", "185613.883000", "185613.886000", "185613.889000", "185613.892000", "185613.895000", "185613.898000", "185613.901000", "185613.904000", "185613.907000", "185613.910000", "185613.912000", "185613.915000", "185613.918000", "185613.921000", "185613.924000", "185613.927000", "185613.930000", "185613.933000", "185613.936000", "185653.843000", "185653.846000", "185653.849000", "185653.852000", "185653.855000", "185653.858000", "185653.861000", "185653.864000", "185653.867000", "185653.870000", "185653.872000", "185653.875000", "185653.878000", "185653.881000", "185653.884000", "185653.887000", "185653.890000", "185653.893000", "185653.896000", "185653.898000", "185653.901000", "185653.904000", "185653.907000", "185653.910000", "185653.913000", "185653.916000", "185653.919000", "185733.844000", "185733.847000", "185733.850000", "185733.853000", "185733.856000", "185733.859000", "185733.862000", "185733.865000", "185733.868000", "185733.871000", "185733.874000", "185733.876000", "185733.879000", "185733.882000", "185733.885000", "185733.888000", "185733.891000", "185733.894000", "185733.897000", "185733.900000", "185733.903000", "185733.905000", "185733.908000", "185733.911000", "185733.914000", "185733.917000", "185733.920000", "185813.844000", "185813.847000", "185813.850000", "185813.853000", "185813.856000", "185813.859000", "185813.862000", "185813.865000", "185813.868000", "185813.870000", "185813.873000", "185813.876000", "185813.879000", "185813.882000", "185813.885000", "185813.888000", "185813.891000", "185813.894000", "185813.897000", "185813.899000", "185813.902000", "185813.905000", "185813.908000", "185813.911000", "185813.914000", "185813.917000", "185813.920000", "185833.843000", "185833.846000", "185833.849000", "185833.852000", "185833.855000", "185833.858000", "185833.861000", "185833.864000", "185833.867000", "185833.869000", "185833.872000", "185833.875000", "185833.878000", "185913.843000", "185913.846000", "185913.849000", "185913.852000", "185913.855000", "185913.858000", "185913.861000", "185913.864000", "185913.867000", "185913.870000", "185913.872000", "185913.875000", "185913.878000", "185913.881000", "185913.884000", "185913.887000", "185913.890000", "185913.893000", "185913.896000", "185913.899000", "185913.902000", "185913.904000", "185913.907000", "185913.910000", "185913.913000", "185913.916000", "185913.919000", "185953.844000", "185953.847000", "185953.850000", "185953.853000", "185953.856000", "185953.859000", "185953.862000", "185953.865000", "185953.867000", "185953.870000", "185953.873000", "185953.876000", "185953.879000", "185953.882000", "185953.885000", "185953.888000", "185953.891000", "185953.894000", "185953.896000", "185953.899000", "185953.902000", "185953.905000", "185953.908000", "185953.911000", "185953.914000", "185953.917000", "185953.920000", "190033.844000", "190033.847000", "190033.850000", "190033.853000", "190033.856000", "190033.859000", "190033.862000", "190033.865000", "190033.868000", "190033.870000", "190033.873000", "190033.876000", "190033.879000", "190033.882000", "190033.885000", "190033.888000", "190033.891000", "190033.894000", "190033.896000", "190033.899000", "190033.915000", "190033.918000", "190033.921000", "190033.924000", "190033.927000", "190033.930000", "190033.933000", "190113.843000", "190113.846000", "190113.849000", "190113.852000", "190113.855000", "190113.858000", "190113.861000", "190113.864000", "190113.867000", "190113.870000", "190113.873000", "190113.876000", "190113.878000", "190113.881000", "190113.884000", "190113.887000", "190113.890000", "190113.893000", "190113.896000", "190113.899000", "190113.902000", "190113.905000", "190113.907000", "190113.910000", "190113.913000", "190113.917000", "190148.380000", "190148.384000", "190148.387000", "190148.390000", "190148.393000", "190148.396000", "190148.399000", "190148.402000", "190148.405000", "190148.408000", "190148.411000", "190148.414000", "190148.418000", "190148.421000", "190148.424000", "190148.427000", "190148.430000", "190148.433000", "190148.437000", "190148.440000", "190148.443000", "190148.446000", "190148.449000", "190148.458000"],
