{
  "AcquisitionMatrixPE": 104,
  "AcquisitionNumber": 1,
  "AcquisitionTime": "13:35:43.810000",
  "BandwidthPerPixelPhaseEncode": 17.17,
  "BaseResolution": 104,
  "BodyPartExamined": "BRAIN",
  "CoilString": "HC1-7;NC1_2",
  "ConsistencyInfo": "N4_VE11C_LATEST_20160120",
  "ConversionSoftware": "dcm2niix",
  "ConversionSoftwareVersion": "v1.0.20190902",
  "DerivedVendorReportedEchoSpacing": 0.000560011,
  "DeviceSerialNumber": "167006",
  "DwellTime": 2.1e-06,
  "EchoTime": 0.037,
  "EchoTrainLength": 104,
  "EffectiveEchoSpacing": 0.000560011,
  "FlipAngle": 52,
  "ImageComments": "Unaliased_MB4_PE3_LB",
  "ImageOrientationPatientDICOM": [0.998362, 0.0155363, -0.0550684, -0.0277123, 0.97331, -0.227814],
  "ImageType": [
    "ORIGINAL",
    "PRIMARY",
    "M",
    "MB",
    "ND",
    "MOSAIC"
],
  "ImagingFrequency": 123.259,
  "InPlanePhaseEncodingDirectionDICOM": "COL",
  "InstitutionAddress": "Chemin_Queen-Mary_4565_Montreal_District_CA_H3W_1W5",
  "InstitutionName": "IUGM",
  "InstitutionalDepartmentName": "Department",
  "MRAcquisitionType": "2D",
  "MagneticFieldStrength": 3,
  "Manufacturer": "Siemens",
  "ManufacturersModelName": "Prisma_fit",
  "Modality": "MR",
  "MultibandAccelerationFactor": 4,
  "PartialFourier": 1,
  "PatientPosition": "HFS",
  "PercentPhaseFOV": 100,
  "PhaseEncodingDirection": "j",
  "PhaseEncodingSteps": 104,
  "PhaseResolution": 1,
  "PixelBandwidth": 2290,
  "ProcedureStepDescription": "video_friends",
  "ProtocolName": "func_task-friends-s04e13b",
  "PulseSequenceDetails": "%CustomerSeq%_cmrr_mbep2d_bold",
  "ReceiveCoilActiveElements": "HC1-7;NC1,2",
  "ReceiveCoilName": "HeadNeck_64",
  "ReconMatrixPE": 104,
  "RepetitionTime": 1.49,
  "SAR": 0.0295568,
  "ScanOptions": "FS",
  "ScanningSequence": "EP",
  "SequenceName": "epfid2d1_104",
  "SequenceVariant": "SK_SS",
  "SeriesDescription": "func_task-friends-s04e13b",
  "SeriesNumber": 11,
  "ShimSetting": [611, -7247, -8837, 586, -50, -251, 9, 47],
  "SliceThickness": 2,
  "SliceTiming": [0, 0.7825, 0.0975, 0.88, 0.195, 0.98, 0.2925, 1.0775, 0.39, 1.175, 0.49, 1.2725, 0.5875, 1.37, 0.685, 0, 0.7825, 0.0975, 0.88, 0.195, 0.98, 0.2925, 1.0775, 0.39, 1.175, 0.49, 1.2725, 0.5875, 1.37, 0.685, 0, 0.7825, 0.0975, 0.88, 0.195, 0.98, 0.2925, 1.0775, 0.39, 1.175, 0.49, 1.2725, 0.5875, 1.37, 0.685, 0, 0.7825, 0.0975, 0.88, 0.195, 0.98, 0.2925, 1.0775, 0.39, 1.175, 0.49, 1.2725, 0.5875, 1.37, 0.685],
  "SoftwareVersions": "syngo_MR_E11",
  "SpacingBetweenSlices": 2,
  "StationName": "MRC35049",
  "TaskName": "s04e13b",
  "TotalReadoutTime": 0.0576811,
  "TxRefAmp": 216.786,
  "WipMemBlock": "35d74d58-49b5-427d-909a-9c48580aa748||Sequence: R016 ve11c/master r/e634e98; Dec 19 2017 11:00:25 by eja",
  "dcmmeta_affine": [
    [-1.9967234134674072, -0.05542469397187233, -0.10011851787567139, 104.38117980957031],
    [-0.03107251413166523, 1.9466204643249512, -0.45793354511260986, -81.29573822021484],
    [-0.11013679951429367, 0.4556278586387634, 1.944292426109314, -49.43502426147461],
    [0.0, 0.0, 0.0, 1.0]
],
  "dcmmeta_reorient_transform": [
    [0.0, -1.0, 0.0, 103.0],
    [1.0, 0.0, 0.0, 0.0],
    [0.0, 0.0, 1.0, 0.0],
    [0.0, 0.0, 0.0, 1.0]
],
  "dcmmeta_shape": [104, 104, 60, 448],
  "dcmmeta_slice_dim": 2,
  "dcmmeta_version": 0.6,
  "global": {
    "const": {
      "AcquisitionMatrix": [104, 0, 0, 104],
      "AngioFlag": "N",
      "BitsAllocated": 16,
      "BitsStored": 16,
      "BodyPartExamined": "BRAIN",
      "Columns": 832,
      "EchoNumbers": 1,
      "EchoTime": 37.0,
      "EchoTrainLength": 104,
      "FlipAngle": 52.0,
      "HighBit": 15,
      "ImageOrientationPatient": [0.99836170612654, 0.01553625711312, -0.0550683979703, -0.0277123471124, 0.97331024941491, -0.2278139245117],
      "ImagePositionPatient": [-805.30517242904, -839.08643188957, 203.43297671967],
      "ImageType": [
        "ORIGINAL",
        "PRIMARY",
        "M",
        "MB",
        "ND",
        "MOSAIC"
],
      "ImagedNucleus": "1H",
      "ImagingFrequency": 123.259017,
      "InPlanePhaseEncodingDirection": "COL",
      "MRAcquisitionType": "2D",
      "MagneticFieldStrength": 3.0,
      "Manufacturer": "SIEMENS",
      "ManufacturerModelName": "Prisma_fit",
      "Modality": "MR",
      "NumberOfAverages": 1.0,
      "NumberOfPhaseEncodingSteps": 104,
      "PercentPhaseFieldOfView": 100.0,
      "PercentSampling": 100.0,
      "PerformedProcedureStepStartTime": "125643.020000",
      "PhotometricInterpretation": "MONOCHROME2",
      "PixelBandwidth": 2290.0,
      "PixelRepresentation": 0,
      "PixelSpacing": [2.0, 2.0],
      "ProtocolName": "func_task-friends-s04e13b",
      "RepetitionTime": 1490.0,
      "Rows": 832,
      "SAR": 0.02955679847841,
      "SamplesPerPixel": 1,
      "ScanOptions": "FS",
      "ScanningSequence": "EP",
      "SequenceName": "epfid2d1_104",
      "SequenceVariant": [
        "SK",
        "SS"
],
      "SeriesDescription": "func_task-friends-s04e13b",
      "SeriesNumber": 11,
      "SeriesTime": "133713.259000",
      "SliceLocation": -34.66929304506,
      "SliceThickness": 2.0,
      "SmallestImagePixelValue": 0,
      "SoftwareVersions": "syngo MR E11",
      "SpacingBetweenSlices": 2.0000000037743,
      "SpecificCharacterSet": "ISO_IR 100",
      "StudyID": "1",
      "StudyTime": "125642.907000",
      "TransmitCoilName": "Body",
      "VariableFlipAngleFlag": "N",
      "WindowCenterWidthExplanation": "Algo1",
      "dBdt": 0.0},
    "slices": {}
  },
  "time": {
    "samples": {
      "AcquisitionNumber": [1, 2, 3, 4, 5, 6, 7, 8, 9, 10, 11, 12, 13, 14, 15, 16, 17, 18, 19, 20, 21, 22, 23, 24, 25, 26, 27, 28, 29, 30, 31, 32, 33, 34, 35, 36, 37, 38, 39, 40, 41, 42, 43, 44, 45, 46, 47, 48, 49, 50, 51, 52, 53, 54, 55, 56, 57, 58, 59, 60, 61, 62, 63, 64, 65, 66, 67, 68, 69, 70, 71, 72, 73, 74, 75, 76, 77, 78, 79, 80, 81, 82, 83, 84, 85, 86, 87, 88, 89, 90, 91, 92, 93, 94, 95, 96, 97, 98, 99, 100, 101, 102, 103, 104, 105, 106, 107, 108, 109, 110, 111, 112, 113, 114, 115, 116, 117, 118, 119, 120, 121, 122, 123, 124, 125, 126, 127, 128, 129, 130, 131, 132, 133, 134, 135, 136, 137, 138, 139, 140, 141, 142, 143, 144, 145, 146, 147, 148, 149, 150, 151, 152, 153, 154, 155, 156, 157, 158, 159, 160, 161, 162, 163, 164, 165, 166, 167, 168, 169, 170, 171, 172, 173, 174, 175, 176, 177, 178, 179, 180, 181, 182, 183, 184, 185, 186, 187, 188, 189, 190, 191, 192, 193, 194, 195, 196, 197, 198, 199, 200, 201, 202, 203, 204, 205, 206, 207, 208, 209, 210, 211, 212, 213, 214, 215, 216, 217, 218, 219, 220, 221, 222, 223, 224, 225, 226, 227, 228, 229, 230, 231, 232, 233, 234, 235, 236, 237, 238, 239, 240, 241, 242, 243, 244, 245, 246, 247, 248, 249, 250, 251, 252, 253, 254, 255, 256, 257, 258, 259, 260, 261, 262, 263, 264, 265, 266, 267, 268, 269, 270, 271, 272, 273, 274, 275, 276, 277, 278, 279, 280, 281, 282, 283, 284, 285, 286, 287, 288, 289, 290, 291, 292, 293, 294, 295, 296, 297, 298, 299, 300, 301, 302, 303, 304, 305, 306, 307, 308, 309, 310, 311, 312, 313, 314, 315, 316, 317, 318, 319, 320, 321, 322, 323, 324, 325, 326, 327, 328, 329, 330, 331, 332, 333, 334, 335, 336, 337, 338, 339, 340, 341, 342, 343, 344, 345, 346, 347, 348, 349, 350, 351, 352, 353, 354, 355, 356, 357, 358, 359, 360, 361, 362, 363, 364, 365, 366, 367, 368, 369, 370, 371, 372, 373, 374, 375, 376, 377, 378, 379, 380, 381, 382, 383, 384, 385, 386, 387, 388, 389, 390, 391, 392, 393, 394, 395, 396, 397, 398, 399, 400, 401, 402, 403, 404, 405, 406, 407, 408, 409, 410, 411, 412, 413, 414, 415, 416, 417, 418, 419, 420, 421, 422, 423, 424, 425, 426, 427, 428, 429, 430, 431, 432, 433, 434, 435, 436, 437, 438, 439, 440, 441, 442, 443, 444, 445, 446, 447, 448],
      "AcquisitionTime": ["133543.810000", "133545.300000", "133546.790000", "133548.280000", "133549.770000", "133551.260000", "133552.750000", "133554.240000", "133555.730000", "133557.220000", "133558.710000", "133600.200000", "133601.690000", "133603.180000", "133604.670000", "133606.160000", "133607.650000", "133609.140000", "133610.630000", "133612.120000", "133613.610000", "133615.100000", "133616.590000", "133618.080000", "133619.570000", "133621.060000", "133622.550000", "133624.040000", "133625.530000", "133627.020000", "133628.510000", "133630.000000", "133631.490000", "133632.980000", "133634.470000", "133635.960000", "133637.450000", "133638.940000", "133640.430000", "133641.920000", "133643.410000", "133644.900000", "133646.390000", "133647.880000", "133649.370000", "133650.860000", "133652.350000", "133653.840000", "133655.330000", "133656.820000", "133658.310000", "133659.800000", "133701.290000", "133702.780000", "133704.270000", "133705.760000", "133707.250000", "133708.740000", "133710.230000", "133711.720000", "133713.210000", "133714.700000", "133716.190000", "133717.680000", "133719.170000", "133720.660000", "133722.150000", "133723.640000", "133725.130000", "133726.620000", "133728.110000", "133729.600000", "133731.090000", "133732.580000", "133734.070000", "133735.560000", "133737.050000", "133738.540000", "133740.030000", "133741.520000", "133743.010000", "133744.500000", "133745.990000", "133747.480000", "133748.970000", "133750.460000", "133751.950000", "133753.440000", "133754.930000", "133756.420000", "133757.910000", "133759.400000", "133800.890000", "133802.380000", "133803.870000", "133805.360000", "133806.850000", "133808.340000", "133809.830000", "133811.320000", "133812.810000", "133814.300000", "133815.790000", "133817.280000", "133818.770000", "133820.260000", "133821.750000", "133823.240000", "133824.730000", "133826.220000", "133827.710000", "133829.200000", "133830.690000", "133832.180000", "133833.670000", "133835.160000", "133836.650000", "133838.140000", "133839.630000", "133841.120000", "133842.610000", "133844.100000", "133845.590000", "133847.080000", "133848.570000", "133850.060000", "133851.550000", "133853.040000", "133854.530000", "133856.020000", "133857.510000", "133859.000000", "133900.490000", "133901.980000", "133903.470000", "133904.960000", "133906.450000", "133907.940000", "133909.430000", "133910.920000", "133912.410000", "133913.900000", "133915.390000", "133916.880000", "133918.370000", "133919.860000", "133921.350000", "133922.840000", "133924.330000", "133925.820000", "133927.310000", "133928.800000", "133930.290000", "133931.780000", "133933.270000", "133934.760000", "133936.250000", "133937.740000", "133939.230000", "133940.720000", "133942.210000", "133943.700000", "133945.190000", "133946.680000", "133948.170000", "133949.660000", "133951.150000", "133952.640000", "133954.130000", "133955.620000", "133957.110000", "133958.600000", "134000.090000", "134001.580000", "134003.070000", "134004.560000", "134006.050000", "134007.540000", "134009.030000", "134010.520000", "134012.010000", "134013.500000", "134014.990000", "134016.480000", "134017.970000", "134019.460000", "134020.950000", "134022.440000", "134023.930000", "134025.420000", "134026.910000", "134028.400000", "134029.890000", "134031.380000", "134032.870000", "134034.360000", "134035.850000", "134037.340000", "134038.830000", "134040.320000", "134041.810000", "134043.300000", "134044.790000", "134046.280000", "134047.770000", "134049.260000", "134050.750000", "134052.240000", "134053.730000", "134055.220000", "134056.710000", "134058.200000", "134059.690000", "134101.180000", "134102.670000", "134104.160000", "134105.650000", "134107.140000", "134108.630000", "134110.120000", "134111.610000", "134113.100000", "134114.590000", "134116.080000", "134117.570000", "134119.060000", "134120.550000", "134122.040000", "134123.530000", "134125.020000", "134126.510000", "134128.000000", "134129.490000", "134130.980000", "134132.470000", "134133.960000", "134135.450000", "134136.940000", "134138.430000", "134139.920000", "134141.410000", "134142.900000", "134144.390000", "134145.880000", "134147.370000", "134148.860000", "134150.350000", "134151.840000", "134153.330000", "134154.820000", "134156.310000", "134157.800000", "134159.290000", "134200.780000", "134202.270000", "134203.760000", "134205.250000", "134206.740000", "134208.230000", "134209.720000", "134211.210000", "134212.700000", "134214.190000", "134215.680000", "134217.170000", "134218.660000", "134220.150000", "134221.640000", "134223.130000", "134224.620000", "134226.110000", "134227.600000", "134229.090000", "134230.580000", "134232.070000", "134233.560000", "134235.050000", "134236.540000", "134238.030000", "134239.520000", "134241.010000", "134242.500000", "134243.990000", "134245.480000", "134246.970000", "134248.460000", "134249.950000", "134251.440000", "134252.930000", "134254.420000", "134255.910000", "134257.400000", "134258.890000", "134300.380000", "134301.870000", "134303.360000", "134304.850000", "134306.340000", "134307.830000", "134309.320000", "134310.810000", "134312.300000", "134313.790000", "134315.280000", "134316.770000", "134318.260000", "134319.750000", "134321.240000", "134322.730000", "134324.220000", "134325.710000", "134327.200000", "134328.690000", "134330.180000", "134331.670000", "134333.160000", "134334.650000", "134336.140000", "134337.630000", "134339.120000", "134340.610000", "134342.100000", "134343.590000", "134345.080000", "134346.570000", "134348.060000", "134349.550000", "134351.040000", "134352.530000", "134354.020000", "134355.510000", "134357.000000", "134358.490000", "134359.980000", "134401.470000", "134402.960000", "134404.450000", "134405.940000", "134407.430000", "134408.920000", "134410.410000", "134411.900000", "134413.390000", "134414.880000", "134416.370000", "134417.860000", "134419.350000", "134420.840000", "134422.330000", "134423.820000", "134425.310000", "134426.800000", "134428.290000", "134429.780000", "134431.270000", "134432.760000", "134434.250000", "134435.740000", "134437.230000", "134438.720000", "134440.210000", "134441.700000", "134443.190000", "134444.680000", "134446.170000", "134447.660000", "134449.150000", "134450.640000", "134452.130000", "134453.620000", "134455.110000", "134456.600000", "134458.090000", "134459.580000", "134501.070000", "134502.560000", "134504.050000", "134505.540000", "134507.030000", "134508.520000", "134510.010000", "134511.500000", "134512.990000", "134514.480000", "134515.970000", "134517.460000", "134518.950000", "134520.440000", "134521.930000", "134523.420000", "134524.910000", "134526.400000", "134527.890000", "134529.380000", "134530.870000", "134532.360000", "134533.850000", "134535.340000", "134536.830000", "134538.320000", "134539.810000", "134541.300000", "134542.790000", "134544.280000", "134545.770000", "134547.260000", "134548.750000", "134550.240000", "134551.730000", "134553.220000", "134554.710000", "134556.200000", "134557.690000", "134559.180000", "134600.670000", "134602.160000", "134603.650000", "134605.140000", "134606.630000", "134608.120000", "134609.610000", "134611.100000", "134612.590000", "134614.080000", "134615.570000", "134617.060000", "134618.550000", "134620.040000", "134621.530000", "134623.020000", "134624.510000", "134626.000000", "134627.490000", "134628.980000", "134630.470000", "134631.960000", "134633.450000", "134634.940000", "134636.430000", "134637.920000", "134639.410000", "134640.900000", "134642.390000", "134643.880000", "134645.370000", "134646.860000", "134648.350000", "134649.840000"],
      "ContentTime": ["133713.261000", "133713.265000", "133713.268000", "133713.271000", "133713.274000", "133713.287000", "133713.290000", "133713.293000", "133713.295000", "133713.298000", "133713.301000", "133713.305000", "133713.308000", "133713.310000", "133713.313000", "133713.316000", "133713.319000", "133713.322000", "133713.325000", "133713.328000", "133713.331000", "133713.334000", "133713.336000", "133713.339000", "133713.342000", "133713.345000", "133713.348000", "133713.351000", "133713.354000", "133713.357000", "133713.360000", "133713.363000", "133713.366000", "133713.369000", "133713.371000", "133733.235000", "133733.238000", "133733.241000", "133733.244000", "133733.247000", "133733.250000", "133733.252000", "133733.255000", "133733.258000", "133733.261000", "133733.264000", "133733.267000", "133733.270000", "133733.273000", "133733.276000", "133733.279000", "133733.282000", "133733.285000", "133733.288000", "133733.290000", "133753.235000", "133753.238000", "133753.241000", "133753.244000", "133753.246000", "133753.249000", "133753.252000", "133753.255000", "133753.258000", "133753.261000", "133753.264000", "133753.267000", "133753.270000", "133753.273000", "133753.275000", "133753.278000", "133753.281000", "133753.284000", "133753.287000", "133753.290000", "133813.235000", "133813.238000", "133813.241000", "133813.244000", "133813.247000", "133813.249000", "133813.252000", "133813.255000", "133813.258000", "133813.261000", "133813.264000", "133813.267000", "133813.270000", "133813.279000", "133813.281000", "133813.284000", "133813.287000", "133813.290000", "133813.293000", "133813.296000", "133853.236000", "133853.239000", "133853.242000", "133853.245000", "133853.248000", "133853.252000", "133853.255000", "133853.258000", "133853.261000", "133853.296000", "133853.299000", "133853.302000", "133853.305000", "133853.308000", "133853.311000", "133853.314000", "133853.316000", "133853.319000", "133853.322000", "133853.325000", "133853.328000", "133853.331000", "133853.334000", "133853.337000", "133853.340000", "133853.342000", "133853.345000", "133853.348000", "133853.351000", "133853.354000", "133853.357000", "133933.236000", "133933.254000", "133933.257000", "133933.260000", "133933.263000", "133933.265000", "133933.268000", "133933.271000", "133933.274000", "133933.277000", "133933.280000", "133933.283000", "133933.286000", "133933.289000", "133933.292000", "133933.294000", "133933.297000", "133933.300000", "133933.303000", "133933.306000", "133933.309000", "133933.312000", "133933.315000", "133933.318000", "133933.321000", "133933.323000", "133933.326000", "134013.235000", "134013.238000", "134013.241000", "134013.244000", "134013.247000", "134013.250000", "134013.253000", "134013.256000", "134013.258000", "134013.261000", "134013.264000", "134013.267000", "134013.270000", "134013.273000", "134013.276000", "134013.279000", "134013.282000", "134013.285000", "134013.288000", "134013.290000", "134013.293000", "134013.296000", "134013.299000", "134013.302000", "134013.305000", "134013.308000", "134013.311000", "134053.236000", "134053.239000", "134053.260000", "134053.263000", "134053.266000", "134053.269000", "134053.272000", "134053.275000", "134053.278000", "134053.281000", "134053.284000", "134053.287000", "134053.289000", "134053.292000", "134053.295000", "134053.298000", "134053.301000", "134053.304000", "134053.307000", "134053.310000", "134053.313000", "134053.316000", "134053.318000", "134053.321000", "134053.324000", "134053.327000", "134053.330000", "134133.236000", "134133.239000", "134133.242000", "134133.245000", "134133.248000", "134133.251000", "134133.254000", "134133.257000", "134133.259000", "134133.262000", "134133.265000", "134133.268000", "134133.271000", "134133.274000", "134133.277000", "134133.280000", "134133.283000", "134133.286000", "134133.289000", "134133.292000", "134133.294000", "134133.297000", "134133.300000", "134133.303000", "134133.306000", "134133.309000", "134133.312000", "134213.235000", "134213.238000", "134213.241000", "134213.244000", "134213.247000", "134213.250000", "134213.253000", "134213.256000", "134213.259000", "134213.262000", "134213.265000", "134213.267000", "134213.270000", "134213.274000", "134213.276000", "134213.279000", "134213.282000", "134213.285000", "134213.288000", "134213.291000", "134213.294000", "134213.297000", "134213.300000", "134213.303000", "134213.305000", "134213.308000", "134213.311000", "134253.236000", "134253.239000", "134253.242000", "134253.245000", "134253.248000", "134253.251000", "134253.254000", "134253.257000", "134253.259000", "134253.262000", "134253.265000", "134253.268000", "134253.271000", "134253.274000", "134253.277000", "134253.280000", "134253.283000", "134253.286000", "134253.289000", "134253.292000", "134253.294000", "134253.297000", "134253.300000", "134253.303000", "134253.306000", "134253.309000", "134253.312000", "134333.236000", "134333.239000", "134333.243000", "134333.246000", "134333.249000", "134333.252000", "134333.255000", "134333.258000", "134333.260000", "134333.263000", "134333.266000", "134333.269000", "134333.272000", "134333.275000", "134333.278000", "134333.281000", "134333.284000", "134333.287000", "134333.290000", "134333.293000", "134333.296000", "134333.299000", "134333.302000", "134333.305000", "134333.308000", "134333.311000", "134413.235000", "134413.239000", "134413.242000", "134413.245000", "134413.255000", "134413.258000", "134413.261000", "134413.264000", "134413.267000", "134413.271000", "134413.274000", "134413.277000", "134413.280000", "134413.283000", "134413.287000", "134413.290000", "134413.293000", "134413.296000", "134413.299000", "134413.302000", "134413.306000", "134413.309000", "134413.312000", "134413.315000", "134413.318000", "134413.322000", "134413.325000", "134453.235000", "134453.238000", "134453.241000", "134453.244000", "134453.247000", "134453.250000", "134453.253000", "134453.256000", "134453.259000", "134453.262000", "134453.264000", "134453.268000", "134453.270000", "134453.273000", "134453.276000", "134453.279000", "134453.282000", "134453.285000", "134453.288000", "134453.291000", "134453.294000", "134453.297000", "134453.300000", "134453.303000", "134453.319000", "134453.321000", "134453.324000", "134533.236000", "134533.239000", "134533.242000", "134533.245000", "134533.248000", "134533.251000", "134533.254000", "134533.257000", "134533.259000", "134533.262000", "134533.265000", "134533.268000", "134533.271000", "134533.274000", "134533.277000", "134533.280000", "134533.283000", "134533.286000", "134533.289000", "134533.292000", "134533.295000", "134533.298000", "134533.301000", "134533.303000", "134533.307000", "134533.309000", "134533.312000", "134613.236000", "134613.239000", "134613.242000", "134613.245000", "134613.248000", "134613.251000", "134613.254000", "134613.257000", "134613.260000", "134613.263000", "134613.266000", "134613.269000", "134613.272000", "134613.276000", "134613.279000", "134613.282000", "134613.285000", "134613.288000", "134613.291000", "134613.294000", "134613.297000", "134613.300000", "134613.303000", "134613.306000", "134613.309000", "134613.312000", "134613.315000", "134651.594000", "134651.597000", "134651.600000", "134651.603000", "134651.606000", "134651.609000", "134651.612000", "134651.615000", "134651.618000", "134651.621000", "134651.624000", "134651.628000", "134651.631000", "134651.634000", "134651.637000", "134651.640000", "134651.643000", "134651.646000", "134651.648000", "134651.651000", "134651.654000", "134651.657000", "134651.660000", "134651.663000", "134651.666000", "134651.669000"],
