{
  "AcquisitionMatrixPE": 104,
  "AcquisitionNumber": 1,
  "AcquisitionTime": "13:23:44.435000",
  "BandwidthPerPixelPhaseEncode": 17.17,
  "BaseResolution": 104,
  "BodyPartExamined": "BRAIN",
  "CoilString": "HC1-7;NC1_2",
  "ConsistencyInfo": "N4_VE11C_LATEST_20160120",
  "ConversionSoftware": "dcm2niix",
  "ConversionSoftwareVersion": "v1.0.20190902",
  "DerivedVendorReportedEchoSpacing": 0.000560011,
  "DeviceSerialNumber": "167006",
  "DwellTime": 2.1e-06,
  "EchoTime": 0.037,
  "EchoTrainLength": 104,
  "EffectiveEchoSpacing": 0.000560011,
  "FlipAngle": 52,
  "ImageComments": "Unaliased_MB4_PE3_LB",
  "ImageOrientationPatientDICOM": [0.998362, 0.0155363, -0.0550684, -0.0277123, 0.97331, -0.227814],
  "ImageType": [
    "ORIGINAL",
    "PRIMARY",
    "M",
    "MB",
    "ND",
    "MOSAIC"
],
  "ImagingFrequency": 123.259,
  "InPlanePhaseEncodingDirectionDICOM": "COL",
  "InstitutionAddress": "Chemin_Queen-Mary_4565_Montreal_District_CA_H3W_1W5",
  "InstitutionName": "IUGM",
  "InstitutionalDepartmentName": "Department",
  "MRAcquisitionType": "2D",
  "MagneticFieldStrength": 3,
  "Manufacturer": "Siemens",
  "ManufacturersModelName": "Prisma_fit",
  "Modality": "MR",
  "MultibandAccelerationFactor": 4,
  "PartialFourier": 1,
  "PatientPosition": "HFS",
  "PercentPhaseFOV": 100,
  "PhaseEncodingDirection": "j",
  "PhaseEncodingSteps": 104,
  "PhaseResolution": 1,
  "PixelBandwidth": 2290,
  "ProcedureStepDescription": "video_friends",
  "ProtocolName": "func_task-friends-s04e13a",
  "PulseSequenceDetails": "%CustomerSeq%_cmrr_mbep2d_bold",
  "ReceiveCoilActiveElements": "HC1-7;NC1,2",
  "ReceiveCoilName": "HeadNeck_64",
  "ReconMatrixPE": 104,
  "RepetitionTime": 1.49,
  "SAR": 0.0295568,
  "ScanOptions": "FS",
  "ScanningSequence": "EP",
  "SequenceName": "epfid2d1_104",
  "SequenceVariant": "SK_SS",
  "SeriesDescription": "func_task-friends-s04e13a",
  "SeriesNumber": 9,
  "ShimSetting": [611, -7247, -8837, 586, -50, -251, 9, 47],
  "SliceThickness": 2,
  "SliceTiming": [0, 0.7825, 0.0975, 0.88, 0.195, 0.98, 0.2925, 1.0775, 0.39, 1.175, 0.49, 1.2725, 0.5875, 1.37, 0.685, 0, 0.7825, 0.0975, 0.88, 0.195, 0.98, 0.2925, 1.0775, 0.39, 1.175, 0.49, 1.2725, 0.5875, 1.37, 0.685, 0, 0.7825, 0.0975, 0.88, 0.195, 0.98, 0.2925, 1.0775, 0.39, 1.175, 0.49, 1.2725, 0.5875, 1.37, 0.685, 0, 0.7825, 0.0975, 0.88, 0.195, 0.98, 0.2925, 1.0775, 0.39, 1.175, 0.49, 1.2725, 0.5875, 1.37, 0.685],
  "SoftwareVersions": "syngo_MR_E11",
  "SpacingBetweenSlices": 2,
  "StationName": "MRC35049",
  "TaskName": "s04e13a",
  "TotalReadoutTime": 0.0576811,
  "TxRefAmp": 216.786,
  "WipMemBlock": "ebdbedcf-56cf-46d4-9148-fb79ed2c2311||Sequence: R016 ve11c/master r/e634e98; Dec 19 2017 11:00:25 by eja",
  "dcmmeta_affine": [
    [-1.9967234134674072, -0.05542469397187233, -0.10011851787567139, 104.38117980957031],
    [-0.03107251413166523, 1.9466204643249512, -0.45793354511260986, -81.29573822021484],
    [-0.11013679951429367, 0.4556278586387634, 1.944292426109314, -49.43502426147461],
    [0.0, 0.0, 0.0, 1.0]
],
  "dcmmeta_reorient_transform": [
    [0.0, -1.0, 0.0, 103.0],
    [1.0, 0.0, 0.0, 0.0],
    [0.0, 0.0, 1.0, 0.0],
    [0.0, 0.0, 0.0, 1.0]
],
  "dcmmeta_shape": [104, 104, 60, 448],
  "dcmmeta_slice_dim": 2,
  "dcmmeta_version": 0.6,
  "global": {
    "const": {
      "AcquisitionMatrix": [104, 0, 0, 104],
      "AngioFlag": "N",
      "BitsAllocated": 16,
      "BitsStored": 16,
      "BodyPartExamined": "BRAIN",
      "Columns": 832,
      "EchoNumbers": 1,
      "EchoTime": 37.0,
      "EchoTrainLength": 104,
      "FlipAngle": 52.0,
      "HighBit": 15,
      "ImageOrientationPatient": [0.99836170612654, 0.01553625711312, -0.0550683979703, -0.0277123471124, 0.97331024941491, -0.2278139245117],
      "ImagePositionPatient": [-805.30517242904, -839.08643188957, 203.43297671967],
      "ImageType": [
        "ORIGINAL",
        "PRIMARY",
        "M",
        "MB",
        "ND",
        "MOSAIC"
],
      "ImagedNucleus": "1H",
      "ImagingFrequency": 123.25901,
      "InPlanePhaseEncodingDirection": "COL",
      "MRAcquisitionType": "2D",
      "MagneticFieldStrength": 3.0,
      "Manufacturer": "SIEMENS",
      "ManufacturerModelName": "Prisma_fit",
      "Modality": "MR",
      "NumberOfAverages": 1.0,
      "NumberOfPhaseEncodingSteps": 104,
      "PercentPhaseFieldOfView": 100.0,
      "PercentSampling": 100.0,
      "PerformedProcedureStepStartTime": "125643.020000",
      "PhotometricInterpretation": "MONOCHROME2",
      "PixelBandwidth": 2290.0,
      "PixelRepresentation": 0,
      "PixelSpacing": [2.0, 2.0],
      "ProtocolName": "func_task-friends-s04e13a",
      "RepetitionTime": 1490.0,
      "Rows": 832,
      "SAR": 0.02955679847841,
      "SamplesPerPixel": 1,
      "ScanOptions": "FS",
      "ScanningSequence": "EP",
      "SequenceName": "epfid2d1_104",
      "SequenceVariant": [
        "SK",
        "SS"
],
      "SeriesDescription": "func_task-friends-s04e13a",
      "SeriesNumber": 9,
      "SeriesTime": "132448.834000",
      "SliceLocation": -34.66929304506,
      "SliceThickness": 2.0,
      "SmallestImagePixelValue": 0,
      "SoftwareVersions": "syngo MR E11",
      "SpacingBetweenSlices": 2.0000000037743,
      "SpecificCharacterSet": "ISO_IR 100",
      "StudyID": "1",
      "StudyTime": "125642.907000",
      "TransmitCoilName": "Body",
      "VariableFlipAngleFlag": "N",
      "WindowCenterWidthExplanation": "Algo1",
      "dBdt": 0.0},
    "slices": {}
  },
  "time": {
    "samples": {
      "AcquisitionNumber": [1, 2, 3, 4, 5, 6, 7, 8, 9, 10, 11, 12, 13, 14, 15, 16, 17, 18, 19, 20, 21, 22, 23, 24, 25, 26, 27, 28, 29, 30, 31, 32, 33, 34, 35, 36, 37, 38, 39, 40, 41, 42, 43, 44, 45, 46, 47, 48, 49, 50, 51, 52, 53, 54, 55, 56, 57, 58, 59, 60, 61, 62, 63, 64, 65, 66, 67, 68, 69, 70, 71, 72, 73, 74, 75, 76, 77, 78, 79, 80, 81, 82, 83, 84, 85, 86, 87, 88, 89, 90, 91, 92, 93, 94, 95, 96, 97, 98, 99, 100, 101, 102, 103, 104, 105, 106, 107, 108, 109, 110, 111, 112, 113, 114, 115, 116, 117, 118, 119, 120, 121, 122, 123, 124, 125, 126, 127, 128, 129, 130, 131, 132, 133, 134, 135, 136, 137, 138, 139, 140, 141, 142, 143, 144, 145, 146, 147, 148, 149, 150, 151, 152, 153, 154, 155, 156, 157, 158, 159, 160, 161, 162, 163, 164, 165, 166, 167, 168, 169, 170, 171, 172, 173, 174, 175, 176, 177, 178, 179, 180, 181, 182, 183, 184, 185, 186, 187, 188, 189, 190, 191, 192, 193, 194, 195, 196, 197, 198, 199, 200, 201, 202, 203, 204, 205, 206, 207, 208, 209, 210, 211, 212, 213, 214, 215, 216, 217, 218, 219, 220, 221, 222, 223, 224, 225, 226, 227, 228, 229, 230, 231, 232, 233, 234, 235, 236, 237, 238, 239, 240, 241, 242, 243, 244, 245, 246, 247, 248, 249, 250, 251, 252, 253, 254, 255, 256, 257, 258, 259, 260, 261, 262, 263, 264, 265, 266, 267, 268, 269, 270, 271, 272, 273, 274, 275, 276, 277, 278, 279, 280, 281, 282, 283, 284, 285, 286, 287, 288, 289, 290, 291, 292, 293, 294, 295, 296, 297, 298, 299, 300, 301, 302, 303, 304, 305, 306, 307, 308, 309, 310, 311, 312, 313, 314, 315, 316, 317, 318, 319, 320, 321, 322, 323, 324, 325, 326, 327, 328, 329, 330, 331, 332, 333, 334, 335, 336, 337, 338, 339, 340, 341, 342, 343, 344, 345, 346, 347, 348, 349, 350, 351, 352, 353, 354, 355, 356, 357, 358, 359, 360, 361, 362, 363, 364, 365, 366, 367, 368, 369, 370, 371, 372, 373, 374, 375, 376, 377, 378, 379, 380, 381, 382, 383, 384, 385, 386, 387, 388, 389, 390, 391, 392, 393, 394, 395, 396, 397, 398, 399, 400, 401, 402, 403, 404, 405, 406, 407, 408, 409, 410, 411, 412, 413, 414, 415, 416, 417, 418, 419, 420, 421, 422, 423, 424, 425, 426, 427, 428, 429, 430, 431, 432, 433, 434, 435, 436, 437, 438, 439, 440, 441, 442, 443, 444, 445, 446, 447, 448],
      "AcquisitionTime": ["132344.435000", "132345.925000", "132347.415000", "132348.905000", "132350.395000", "132351.885000", "132353.375000", "132354.865000", "132356.355000", "132357.845000", "132359.335000", "132400.825000", "132402.315000", "132403.805000", "132405.295000", "132406.785000", "132408.275000", "132409.765000", "132411.255000", "132412.745000", "132414.235000", "132415.725000", "132417.215000", "132418.705000", "132420.195000", "132421.685000", "132423.175000", "132424.665000", "132426.155000", "132427.645000", "132429.135000", "132430.625000", "132432.115000", "132433.605000", "132435.095000", "132436.585000", "132438.075000", "132439.565000", "132441.055000", "132442.545000", "132444.035000", "132445.525000", "132447.015000", "132448.505000", "132449.995000", "132451.485000", "132452.975000", "132454.465000", "132455.955000", "132457.445000", "132458.935000", "132500.425000", "132501.915000", "132503.405000", "132504.895000", "132506.385000", "132507.875000", "132509.365000", "132510.855000", "132512.345000", "132513.835000", "132515.325000", "132516.815000", "132518.305000", "132519.795000", "132521.285000", "132522.775000", "132524.265000", "132525.755000", "132527.245000", "132528.735000", "132530.225000", "132531.715000", "132533.205000", "132534.695000", "132536.185000", "132537.675000", "132539.165000", "132540.655000", "132542.145000", "132543.635000", "132545.125000", "132546.615000", "132548.105000", "132549.595000", "132551.085000", "132552.575000", "132554.065000", "132555.555000", "132557.045000", "132558.535000", "132600.025000", "132601.515000", "132603.005000", "132604.495000", "132605.985000", "132607.475000", "132608.965000", "132610.455000", "132611.945000", "132613.435000", "132614.925000", "132616.415000", "132617.905000", "132619.395000", "132620.885000", "132622.375000", "132623.865000", "132625.355000", "132626.845000", "132628.335000", "132629.825000", "132631.315000", "132632.805000", "132634.295000", "132635.785000", "132637.275000", "132638.765000", "132640.255000", "132641.745000", "132643.235000", "132644.725000", "132646.215000", "132647.705000", "132649.195000", "132650.685000", "132652.175000", "132653.665000", "132655.155000", "132656.645000", "132658.135000", "132659.625000", "132701.115000", "132702.605000", "132704.095000", "132705.585000", "132707.075000", "132708.565000", "132710.055000", "132711.545000", "132713.035000", "132714.525000", "132716.015000", "132717.505000", "132718.995000", "132720.485000", "132721.975000", "132723.465000", "132724.955000", "132726.445000", "132727.935000", "132729.425000", "132730.915000", "132732.405000", "132733.895000", "132735.385000", "132736.875000", "132738.365000", "132739.855000", "132741.345000", "132742.835000", "132744.325000", "132745.815000", "132747.305000", "132748.795000", "132750.285000", "132751.775000", "132753.265000", "132754.755000", "132756.245000", "132757.735000", "132759.225000", "132800.715000", "132802.205000", "132803.695000", "132805.185000", "132806.675000", "132808.165000", "132809.655000", "132811.145000", "132812.635000", "132814.125000", "132815.615000", "132817.105000", "132818.595000", "132820.085000", "132821.575000", "132823.065000", "132824.555000", "132826.045000", "132827.535000", "132829.025000", "132830.515000", "132832.005000", "132833.495000", "132834.985000", "132836.475000", "132837.965000", "132839.455000", "132840.945000", "132842.435000", "132843.925000", "132845.415000", "132846.905000", "132848.395000", "132849.885000", "132851.375000", "132852.865000", "132854.355000", "132855.845000", "132857.335000", "132858.825000", "132900.315000", "132901.805000", "132903.295000", "132904.785000", "132906.275000", "132907.765000", "132909.255000", "132910.745000", "132912.235000", "132913.725000", "132915.215000", "132916.705000", "132918.195000", "132919.685000", "132921.175000", "132922.665000", "132924.155000", "132925.645000", "132927.135000", "132928.625000", "132930.115000", "132931.605000", "132933.095000", "132934.585000", "132936.075000", "132937.565000", "132939.055000", "132940.545000", "132942.035000", "132943.525000", "132945.015000", "132946.505000", "132947.995000", "132949.485000", "132950.975000", "132952.465000", "132953.955000", "132955.445000", "132956.935000", "132958.425000", "132959.915000", "133001.405000", "133002.895000", "133004.385000", "133005.875000", "133007.365000", "133008.855000", "133010.345000", "133011.835000", "133013.325000", "133014.815000", "133016.305000", "133017.795000", "133019.285000", "133020.775000", "133022.265000", "133023.755000", "133025.245000", "133026.735000", "133028.225000", "133029.715000", "133031.205000", "133032.695000", "133034.185000", "133035.675000", "133037.165000", "133038.655000", "133040.145000", "133041.635000", "133043.125000", "133044.615000", "133046.105000", "133047.595000", "133049.085000", "133050.575000", "133052.065000", "133053.555000", "133055.045000", "133056.535000", "133058.025000", "133059.515000", "133101.005000", "133102.495000", "133103.985000", "133105.475000", "133106.965000", "133108.455000", "133109.945000", "133111.435000", "133112.925000", "133114.415000", "133115.905000", "133117.395000", "133118.885000", "133120.375000", "133121.865000", "133123.355000", "133124.845000", "133126.335000", "133127.825000", "133129.315000", "133130.805000", "133132.295000", "133133.785000", "133135.275000", "133136.765000", "133138.255000", "133139.745000", "133141.235000", "133142.725000", "133144.215000", "133145.705000", "133147.195000", "133148.685000", "133150.175000", "133151.665000", "133153.155000", "133154.645000", "133156.135000", "133157.625000", "133159.115000", "133200.605000", "133202.095000", "133203.585000", "133205.075000", "133206.565000", "133208.055000", "133209.545000", "133211.035000", "133212.525000", "133214.015000", "133215.505000", "133216.995000", "133218.485000", "133219.975000", "133221.465000", "133222.955000", "133224.445000", "133225.935000", "133227.425000", "133228.915000", "133230.405000", "133231.895000", "133233.385000", "133234.875000", "133236.365000", "133237.855000", "133239.345000", "133240.835000", "133242.325000", "133243.815000", "133245.305000", "133246.795000", "133248.285000", "133249.775000", "133251.265000", "133252.755000", "133254.245000", "133255.735000", "133257.225000", "133258.715000", "133300.205000", "133301.695000", "133303.185000", "133304.675000", "133306.165000", "133307.655000", "133309.145000", "133310.635000", "133312.125000", "133313.615000", "133315.105000", "133316.595000", "133318.085000", "133319.575000", "133321.065000", "133322.555000", "133324.045000", "133325.535000", "133327.025000", "133328.515000", "133330.005000", "133331.495000", "133332.985000", "133334.475000", "133335.965000", "133337.455000", "133338.945000", "133340.435000", "133341.925000", "133343.415000", "133344.905000", "133346.395000", "133347.885000", "133349.375000", "133350.865000", "133352.355000", "133353.845000", "133355.335000", "133356.825000", "133358.315000", "133359.805000", "133401.295000", "133402.785000", "133404.275000", "133405.765000", "133407.255000", "133408.745000", "133410.235000", "133411.725000", "133413.215000", "133414.705000", "133416.195000", "133417.685000", "133419.175000", "133420.665000", "133422.155000", "133423.645000", "133425.135000", "133426.625000", "133428.115000", "133429.605000", "133431.095000", "133432.585000", "133434.075000", "133435.565000", "133437.055000", "133438.545000", "133440.035000", "133441.525000", "133443.015000", "133444.505000", "133445.995000", "133447.485000", "133448.975000", "133450.465000"],
      "ContentTime": ["132448.836000", "132448.840000", "132448.843000", "132448.846000", "132448.849000", "132448.863000", "132448.866000", "132448.869000", "132448.872000", "132448.875000", "132448.878000", "132508.804000", "132508.807000", "132508.810000", "132508.813000", "132508.815000", "132508.818000", "132508.833000", "132508.836000", "132508.839000", "132508.842000", "132508.845000", "132508.848000", "132508.851000", "132508.854000", "132508.857000", "132508.859000", "132508.862000", "132508.865000", "132508.868000", "132508.880000", "132528.804000", "132528.807000", "132528.810000", "132528.813000", "132528.816000", "132528.818000", "132528.821000", "132528.824000", "132528.827000", "132528.830000", "132528.833000", "132528.836000", "132528.838000", "132528.841000", "132528.844000", "132528.847000", "132528.850000", "132528.853000", "132528.857000", "132528.860000", "132548.804000", "132548.807000", "132548.810000", "132548.813000", "132548.816000", "132548.819000", "132548.821000", "132548.824000", "132548.827000", "132548.830000", "132548.833000", "132548.836000", "132548.839000", "132548.842000", "132548.845000", "132548.847000", "132548.850000", "132548.853000", "132548.856000", "132548.859000", "132608.804000", "132608.807000", "132608.810000", "132608.813000", "132608.816000", "132608.818000", "132608.832000", "132608.835000", "132608.838000", "132608.841000", "132608.844000", "132608.847000", "132608.849000", "132608.852000", "132608.855000", "132608.858000", "132608.861000", "132608.864000", "132608.867000", "132608.870000", "132648.803000", "132648.806000", "132648.809000", "132648.812000", "132648.815000", "132648.818000", "132648.821000", "132648.823000", "132648.826000", "132648.829000", "132648.832000", "132648.835000", "132648.838000", "132648.841000", "132648.844000", "132648.847000", "132648.849000", "132648.866000", "132648.869000", "132648.871000", "132648.874000", "132648.877000", "132648.881000", "132648.883000", "132648.886000", "132648.889000", "132648.892000", "132648.895000", "132648.898000", "132648.901000", "132648.904000", "132648.907000", "132728.804000", "132728.807000", "132728.810000", "132728.813000", "132728.816000", "132728.818000", "132728.821000", "132728.824000", "132728.827000", "132728.830000", "132728.833000", "132728.836000", "132728.839000", "132728.842000", "132728.845000", "132728.848000", "132728.850000", "132728.853000", "132728.856000", "132728.859000", "132728.862000", "132728.865000", "132728.868000", "132728.871000", "132728.874000", "132728.877000", "132728.880000", "132808.804000", "132808.807000", "132808.810000", "132808.813000", "132808.816000", "132808.819000", "132808.822000", "132808.825000", "132808.827000", "132808.830000", "132808.833000", "132808.836000", "132808.839000", "132808.842000", "132808.845000", "132808.848000", "132808.850000", "132808.853000", "132808.856000", "132808.859000", "132808.862000", "132808.865000", "132808.868000", "132808.871000", "132808.874000", "132808.877000", "132808.880000", "132848.803000", "132848.806000", "132848.809000", "132848.812000", "132848.815000", "132848.818000", "132848.821000", "132848.824000", "132848.827000", "132848.829000", "132848.832000", "132848.835000", "132848.838000", "132848.841000", "132848.844000", "132848.847000", "132848.850000", "132848.853000", "132848.856000", "132848.859000", "132848.862000", "132848.865000", "132848.868000", "132848.870000", "132848.873000", "132848.876000", "132848.879000", "132928.803000", "132928.806000", "132928.809000", "132928.812000", "132928.815000", "132928.818000", "132928.821000", "132928.824000", "132928.827000", "132928.830000", "132928.833000", "132928.835000", "132928.838000", "132928.841000", "132928.844000", "132928.855000", "132928.858000", "132928.861000", "132928.865000", "132928.869000", "132928.872000", "132928.875000", "132928.878000", "132928.882000", "132928.885000", "132928.888000", "133008.804000", "133008.807000", "133008.810000", "133008.813000", "133008.816000", "133008.819000", "133008.822000", "133008.825000", "133008.828000", "133008.831000", "133008.833000", "133008.836000", "133008.839000", "133008.842000", "133008.845000", "133008.848000", "133008.851000", "133008.854000", "133008.857000", "133008.860000", "133008.863000", "133008.865000", "133008.868000", "133008.871000", "133008.874000", "133008.877000", "133008.880000", "133048.804000", "133048.807000", "133048.810000", "133048.813000", "133048.816000", "133048.819000", "133048.822000", "133048.825000", "133048.828000", "133048.831000", "133048.834000", "133048.836000", "133048.839000", "133048.842000", "133048.845000", "133048.848000", "133048.851000", "133048.873000", "133048.876000", "133048.879000", "133048.882000", "133048.885000", "133048.888000", "133048.891000", "133048.894000", "133048.897000", "133048.899000", "133128.803000", "133128.806000", "133128.809000", "133128.812000", "133128.815000", "133128.818000", "133128.821000", "133128.824000", "133128.827000", "133128.830000", "133128.832000", "133128.835000", "133128.838000", "133128.841000", "133128.844000", "133128.847000", "133128.850000", "133128.853000", "133128.856000", "133128.859000", "133128.862000", "133128.865000", "133128.868000", "133128.870000", "133128.873000", "133128.876000", "133128.879000", "133208.804000", "133208.807000", "133208.810000", "133208.813000", "133208.816000", "133208.819000", "133208.822000", "133208.825000", "133208.828000", "133208.830000", "133208.833000", "133208.836000", "133208.839000", "133208.842000", "133208.862000", "133208.865000", "133208.868000", "133208.871000", "133208.875000", "133208.878000", "133208.881000", "133208.891000", "133208.894000", "133208.897000", "133208.899000", "133208.902000", "133208.905000", "133248.804000", "133248.807000", "133248.810000", "133248.813000", "133248.816000", "133248.819000", "133248.822000", "133248.825000", "133248.828000", "133248.831000", "133248.833000", "133248.836000", "133248.839000", "133248.842000", "133248.845000", "133248.848000", "133248.851000", "133248.854000", "133248.857000", "133248.860000", "133248.862000", "133248.865000", "133248.868000", "133248.871000", "133248.874000", "133248.877000", "133248.880000", "133328.803000", "133328.806000", "133328.809000", "133328.812000", "133328.815000", "133328.818000", "133328.821000", "133328.824000", "133328.827000", "133328.830000", "133328.832000", "133328.835000", "133328.838000", "133328.841000", "133328.844000", "133328.847000", "133328.850000", "133328.853000", "133328.856000", "133328.859000", "133328.862000", "133328.864000", "133328.867000", "133328.870000", "133328.873000", "133328.876000", "133328.879000", "133408.804000", "133408.807000", "133408.810000", "133408.813000", "133408.816000", "133408.819000", "133408.822000", "133408.825000", "133408.828000", "133408.831000", "133408.834000", "133408.836000", "133408.839000", "133408.842000", "133408.845000", "133408.848000", "133408.851000", "133408.854000", "133408.857000", "133408.861000", "133408.864000", "133408.867000", "133408.869000", "133408.872000", "133408.875000", "133408.878000", "133428.804000", "133428.807000", "133428.810000", "133428.813000", "133428.816000", "133428.819000", "133428.822000", "133428.825000", "133428.827000", "133428.830000", "133428.833000", "133428.836000", "133428.839000", "133428.842000", "133452.258000", "133452.261000", "133452.264000", "133452.267000", "133452.270000", "133452.273000", "133452.276000", "133452.279000", "133452.282000", "133452.285000", "133452.288000", "133452.291000", "133452.307000", "133452.310000", "133452.313000", "133452.316000"],
