{
  "AcquisitionMatrixPE": 104,
  "AcquisitionNumber": 1,
  "AcquisitionTime": "13:59:23.837500",
  "BandwidthPerPixelPhaseEncode": 17.17,
  "BaseResolution": 104,
  "BodyPartExamined": "BRAIN",
  "CoilCombinationMethod": "Sum of Squares",
  "ConsistencyInfo": "N4_VE11C_LATEST_20160120",
  "ConversionSoftware": "dcm2niix",
  "ConversionSoftwareVersion": "v1.0.20211006",
  "DerivedVendorReportedEchoSpacing": 0.000560011,
  "DeviceSerialNumber": "167006",
  "DwellTime": 2.1e-06,
  "EchoTime": 0.037,
  "EchoTrainLength": 104,
  "EffectiveEchoSpacing": 0.000560011,
  "FlipAngle": 52,
  "HeudiconvVersion": "0.11.3.post9+gc939bf8",
  "ImageComments": "Unaliased MB4/PE3/LB",
  "ImageOrientationPatientDICOM": [0.999177, 0.0404125, 0.00357897, -0.0382099, 0.96702, -0.251818],
  "ImageOrientationText": "Tra>Cor(-14.6)>Sag(0.8)",
  "ImageType": [
    "ORIGINAL",
    "PRIMARY",
    "M",
    "MB",
    "ND",
    "MOSAIC"
],
  "ImagingFrequency": 123.259,
  "InPlanePhaseEncodingDirectionDICOM": "COL",
  "InstitutionAddress": "Chemin Queen-Mary 4565,Montreal,District,CA,H3W 1W5",
  "InstitutionName": "IUGM",
  "InstitutionalDepartmentName": "Department",
  "MRAcquisitionType": "2D",
  "MagneticFieldStrength": 3,
  "Manufacturer": "Siemens",
  "ManufacturersModelName": "Prisma_fit",
  "MatrixCoilMode": "SENSE",
  "Modality": "MR",
  "MultibandAccelerationFactor": 4,
  "PartialFourier": 1,
  "PatientPosition": "HFS",
  "PercentPhaseFOV": 100,
  "PercentSampling": 100,
  "PhaseEncodingDirection": "j",
  "PhaseEncodingSteps": 104,
  "PhaseResolution": 1,
  "PixelBandwidth": 2290,
  "ProcedureStepDescription": "video^friends",
  "ProtocolName": "func_task-friends-s06e24b",
  "PulseSequenceDetails": "%CustomerSeq%\\cmrr_mbep2d_bold",
  "ReceiveCoilActiveElements": "HC1-7;NC1,2",
  "ReceiveCoilName": "HeadNeck_64",
  "ReconMatrixPE": 104,
  "RepetitionTime": 1.49,
  "SAR": 0.0710509,
  "ScanOptions": "FS",
  "ScanningSequence": "EP",
  "SequenceName": "epfid2d1_104",
  "SequenceVariant": "SK\\SS",
  "SeriesDescription": "func_task-friends-s06e24b",
  "SeriesNumber": 10,
  "ShimSetting": [634, -7227, -8771, 726, 61, -17, 59, -20],
  "SliceThickness": 2,
  "SliceTiming": [0, 0.7825, 0.0975, 0.88, 0.195, 0.9775, 0.2925, 1.0775, 0.39, 1.175, 0.49, 1.2725, 0.5875, 1.37, 0.685, 0, 0.7825, 0.0975, 0.88, 0.195, 0.9775, 0.2925, 1.0775, 0.39, 1.175, 0.49, 1.2725, 0.5875, 1.37, 0.685, 0, 0.7825, 0.0975, 0.88, 0.195, 0.9775, 0.2925, 1.0775, 0.39, 1.175, 0.49, 1.2725, 0.5875, 1.37, 0.685, 0, 0.7825, 0.0975, 0.88, 0.195, 0.9775, 0.2925, 1.0775, 0.39, 1.175, 0.49, 1.2725, 0.5875, 1.37, 0.685],
  "SoftwareVersions": "syngo MR E11",
  "SpacingBetweenSlices": 2,
  "StationName": "MRC35049",
  "TaskName": "s06e24b",
  "TotalReadoutTime": 0.0576811,
  "TxRefAmp": 246.236,
  "WipMemBlock": "a21d656b-8f31-42fe-a4de-7322b62d1b8f||Sequence: R017 ve11c/master r/75a17815+; Jun 28 2022 16:32:11 by eja",
  "dcmmeta_affine": [
    [-1.998353362083435, -0.07641984522342682, 0.027275091037154198, 107.99723052978516],
    [-0.08082503825426102, 1.9340399503707886, -0.5029482245445251, -78.69669342041016],
    [0.007157944142818451, 0.503636360168457, 1.9355359077453613, -57.619537353515625],
    [0.0, 0.0, 0.0, 1.0]
],
  "dcmmeta_reorient_transform": [
    [0.0, -1.0, 0.0, 103.0],
    [1.0, 0.0, 0.0, 0.0],
    [0.0, 0.0, 1.0, 0.0],
    [0.0, 0.0, 0.0, 1.0]
],
  "dcmmeta_shape": [104, 104, 60, 461],
  "dcmmeta_slice_dim": 2,
  "dcmmeta_version": 0.6,
  "global": {
    "const": {
      "AcquisitionMatrix": [104, 0, 0, 104],
      "AngioFlag": "N",
      "BitsAllocated": 16,
      "BitsStored": 16,
      "BodyPartExamined": "BRAIN",
      "Columns": 832,
      "EchoNumbers": 1,
      "EchoTime": 37.0,
      "EchoTrainLength": 104,
      "FlipAngle": 52.0,
      "HighBit": 15,
      "ImageOrientationPatient": [0.99917667070639, 0.04041251879413, 0.00357897203341, -0.0382099213528, 0.9670199589511, -0.2518181901699],
      "ImagePositionPatient": [-799.70977866978, -853.9202583279, 174.97315891458],
      "ImageType": [
        "ORIGINAL",
        "PRIMARY",
        "M",
        "MB",
        "ND",
        "MOSAIC"
],
      "ImagedNucleus": "1H",
      "ImagingFrequency": 123.258826,
      "InPlanePhaseEncodingDirection": "COL",
      "MRAcquisitionType": "2D",
      "MagneticFieldStrength": 3.0,
      "Manufacturer": "SIEMENS",
      "ManufacturerModelName": "Prisma_fit",
      "Modality": "MR",
      "NumberOfAverages": 1.0,
      "NumberOfPhaseEncodingSteps": 104,
      "PercentPhaseFieldOfView": 100.0,
      "PercentSampling": 100.0,
      "PerformedProcedureStepStartTime": "135500.109000",
      "PhotometricInterpretation": "MONOCHROME2",
      "PixelBandwidth": 2290.0,
      "PixelRepresentation": 0,
      "PixelSpacing": [2.0, 2.0],
      "ProtocolName": "func_task-friends-s06e24b",
      "RepetitionTime": 1490.0,
      "Rows": 832,
      "SAR": 0.07105085196837,
      "SamplesPerPixel": 1,
      "ScanOptions": "FS",
      "ScanningSequence": "EP",
      "SequenceName": "epfid2d1_104",
      "SequenceVariant": [
        "SK",
        "SS"
],
      "SeriesDescription": "func_task-friends-s06e24b",
      "SeriesNumber": 10,
      "SeriesTime": "140050.950000",
      "SliceLocation": -34.499343978477,
      "SliceThickness": 2.0,
      "SmallestImagePixelValue": 0,
      "SoftwareVersions": "syngo MR E11",
      "SpacingBetweenSlices": 2.0000000597765,
      "SpecificCharacterSet": "ISO_IR 100",
      "StudyID": "1",
      "StudyTime": "135500.008000",
      "TransmitCoilName": "Body",
      "VariableFlipAngleFlag": "N",
      "WindowCenterWidthExplanation": "Algo1",
      "dBdt": 0.0},
    "slices": {}
  },
  "time": {
    "samples": {
      "AcquisitionNumber": [1, 2, 3, 4, 5, 6, 7, 8, 9, 10, 11, 12, 13, 14, 15, 16, 17, 18, 19, 20, 21, 22, 23, 24, 25, 26, 27, 28, 29, 30, 31, 32, 33, 34, 35, 36, 37, 38, 39, 40, 41, 42, 43, 44, 45, 46, 47, 48, 49, 50, 51, 52, 53, 54, 55, 56, 57, 58, 59, 60, 61, 62, 63, 64, 65, 66, 67, 68, 69, 70, 71, 72, 73, 74, 75, 76, 77, 78, 79, 80, 81, 82, 83, 84, 85, 86, 87, 88, 89, 90, 91, 92, 93, 94, 95, 96, 97, 98, 99, 100, 101, 102, 103, 104, 105, 106, 107, 108, 109, 110, 111, 112, 113, 114, 115, 116, 117, 118, 119, 120, 121, 122, 123, 124, 125, 126, 127, 128, 129, 130, 131, 132, 133, 134, 135, 136, 137, 138, 139, 140, 141, 142, 143, 144, 145, 146, 147, 148, 149, 150, 151, 152, 153, 154, 155, 156, 157, 158, 159, 160, 161, 162, 163, 164, 165, 166, 167, 168, 169, 170, 171, 172, 173, 174, 175, 176, 177, 178, 179, 180, 181, 182, 183, 184, 185, 186, 187, 188, 189, 190, 191, 192, 193, 194, 195, 196, 197, 198, 199, 200, 201, 202, 203, 204, 205, 206, 207, 208, 209, 210, 211, 212, 213, 214, 215, 216, 217, 218, 219, 220, 221, 222, 223, 224, 225, 226, 227, 228, 229, 230, 231, 232, 233, 234, 235, 236, 237, 238, 239, 240, 241, 242, 243, 244, 245, 246, 247, 248, 249, 250, 251, 252, 253, 254, 255, 256, 257, 258, 259, 260, 261, 262, 263, 264, 265, 266, 267, 268, 269, 270, 271, 272, 273, 274, 275, 276, 277, 278, 279, 280, 281, 282, 283, 284, 285, 286, 287, 288, 289, 290, 291, 292, 293, 294, 295, 296, 297, 298, 299, 300, 301, 302, 303, 304, 305, 306, 307, 308, 309, 310, 311, 312, 313, 314, 315, 316, 317, 318, 319, 320, 321, 322, 323, 324, 325, 326, 327, 328, 329, 330, 331, 332, 333, 334, 335, 336, 337, 338, 339, 340, 341, 342, 343, 344, 345, 346, 347, 348, 349, 350, 351, 352, 353, 354, 355, 356, 357, 358, 359, 360, 361, 362, 363, 364, 365, 366, 367, 368, 369, 370, 371, 372, 373, 374, 375, 376, 377, 378, 379, 380, 381, 382, 383, 384, 385, 386, 387, 388, 389, 390, 391, 392, 393, 394, 395, 396, 397, 398, 399, 400, 401, 402, 403, 404, 405, 406, 407, 408, 409, 410, 411, 412, 413, 414, 415, 416, 417, 418, 419, 420, 421, 422, 423, 424, 425, 426, 427, 428, 429, 430, 431, 432, 433, 434, 435, 436, 437, 438, 439, 440, 441, 442, 443, 444, 445, 446, 447, 448, 449, 450, 451, 452, 453, 454, 455, 456, 457, 458, 459, 460, 461],
      "AcquisitionTime": ["135923.837500", "135925.327500", "135926.817500", "135928.307500", "135929.797500", "135931.287500", "135932.777500", "135934.267500", "135935.757500", "135937.247500", "135938.737500", "135940.227500", "135941.717500", "135943.207500", "135944.697500", "135946.187500", "135947.677500", "135949.167500", "135950.657500", "135952.147500", "135953.637500", "135955.127500", "135956.617500", "135958.107500", "135959.597500", "140001.087500", "140002.577500", "140004.067500", "140005.557500", "140007.047500", "140008.537500", "140010.027500", "140011.517500", "140013.007500", "140014.497500", "140015.987500", "140017.477500", "140018.967500", "140020.457500", "140021.947500", "140023.437500", "140024.927500", "140026.417500", "140027.907500", "140029.397500", "140030.887500", "140032.377500", "140033.867500", "140035.357500", "140036.847500", "140038.337500", "140039.827500", "140041.317500", "140042.807500", "140044.297500", "140045.787500", "140047.277500", "140048.767500", "140050.257500", "140051.747500", "140053.237500", "140054.727500", "140056.217500", "140057.707500", "140059.197500", "140100.687500", "140102.177500", "140103.667500", "140105.157500", "140106.647500", "140108.137500", "140109.627500", "140111.117500", "140112.607500", "140114.097500", "140115.587500", "140117.077500", "140118.567500", "140120.057500", "140121.547500", "140123.037500", "140124.527500", "140126.017500", "140127.507500", "140128.997500", "140130.487500", "140131.977500", "140133.467500", "140134.957500", "140136.447500", "140137.937500", "140139.427500", "140140.917500", "140142.407500", "140143.897500", "140145.387500", "140146.877500", "140148.367500", "140149.857500", "140151.347500", "140152.837500", "140154.327500", "140155.817500", "140157.307500", "140158.797500", "140200.287500", "140201.777500", "140203.267500", "140204.757500", "140206.247500", "140207.737500", "140209.227500", "140210.717500", "140212.207500", "140213.697500", "140215.187500", "140216.677500", "140218.167500", "140219.657500", "140221.147500", "140222.637500", "140224.127500", "140225.617500", "140227.107500", "140228.597500", "140230.087500", "140231.577500", "140233.067500", "140234.557500", "140236.047500", "140237.537500", "140239.027500", "140240.517500", "140242.007500", "140243.497500", "140244.987500", "140246.477500", "140247.967500", "140249.457500", "140250.947500", "140252.437500", "140253.927500", "140255.417500", "140256.907500", "140258.397500", "140259.887500", "140301.377500", "140302.867500", "140304.357500", "140305.847500", "140307.337500", "140308.827500", "140310.317500", "140311.807500", "140313.297500", "140314.787500", "140316.277500", "140317.767500", "140319.257500", "140320.747500", "140322.237500", "140323.727500", "140325.217500", "140326.707500", "140328.197500", "140329.687500", "140331.177500", "140332.667500", "140334.157500", "140335.647500", "140337.137500", "140338.627500", "140340.117500", "140341.607500", "140343.097500", "140344.587500", "140346.077500", "140347.567500", "140349.057500", "140350.547500", "140352.037500", "140353.527500", "140355.017500", "140356.507500", "140357.997500", "140359.487500", "140400.977500", "140402.467500", "140403.957500", "140405.447500", "140406.937500", "140408.427500", "140409.917500", "140411.407500", "140412.897500", "140414.387500", "140415.877500", "140417.367500", "140418.857500", "140420.347500", "140421.837500", "140423.327500", "140424.817500", "140426.307500", "140427.797500", "140429.287500", "140430.777500", "140432.267500", "140433.757500", "140435.247500", "140436.737500", "140438.227500", "140439.717500", "140441.207500", "140442.697500", "140444.187500", "140445.677500", "140447.167500", "140448.657500", "140450.147500", "140451.637500", "140453.127500", "140454.617500", "140456.107500", "140457.597500", "140459.087500", "140500.577500", "140502.067500", "140503.557500", "140505.047500", "140506.537500", "140508.027500", "140509.517500", "140511.007500", "140512.497500", "140513.987500", "140515.477500", "140516.967500", "140518.457500", "140519.947500", "140521.437500", "140522.927500", "140524.417500", "140525.907500", "140527.397500", "140528.887500", "140530.377500", "140531.867500", "140533.357500", "140534.847500", "140536.337500", "140537.827500", "140539.317500", "140540.807500", "140542.297500", "140543.787500", "140545.277500", "140546.767500", "140548.257500", "140549.747500", "140551.237500", "140552.727500", "140554.217500", "140555.707500", "140557.197500", "140558.687500", "140600.177500", "140601.667500", "140603.157500", "140604.647500", "140606.137500", "140607.627500", "140609.117500", "140610.607500", "140612.097500", "140613.587500", "140615.077500", "140616.567500", "140618.057500", "140619.547500", "140621.037500", "140622.527500", "140624.017500", "140625.507500", "140626.997500", "140628.487500", "140629.977500", "140631.467500", "140632.957500", "140634.447500", "140635.937500", "140637.427500", "140638.917500", "140640.407500", "140641.897500", "140643.387500", "140644.877500", "140646.367500", "140647.857500", "140649.347500", "140650.837500", "140652.327500", "140653.817500", "140655.307500", "140656.797500", "140658.287500", "140659.777500", "140701.267500", "140702.757500", "140704.247500", "140705.737500", "140707.227500", "140708.717500", "140710.207500", "140711.697500", "140713.187500", "140714.677500", "140716.167500", "140717.657500", "140719.147500", "140720.637500", "140722.127500", "140723.617500", "140725.107500", "140726.597500", "140728.087500", "140729.577500", "140731.067500", "140732.557500", "140734.047500", "140735.537500", "140737.027500", "140738.517500", "140740.007500", "140741.497500", "140742.987500", "140744.477500", "140745.967500", "140747.457500", "140748.947500", "140750.437500", "140751.927500", "140753.417500", "140754.907500", "140756.397500", "140757.887500", "140759.377500", "140800.867500", "140802.357500", "140803.847500", "140805.337500", "140806.827500", "140808.317500", "140809.807500", "140811.297500", "140812.787500", "140814.277500", "140815.767500", "140817.257500", "140818.747500", "140820.237500", "140821.727500", "140823.217500", "140824.707500", "140826.197500", "140827.687500", "140829.177500", "140830.667500", "140832.157500", "140833.647500", "140835.137500", "140836.627500", "140838.117500", "140839.607500", "140841.097500", "140842.587500", "140844.077500", "140845.567500", "140847.057500", "140848.547500", "140850.037500", "140851.527500", "140853.017500", "140854.507500", "140855.997500", "140857.487500", "140858.977500", "140900.467500", "140901.957500", "140903.447500", "140904.937500", "140906.427500", "140907.917500", "140909.407500", "140910.897500", "140912.387500", "140913.877500", "140915.367500", "140916.857500", "140918.347500", "140919.837500", "140921.327500", "140922.817500", "140924.307500", "140925.797500", "140927.287500", "140928.777500", "140930.267500", "140931.757500", "140933.247500", "140934.737500", "140936.227500", "140937.717500", "140939.207500", "140940.697500", "140942.187500", "140943.677500", "140945.167500", "140946.657500", "140948.147500", "140949.637500", "140951.127500", "140952.617500", "140954.107500", "140955.597500", "140957.087500", "140958.577500", "141000.067500", "141001.557500", "141003.047500", "141004.537500", "141006.027500", "141007.517500", "141009.007500", "141010.497500", "141011.987500", "141013.477500", "141014.967500", "141016.457500", "141017.947500", "141019.437500", "141020.927500", "141022.417500", "141023.907500", "141025.397500", "141026.887500", "141028.377500", "141029.867500", "141031.357500", "141032.847500", "141034.337500", "141035.827500", "141037.317500", "141038.807500", "141040.297500", "141041.787500", "141043.277500", "141044.767500", "141046.257500", "141047.747500", "141049.237500"],
      "ContentTime": ["140050.953000", "140050.956000", "140050.959000", "140050.962000", "140050.965000", "140050.968000", "140050.971000", "140050.973000", "140050.976000", "140050.979000", "140050.982000", "140050.993000", "140050.996000", "140051.000000", "140051.003000", "140051.006000", "140051.009000", "140051.012000", "140051.020000", "140051.023000", "140051.026000", "140051.029000", "140051.031000", "140051.034000", "140051.037000", "140051.063000", "140051.066000", "140051.069000", "140051.071000", "140051.074000", "140051.077000", "140051.080000", "140051.083000", "140051.086000", "140051.089000", "140051.092000", "140051.095000", "140051.098000", "140051.101000", "140110.905000", "140110.908000", "140110.911000", "140110.914000", "140110.917000", "140110.920000", "140110.922000", "140110.925000", "140110.928000", "140110.931000", "140110.934000", "140110.937000", "140110.940000", "140110.942000", "140110.945000", "140110.948000", "140110.951000", "140110.954000", "140110.957000", "140110.960000", "140130.905000", "140130.908000", "140130.911000", "140130.914000", "140130.917000", "140130.919000", "140130.922000", "140130.925000", "140130.928000", "140130.931000", "140130.934000", "140130.937000", "140130.940000", "140130.942000", "140130.945000", "140130.948000", "140130.951000", "140130.954000", "140130.957000", "140130.960000", "140210.905000", "140210.908000", "140210.911000", "140210.914000", "140210.917000", "140210.919000", "140210.922000", "140210.925000", "140210.928000", "140210.931000", "140210.934000", "140210.937000", "140210.939000", "140210.952000", "140210.955000", "140210.957000", "140210.960000", "140210.963000", "140210.966000", "140210.969000", "140210.972000", "140210.975000", "140210.978000", "140210.980000", "140210.983000", "140210.986000", "140210.989000", "140210.992000", "140210.995000", "140210.998000", "140211.002000", "140211.005000", "140250.905000", "140250.908000", "140250.911000", "140250.914000", "140250.917000", "140250.920000", "140250.923000", "140250.926000", "140250.928000", "140250.931000", "140250.934000", "140250.937000", "140250.940000", "140250.943000", "140250.946000", "140250.949000", "140250.952000", "140250.955000", "140250.964000", "140250.966000", "140250.969000", "140250.972000", "140250.975000", "140250.978000", "140250.981000", "140250.984000", "140250.987000", "140330.905000", "140330.908000", "140330.911000", "140330.914000", "140330.917000", "140330.920000", "140330.923000", "140330.926000", "140330.928000", "140330.931000", "140330.934000", "140330.937000", "140330.940000", "140330.943000", "140330.953000", "140330.956000", "140330.959000", "140330.962000", "140330.965000", "140330.968000", "140330.971000", "140330.974000", "140330.976000", "140330.979000", "140330.982000", "140330.985000", "140330.988000", "140410.905000", "140410.908000", "140410.911000", "140410.914000", "140410.917000", "140410.924000", "140410.926000", "140410.929000", "140410.932000", "140410.935000", "140410.938000", "140410.941000", "140410.944000", "140410.947000", "140410.950000", "140410.952000", "140410.955000", "140410.958000", "140410.961000", "140410.964000", "140410.967000", "140410.970000", "140410.973000", "140410.975000", "140410.978000", "140410.981000", "140410.984000", "140450.905000", "140450.908000", "140450.911000", "140450.914000", "140450.917000", "140450.919000", "140450.922000", "140450.925000", "140450.928000", "140450.931000", "140450.934000", "140450.937000", "140450.940000", "140450.943000", "140450.945000", "140450.948000", "140450.951000", "140450.954000", "140450.957000", "140450.960000", "140450.963000", "140450.966000", "140450.968000", "140450.971000", "140450.974000", "140450.977000", "140450.980000", "140530.905000", "140530.908000", "140530.925000", "140530.928000", "140530.931000", "140530.934000", "140530.937000", "140530.940000", "140530.943000", "140530.946000", "140530.948000", "140530.951000", "140530.954000", "140530.957000", "140530.960000", "140530.963000", "140530.966000", "140530.969000", "140530.972000", "140530.974000", "140530.977000", "140530.980000", "140530.983000", "140530.986000", "140530.989000", "140530.992000", "140550.905000", "140550.908000", "140550.911000", "140550.914000", "140550.924000", "140550.927000", "140550.930000", "140550.933000", "140550.935000", "140550.938000", "140550.941000", "140550.944000", "140550.947000", "140550.950000", "140630.905000", "140630.908000", "140630.911000", "140630.914000", "140630.917000", "140630.920000", "140630.923000", "140630.925000", "140630.928000", "140630.931000", "140630.934000", "140630.937000", "140630.940000", "140630.943000", "140630.946000", "140630.949000", "140630.952000", "140630.954000", "140630.957000", "140630.960000", "140630.963000", "140630.966000", "140630.969000", "140630.972000", "140630.974000", "140630.977000", "140630.980000", "140710.905000", "140710.908000", "140710.911000", "140710.914000", "140710.917000", "140710.920000", "140710.922000", "140710.925000", "140710.928000", "140710.931000", "140710.934000", "140710.937000", "140710.940000", "140710.943000", "140710.946000", "140710.949000", "140710.951000", "140710.954000", "140710.957000", "140710.960000", "140710.963000", "140710.966000", "140710.969000", "140710.972000", "140710.975000", "140710.977000", "140710.980000", "140750.905000", "140750.908000", "140750.911000", "140750.914000", "140750.917000", "140750.920000", "140750.923000", "140750.926000", "140750.928000", "140750.931000", "140750.934000", "140750.938000", "140750.941000", "140750.944000", "140750.947000", "140750.950000", "140750.953000", "140750.956000", "140750.959000", "140750.961000", "140750.964000", "140750.967000", "140750.970000", "140750.973000", "140750.976000", "140750.979000", "140830.905000", "140830.908000", "140830.911000", "140830.914000", "140830.917000", "140830.920000", "140830.923000", "140830.925000", "140830.928000", "140830.931000", "140830.934000", "140830.937000", "140830.940000", "140830.943000", "140830.946000", "140830.949000", "140830.952000", "140830.955000", "140830.957000", "140830.960000", "140830.963000", "140830.966000", "140830.969000", "140830.972000", "140830.975000", "140830.985000", "140830.988000", "140910.905000", "140910.908000", "140910.911000", "140910.914000", "140910.917000", "140910.920000", "140910.923000", "140910.925000", "140910.928000", "140910.931000", "140910.934000", "140910.937000", "140910.940000", "140910.943000", "140910.946000", "140910.949000", "140910.952000", "140910.954000", "140910.957000", "140910.960000", "140910.963000", "140910.966000", "140910.969000", "140910.972000", "140910.975000", "140910.978000", "140910.981000", "140950.905000", "140950.908000", "140950.911000", "140950.914000", "140950.917000", "140950.920000", "140950.923000", "140950.925000", "140950.928000", "140950.931000", "140950.934000", "140950.937000", "140950.953000", "140950.956000", "140950.959000", "140950.962000", "140950.965000", "140950.968000", "140950.970000", "140950.973000", "140950.976000", "140950.979000", "140950.982000", "140950.985000", "140950.988000", "140950.991000", "140950.994000", "141030.905000", "141030.908000", "141030.911000", "141030.914000", "141030.917000", "141030.920000", "141030.923000", "141030.926000", "141030.929000", "141030.931000", "141030.934000", "141030.937000", "141030.940000", "141030.943000", "141030.946000", "141030.949000", "141030.952000", "141030.955000", "141030.958000", "141030.960000", "141030.963000", "141030.966000", "141030.969000", "141030.972000", "141030.975000", "141030.978000", "141030.981000", "141051.428000", "141051.431000", "141051.434000", "141051.437000", "141051.440000", "141051.443000", "141051.445000", "141051.448000", "141051.451000", "141051.454000", "141051.457000", "141051.460000", "141051.463000", "141051.467000"],
