{
  "AcquisitionMatrixPE": 104,
  "AcquisitionNumber": 1,
  "AcquisitionTime": "15:24:13.660000",
  "BandwidthPerPixelPhaseEncode": 17.17,
  "BaseResolution": 104,
  "BodyPartExamined": "BRAIN",
  "CoilString": "HC1-7;NC1_2",
  "ConsistencyInfo": "N4_VE11C_LATEST_20160120",
  "ConversionSoftware": "dcm2niix",
  "ConversionSoftwareVersion": "v1.0.20190902",
  "DerivedVendorReportedEchoSpacing": 0.000560011,
  "DeviceSerialNumber": "167006",
  "DwellTime": 2.1e-06,
  "EchoTime": 0.037,
  "EchoTrainLength": 104,
  "EffectiveEchoSpacing": 0.000560011,
  "FlipAngle": 52,
  "ImageComments": "Unaliased_MB4_PE3_LB",
  "ImageOrientationPatientDICOM": [0.998441, -0.0531607, -0.0170185, 0.0430691, 0.927657, -0.370943],
  "ImageType": [
    "ORIGINAL",
    "PRIMARY",
    "M",
    "MB",
    "ND",
    "MOSAIC"
],
  "ImagingFrequency": 123.259,
  "InPlanePhaseEncodingDirectionDICOM": "COL",
  "InstitutionAddress": "Chemin_Queen-Mary_4565_Montreal_District_CA_H3W_1W5",
  "InstitutionName": "IUGM",
  "InstitutionalDepartmentName": "Department",
  "MRAcquisitionType": "2D",
  "MagneticFieldStrength": 3,
  "Manufacturer": "Siemens",
  "ManufacturersModelName": "Prisma_fit",
  "Modality": "MR",
  "MultibandAccelerationFactor": 4,
  "PartialFourier": 1,
  "PatientPosition": "HFS",
  "PercentPhaseFOV": 100,
  "PhaseEncodingDirection": "j",
  "PhaseEncodingSteps": 104,
  "PhaseResolution": 1,
  "PixelBandwidth": 2290,
  "ProcedureStepDescription": "video_friends",
  "ProtocolName": "func_task-friends-s05e21a",
  "PulseSequenceDetails": "%CustomerSeq%_cmrr_mbep2d_bold",
  "ReceiveCoilActiveElements": "HC1-7;NC1,2",
  "ReceiveCoilName": "HeadNeck_64",
  "ReconMatrixPE": 104,
  "RepetitionTime": 1.49,
  "SAR": 0.0294399,
  "ScanOptions": "FS",
  "ScanningSequence": "EP",
  "SequenceName": "epfid2d1_104",
  "SequenceVariant": "SK_SS",
  "SeriesDescription": "func_task-friends-s05e21a",
  "SeriesNumber": 9,
  "ShimSetting": [624, -7267, -8832, 619, -6, -247, -39, -10],
  "SliceThickness": 2,
  "SliceTiming": [0, 0.7825, 0.0975, 0.88, 0.195, 0.98, 0.2925, 1.0775, 0.39, 1.175, 0.49, 1.2725, 0.5875, 1.37, 0.685, 0, 0.7825, 0.0975, 0.88, 0.195, 0.98, 0.2925, 1.0775, 0.39, 1.175, 0.49, 1.2725, 0.5875, 1.37, 0.685, 0, 0.7825, 0.0975, 0.88, 0.195, 0.98, 0.2925, 1.0775, 0.39, 1.175, 0.49, 1.2725, 0.5875, 1.37, 0.685, 0, 0.7825, 0.0975, 0.88, 0.195, 0.98, 0.2925, 1.0775, 0.39, 1.175, 0.49, 1.2725, 0.5875, 1.37, 0.685],
  "SoftwareVersions": "syngo_MR_E11",
  "SpacingBetweenSlices": 2,
  "StationName": "MRC35049",
  "TaskName": "s05e21a",
  "TotalReadoutTime": 0.0576811,
  "TxRefAmp": 217.019,
  "WipMemBlock": "becffda8-2c69-45b9-b8d6-e0ccd10eeeba||Sequence: R016 ve11c/master r/e634e98; Dec 19 2017 11:00:25 by eja",
  "dcmmeta_affine": [
    [-1.9968818426132202, 0.08613823354244232, -0.07101386040449142, 99.32869720458984],
    [0.10632140189409256, 1.8553130626678467, -0.739262580871582, -76.70350646972656],
    [-0.03403708338737488, 0.7418851852416992, 1.8569997549057007, -67.36077117919922],
    [0.0, 0.0, 0.0, 1.0]
],
  "dcmmeta_reorient_transform": [
    [0.0, -1.0, 0.0, 103.0],
    [1.0, 0.0, 0.0, 0.0],
    [0.0, 0.0, 1.0, 0.0],
    [0.0, 0.0, 0.0, 1.0]
],
  "dcmmeta_shape": [104, 104, 60, 444],
  "dcmmeta_slice_dim": 2,
  "dcmmeta_version": 0.6,
  "global": {
    "const": {
      "AcquisitionMatrix": [104, 0, 0, 104],
      "AngioFlag": "N",
      "BitsAllocated": 16,
      "BitsStored": 16,
      "BodyPartExamined": "BRAIN",
      "Columns": 832,
      "EchoNumbers": 1,
      "EchoTime": 37.0,
      "EchoTrainLength": 104,
      "FlipAngle": 52.0,
      "HighBit": 15,
      "ImageOrientationPatient": [0.99844093918367, -0.0531607014745, -0.0170185422636, 0.04306911737528, 0.92765653499198, -0.3709425888398],
      "ImagePositionPatient": [-866.42026019671, -751.02670810817, 291.48910350664],
      "ImageType": [
        "ORIGINAL",
        "PRIMARY",
        "M",
        "MB",
        "ND",
        "MOSAIC"
],
      "ImagedNucleus": "1H",
      "ImagingFrequency": 123.258943,
      "InPlanePhaseEncodingDirection": "COL",
      "MRAcquisitionType": "2D",
      "MagneticFieldStrength": 3.0,
      "Manufacturer": "SIEMENS",
      "ManufacturerModelName": "Prisma_fit",
      "Modality": "MR",
      "NumberOfAverages": 1.0,
      "NumberOfPhaseEncodingSteps": 104,
      "PercentPhaseFieldOfView": 100.0,
      "PercentSampling": 100.0,
      "PerformedProcedureStepStartTime": "150617.540000",
      "PhotometricInterpretation": "MONOCHROME2",
      "PixelBandwidth": 2290.0,
      "PixelRepresentation": 0,
      "PixelSpacing": [2.0, 2.0],
      "ProtocolName": "func_task-friends-s05e21a",
      "RepetitionTime": 1490.0,
      "Rows": 832,
      "SAR": 0.02943994189768,
      "SamplesPerPixel": 1,
      "ScanOptions": "FS",
      "ScanningSequence": "EP",
      "SequenceName": "epfid2d1_104",
      "SequenceVariant": [
        "SK",
        "SS"
],
      "SeriesDescription": "func_task-friends-s05e21a",
      "SeriesNumber": 9,
      "SeriesTime": "152519.894000",
      "SliceLocation": -37.719309149797,
      "SliceThickness": 2.0,
      "SmallestImagePixelValue": 0,
      "SoftwareVersions": "syngo MR E11",
      "SpacingBetweenSlices": 2.0000000262894,
      "SpecificCharacterSet": "ISO_IR 100",
      "StudyID": "1",
      "StudyTime": "150617.480000",
      "TransmitCoilName": "Body",
      "VariableFlipAngleFlag": "N",
      "WindowCenterWidthExplanation": "Algo1",
      "dBdt": 0.0},
    "slices": {}
  },
  "time": {
    "samples": {
      "AcquisitionNumber": [1, 2, 3, 4, 5, 6, 7, 8, 9, 10, 11, 12, 13, 14, 15, 16, 17, 18, 19, 20, 21, 22, 23, 24, 25, 26, 27, 28, 29, 30, 31, 32, 33, 34, 35, 36, 37, 38, 39, 40, 41, 42, 43, 44, 45, 46, 47, 48, 49, 50, 51, 52, 53, 54, 55, 56, 57, 58, 59, 60, 61, 62, 63, 64, 65, 66, 67, 68, 69, 70, 71, 72, 73, 74, 75, 76, 77, 78, 79, 80, 81, 82, 83, 84, 85, 86, 87, 88, 89, 90, 91, 92, 93, 94, 95, 96, 97, 98, 99, 100, 101, 102, 103, 104, 105, 106, 107, 108, 109, 110, 111, 112, 113, 114, 115, 116, 117, 118, 119, 120, 121, 122, 123, 124, 125, 126, 127, 128, 129, 130, 131, 132, 133, 134, 135, 136, 137, 138, 139, 140, 141, 142, 143, 144, 145, 146, 147, 148, 149, 150, 151, 152, 153, 154, 155, 156, 157, 158, 159, 160, 161, 162, 163, 164, 165, 166, 167, 168, 169, 170, 171, 172, 173, 174, 175, 176, 177, 178, 179, 180, 181, 182, 183, 184, 185, 186, 187, 188, 189, 190, 191, 192, 193, 194, 195, 196, 197, 198, 199, 200, 201, 202, 203, 204, 205, 206, 207, 208, 209, 210, 211, 212, 213, 214, 215, 216, 217, 218, 219, 220, 221, 222, 223, 224, 225, 226, 227, 228, 229, 230, 231, 232, 233, 234, 235, 236, 237, 238, 239, 240, 241, 242, 243, 244, 245, 246, 247, 248, 249, 250, 251, 252, 253, 254, 255, 256, 257, 258, 259, 260, 261, 262, 263, 264, 265, 266, 267, 268, 269, 270, 271, 272, 273, 274, 275, 276, 277, 278, 279, 280, 281, 282, 283, 284, 285, 286, 287, 288, 289, 290, 291, 292, 293, 294, 295, 296, 297, 298, 299, 300, 301, 302, 303, 304, 305, 306, 307, 308, 309, 310, 311, 312, 313, 314, 315, 316, 317, 318, 319, 320, 321, 322, 323, 324, 325, 326, 327, 328, 329, 330, 331, 332, 333, 334, 335, 336, 337, 338, 339, 340, 341, 342, 343, 344, 345, 346, 347, 348, 349, 350, 351, 352, 353, 354, 355, 356, 357, 358, 359, 360, 361, 362, 363, 364, 365, 366, 367, 368, 369, 370, 371, 372, 373, 374, 375, 376, 377, 378, 379, 380, 381, 382, 383, 384, 385, 386, 387, 388, 389, 390, 391, 392, 393, 394, 395, 396, 397, 398, 399, 400, 401, 402, 403, 404, 405, 406, 407, 408, 409, 410, 411, 412, 413, 414, 415, 416, 417, 418, 419, 420, 421, 422, 423, 424, 425, 426, 427, 428, 429, 430, 431, 432, 433, 434, 435, 436, 437, 438, 439, 440, 441, 442, 443, 444],
      "AcquisitionTime": ["152413.660000", "152415.150000", "152416.640000", "152418.130000", "152419.620000", "152421.110000", "152422.600000", "152424.090000", "152425.580000", "152427.070000", "152428.560000", "152430.050000", "152431.540000", "152433.030000", "152434.520000", "152436.010000", "152437.500000", "152438.990000", "152440.480000", "152441.970000", "152443.460000", "152444.950000", "152446.440000", "152447.930000", "152449.420000", "152450.910000", "152452.400000", "152453.890000", "152455.380000", "152456.870000", "152458.360000", "152459.850000", "152501.340000", "152502.830000", "152504.320000", "152505.810000", "152507.300000", "152508.790000", "152510.280000", "152511.770000", "152513.260000", "152514.750000", "152516.240000", "152517.730000", "152519.220000", "152520.710000", "152522.200000", "152523.690000", "152525.180000", "152526.670000", "152528.160000", "152529.650000", "152531.140000", "152532.630000", "152534.120000", "152535.610000", "152537.100000", "152538.590000", "152540.080000", "152541.570000", "152543.060000", "152544.550000", "152546.040000", "152547.530000", "152549.020000", "152550.510000", "152552.000000", "152553.490000", "152554.980000", "152556.470000", "152557.960000", "152559.450000", "152600.940000", "152602.430000", "152603.920000", "152605.410000", "152606.900000", "152608.390000", "152609.880000", "152611.370000", "152612.860000", "152614.350000", "152615.840000", "152617.330000", "152618.820000", "152620.310000", "152621.800000", "152623.290000", "152624.780000", "152626.270000", "152627.760000", "152629.250000", "152630.740000", "152632.230000", "152633.720000", "152635.210000", "152636.700000", "152638.190000", "152639.680000", "152641.170000", "152642.660000", "152644.150000", "152645.640000", "152647.130000", "152648.620000", "152650.110000", "152651.600000", "152653.090000", "152654.580000", "152656.070000", "152657.560000", "152659.050000", "152700.540000", "152702.030000", "152703.520000", "152705.010000", "152706.500000", "152707.990000", "152709.480000", "152710.970000", "152712.460000", "152713.950000", "152715.440000", "152716.930000", "152718.420000", "152719.910000", "152721.400000", "152722.890000", "152724.380000", "152725.870000", "152727.360000", "152728.850000", "152730.340000", "152731.830000", "152733.320000", "152734.810000", "152736.300000", "152737.790000", "152739.280000", "152740.770000", "152742.260000", "152743.750000", "152745.240000", "152746.730000", "152748.220000", "152749.710000", "152751.200000", "152752.690000", "152754.180000", "152755.670000", "152757.160000", "152758.650000", "152800.140000", "152801.630000", "152803.120000", "152804.610000", "152806.100000", "152807.590000", "152809.080000", "152810.570000", "152812.060000", "152813.550000", "152815.040000", "152816.530000", "152818.020000", "152819.510000", "152821.000000", "152822.490000", "152823.980000", "152825.470000", "152826.960000", "152828.450000", "152829.940000", "152831.430000", "152832.920000", "152834.410000", "152835.900000", "152837.390000", "152838.880000", "152840.370000", "152841.860000", "152843.350000", "152844.840000", "152846.330000", "152847.820000", "152849.310000", "152850.800000", "152852.290000", "152853.780000", "152855.270000", "152856.760000", "152858.250000", "152859.740000", "152901.230000", "152902.720000", "152904.210000", "152905.700000", "152907.190000", "152908.680000", "152910.170000", "152911.660000", "152913.150000", "152914.640000", "152916.130000", "152917.620000", "152919.110000", "152920.600000", "152922.090000", "152923.580000", "152925.070000", "152926.560000", "152928.050000", "152929.540000", "152931.030000", "152932.520000", "152934.010000", "152935.500000", "152936.990000", "152938.480000", "152939.970000", "152941.460000", "152942.950000", "152944.440000", "152945.930000", "152947.420000", "152948.910000", "152950.400000", "152951.890000", "152953.380000", "152954.870000", "152956.360000", "152957.850000", "152959.340000", "153000.830000", "153002.320000", "153003.810000", "153005.300000", "153006.790000", "153008.280000", "153009.770000", "153011.260000", "153012.750000", "153014.240000", "153015.730000", "153017.220000", "153018.710000", "153020.200000", "153021.690000", "153023.180000", "153024.670000", "153026.160000", "153027.650000", "153029.140000", "153030.630000", "153032.120000", "153033.610000", "153035.100000", "153036.590000", "153038.080000", "153039.570000", "153041.060000", "153042.550000", "153044.040000", "153045.530000", "153047.020000", "153048.510000", "153050.000000", "153051.490000", "153052.980000", "153054.470000", "153055.960000", "153057.450000", "153058.940000", "153100.430000", "153101.920000", "153103.410000", "153104.900000", "153106.390000", "153107.880000", "153109.370000", "153110.860000", "153112.350000", "153113.840000", "153115.330000", "153116.820000", "153118.310000", "153119.800000", "153121.290000", "153122.780000", "153124.270000", "153125.760000", "153127.250000", "153128.740000", "153130.230000", "153131.720000", "153133.210000", "153134.700000", "153136.190000", "153137.680000", "153139.170000", "153140.660000", "153142.150000", "153143.640000", "153145.130000", "153146.620000", "153148.110000", "153149.600000", "153151.090000", "153152.580000", "153154.070000", "153155.560000", "153157.050000", "153158.540000", "153200.030000", "153201.520000", "153203.010000", "153204.500000", "153205.990000", "153207.480000", "153208.970000", "153210.460000", "153211.950000", "153213.440000", "153214.930000", "153216.420000", "153217.910000", "153219.400000", "153220.890000", "153222.380000", "153223.870000", "153225.360000", "153226.850000", "153228.340000", "153229.830000", "153231.320000", "153232.810000", "153234.300000", "153235.790000", "153237.280000", "153238.770000", "153240.260000", "153241.750000", "153243.240000", "153244.730000", "153246.220000", "153247.710000", "153249.200000", "153250.690000", "153252.180000", "153253.670000", "153255.160000", "153256.650000", "153258.140000", "153259.630000", "153301.120000", "153302.610000", "153304.100000", "153305.590000", "153307.080000", "153308.570000", "153310.060000", "153311.550000", "153313.040000", "153314.530000", "153316.020000", "153317.510000", "153319.000000", "153320.490000", "153321.980000", "153323.470000", "153324.960000", "153326.450000", "153327.940000", "153329.430000", "153330.920000", "153332.410000", "153333.900000", "153335.390000", "153336.880000", "153338.370000", "153339.860000", "153341.350000", "153342.840000", "153344.330000", "153345.820000", "153347.310000", "153348.800000", "153350.290000", "153351.780000", "153353.270000", "153354.760000", "153356.250000", "153357.740000", "153359.230000", "153400.720000", "153402.210000", "153403.700000", "153405.190000", "153406.680000", "153408.170000", "153409.660000", "153411.150000", "153412.640000", "153414.130000", "153415.620000", "153417.110000", "153418.600000", "153420.090000", "153421.580000", "153423.070000", "153424.560000", "153426.050000", "153427.540000", "153429.030000", "153430.520000", "153432.010000", "153433.500000", "153434.990000", "153436.480000", "153437.970000", "153439.460000", "153440.950000", "153442.440000", "153443.930000", "153445.420000", "153446.910000", "153448.400000", "153449.890000", "153451.380000", "153452.870000", "153454.360000", "153455.850000", "153457.340000", "153458.830000", "153500.320000", "153501.810000", "153503.300000", "153504.790000", "153506.280000", "153507.770000", "153509.260000", "153510.750000", "153512.240000", "153513.730000"],
      "ContentTime": ["152519.897000", "152519.913000", "152519.916000", "152519.919000", "152519.922000", "152519.925000", "152519.928000", "152519.930000", "152519.933000", "152519.936000", "152519.939000", "152539.871000", "152539.874000", "152539.877000", "152539.879000", "152539.882000", "152539.885000", "152539.888000", "152539.891000", "152539.894000", "152539.896000", "152539.899000", "152539.902000", "152539.905000", "152539.908000", "152539.914000", "152539.917000", "152539.920000", "152539.926000", "152539.929000", "152539.932000", "152559.872000", "152559.875000", "152559.878000", "152559.880000", "152559.883000", "152559.887000", "152559.890000", "152559.893000", "152559.896000", "152559.899000", "152559.902000", "152559.904000", "152559.907000", "152559.910000", "152559.913000", "152559.916000", "152559.918000", "152559.921000", "152559.924000", "152559.927000", "152619.872000", "152619.875000", "152619.878000", "152619.880000", "152619.883000", "152619.886000", "152619.889000", "152619.892000", "152619.895000", "152619.897000", "152619.900000", "152619.903000", "152619.906000", "152619.909000", "152619.912000", "152619.914000", "152619.917000", "152619.920000", "152619.932000", "152619.934000", "152639.871000", "152639.874000", "152639.877000", "152639.879000", "152639.882000", "152639.885000", "152639.888000", "152639.891000", "152639.893000", "152639.903000", "152639.906000", "152639.908000", "152639.911000", "152639.914000", "152639.917000", "152639.920000", "152639.923000", "152639.926000", "152639.929000", "152639.931000", "152719.871000", "152719.874000", "152719.877000", "152719.880000", "152719.882000", "152719.885000", "152719.888000", "152719.891000", "152719.894000", "152719.897000", "152719.900000", "152719.902000", "152719.914000", "152719.917000", "152719.920000", "152719.923000", "152719.925000", "152719.928000", "152719.931000", "152719.934000", "152719.937000", "152719.940000", "152719.942000", "152719.945000", "152719.948000", "152719.951000", "152719.954000", "152719.957000", "152719.959000", "152719.962000", "152719.970000", "152719.973000", "152719.976000", "152759.871000", "152759.874000", "152759.877000", "152759.880000", "152759.882000", "152759.885000", "152759.888000", "152759.891000", "152759.894000", "152759.897000", "152759.899000", "152759.902000", "152759.905000", "152759.908000", "152759.911000", "152759.913000", "152759.916000", "152759.919000", "152759.922000", "152759.925000", "152759.927000", "152759.930000", "152759.933000", "152759.936000", "152759.939000", "152759.941000", "152759.944000", "152839.872000", "152839.875000", "152839.878000", "152839.880000", "152839.883000", "152839.886000", "152839.889000", "152839.892000", "152839.895000", "152839.902000", "152839.905000", "152839.908000", "152839.910000", "152839.913000", "152839.916000", "152839.919000", "152839.922000", "152839.925000", "152839.927000", "152839.930000", "152839.933000", "152839.936000", "152839.939000", "152839.942000", "152839.945000", "152839.947000", "152839.950000", "152919.871000", "152919.874000", "152919.877000", "152919.880000", "152919.883000", "152919.886000", "152919.888000", "152919.891000", "152919.894000", "152919.897000", "152919.900000", "152919.903000", "152919.906000", "152919.909000", "152919.912000", "152919.914000", "152919.917000", "152919.921000", "152919.924000", "152919.927000", "152919.930000", "152919.933000", "152919.936000", "152919.938000", "152919.941000", "152919.944000", "152959.871000", "152959.882000", "152959.885000", "152959.888000", "152959.891000", "152959.894000", "152959.896000", "152959.899000", "152959.902000", "152959.905000", "152959.908000", "152959.911000", "152959.913000", "152959.916000", "152959.919000", "152959.922000", "152959.925000", "152959.928000", "152959.931000", "152959.934000", "152959.936000", "152959.939000", "152959.942000", "152959.945000", "152959.948000", "152959.951000", "152959.954000", "153039.872000", "153039.875000", "153039.878000", "153039.881000", "153039.884000", "153039.886000", "153039.889000", "153039.892000", "153039.895000", "153039.898000", "153039.901000", "153039.904000", "153039.906000", "153039.909000", "153039.912000", "153039.915000", "153039.918000", "153039.921000", "153039.924000", "153039.927000", "153039.929000", "153039.932000", "153039.935000", "153039.938000", "153039.941000", "153039.944000", "153039.946000", "153119.871000", "153119.874000", "153119.877000", "153119.880000", "153119.883000", "153119.885000", "153119.888000", "153119.891000", "153119.894000", "153119.897000", "153119.900000", "153119.903000", "153119.905000", "153119.908000", "153119.911000", "153119.914000", "153119.917000", "153119.920000", "153119.923000", "153119.925000", "153119.928000", "153119.931000", "153119.934000", "153119.937000", "153119.940000", "153119.942000", "153119.945000", "153159.871000", "153159.874000", "153159.877000", "153159.880000", "153159.882000", "153159.885000", "153159.888000", "153159.891000", "153159.894000", "153159.897000", "153159.900000", "153159.902000", "153159.905000", "153159.908000", "153159.911000", "153159.925000", "153159.928000", "153159.931000", "153159.934000", "153159.937000", "153159.940000", "153159.943000", "153159.945000", "153159.948000", "153159.951000", "153159.954000", "153159.957000", "153239.871000", "153239.874000", "153239.877000", "153239.880000", "153239.882000", "153239.885000", "153239.888000", "153239.891000", "153239.894000", "153239.897000", "153239.899000", "153239.902000", "153239.905000", "153239.908000", "153239.911000", "153239.914000", "153239.917000", "153239.919000", "153239.922000", "153239.925000", "153239.928000", "153239.931000", "153239.934000", "153239.936000", "153239.939000", "153239.942000", "153239.945000", "153319.872000", "153319.875000", "153319.878000", "153319.881000", "153319.884000", "153319.887000", "153319.889000", "153319.892000", "153319.895000", "153319.898000", "153319.901000", "153319.904000", "153319.906000", "153319.909000", "153319.912000", "153319.915000", "153319.918000", "153319.921000", "153319.924000", "153319.926000", "153319.929000", "153319.932000", "153319.935000", "153319.938000", "153319.940000", "153319.943000", "153319.946000", "153359.871000", "153359.874000", "153359.877000", "153359.880000", "153359.883000", "153359.885000", "153359.888000", "153359.891000", "153359.894000", "153359.897000", "153359.900000", "153359.903000", "153359.906000", "153359.909000", "153359.912000", "153359.915000", "153359.918000", "153359.921000", "153359.923000", "153359.926000", "153359.929000", "153359.932000", "153359.935000", "153359.938000", "153359.940000", "153359.943000", "153439.871000", "153439.874000", "153439.877000", "153439.880000", "153439.882000", "153439.885000", "153439.888000", "153439.891000", "153439.894000", "153439.897000", "153439.899000", "153439.902000", "153439.905000", "153439.908000", "153439.911000", "153439.914000", "153439.917000", "153439.920000", "153439.922000", "153439.925000", "153439.928000", "153439.931000", "153439.934000", "153439.937000", "153439.939000", "153439.942000", "153439.945000", "153516.073000", "153516.076000", "153516.079000", "153516.082000", "153516.085000", "153516.088000", "153516.091000", "153516.094000", "153516.097000", "153516.100000", "153516.103000", "153516.105000", "153516.108000", "153516.111000", "153516.114000", "153516.118000", "153516.121000", "153516.123000", "153516.126000", "153516.129000", "153516.132000", "153516.135000", "153516.138000", "153516.141000", "153516.144000"],
