{
  "AcquisitionMatrixPE": 104,
  "AcquisitionNumber": 1,
  "AcquisitionTime": "16:00:24.000000",
  "BandwidthPerPixelPhaseEncode": 17.17,
  "BaseResolution": 104,
  "BodyPartExamined": "BRAIN",
  "CoilString": "HC1-7;NC1_2",
  "ConsistencyInfo": "N4_VE11C_LATEST_20160120",
  "ConversionSoftware": "dcm2niix",
  "ConversionSoftwareVersion": "v1.0.20190902",
  "DerivedVendorReportedEchoSpacing": 0.000560011,
  "DeviceSerialNumber": "167006",
  "DwellTime": 2.1e-06,
  "EchoTime": 0.037,
  "EchoTrainLength": 104,
  "EffectiveEchoSpacing": 0.000560011,
  "FlipAngle": 52,
  "ImageComments": "Unaliased_MB4_PE3_LB",
  "ImageOrientationPatientDICOM": [0.998441, -0.0531607, -0.0170185, 0.0430691, 0.927657, -0.370943],
  "ImageType": [
    "ORIGINAL",
    "PRIMARY",
    "M",
    "MB",
    "ND",
    "MOSAIC"
],
  "ImagingFrequency": 123.259,
  "InPlanePhaseEncodingDirectionDICOM": "COL",
  "InstitutionAddress": "Chemin_Queen-Mary_4565_Montreal_District_CA_H3W_1W5",
  "InstitutionName": "IUGM",
  "InstitutionalDepartmentName": "Department",
  "MRAcquisitionType": "2D",
  "MagneticFieldStrength": 3,
  "Manufacturer": "Siemens",
  "ManufacturersModelName": "Prisma_fit",
  "Modality": "MR",
  "MultibandAccelerationFactor": 4,
  "PartialFourier": 1,
  "PatientPosition": "HFS",
  "PercentPhaseFOV": 100,
  "PhaseEncodingDirection": "j",
  "PhaseEncodingSteps": 104,
  "PhaseResolution": 1,
  "PixelBandwidth": 2290,
  "ProcedureStepDescription": "video_friends",
  "ProtocolName": "func_task-friends-s05e22b",
  "PulseSequenceDetails": "%CustomerSeq%_cmrr_mbep2d_bold",
  "ReceiveCoilActiveElements": "HC1-7;NC1,2",
  "ReceiveCoilName": "HeadNeck_64",
  "ReconMatrixPE": 104,
  "RepetitionTime": 1.49,
  "SAR": 0.0294508,
  "ScanOptions": "FS",
  "ScanningSequence": "EP",
  "SequenceName": "epfid2d1_104",
  "SequenceVariant": "SK_SS",
  "SeriesDescription": "func_task-friends-s05e22b",
  "SeriesNumber": 15,
  "ShimSetting": [624, -7267, -8832, 619, -6, -247, -39, -10],
  "SliceThickness": 2,
  "SliceTiming": [0, 0.785, 0.0975, 0.8825, 0.1975, 0.98, 0.295, 1.0775, 0.3925, 1.1775, 0.49, 1.275, 0.5875, 1.3725, 0.6875, 0, 0.785, 0.0975, 0.8825, 0.1975, 0.98, 0.295, 1.0775, 0.3925, 1.1775, 0.49, 1.275, 0.5875, 1.3725, 0.6875, 0, 0.785, 0.0975, 0.8825, 0.1975, 0.98, 0.295, 1.0775, 0.3925, 1.1775, 0.49, 1.275, 0.5875, 1.3725, 0.6875, 0, 0.785, 0.0975, 0.8825, 0.1975, 0.98, 0.295, 1.0775, 0.3925, 1.1775, 0.49, 1.275, 0.5875, 1.3725, 0.6875],
  "SoftwareVersions": "syngo_MR_E11",
  "SpacingBetweenSlices": 2,
  "StationName": "MRC35049",
  "TaskName": "s05e22b",
  "TotalReadoutTime": 0.0576811,
  "TxRefAmp": 217.019,
  "WipMemBlock": "40effec4-7f1c-40ac-b2fe-1b0a2947bd94||Sequence: R016 ve11c/master r/e634e98; Dec 19 2017 11:00:25 by eja",
  "dcmmeta_affine": [
    [-1.9968818426132202, 0.08613823354244232, -0.07101386040449142, 99.32869720458984],
    [0.10632140189409256, 1.8553130626678467, -0.739262580871582, -76.70350646972656],
    [-0.03403708338737488, 0.7418851852416992, 1.8569997549057007, -67.36077117919922],
    [0.0, 0.0, 0.0, 1.0]
],
  "dcmmeta_reorient_transform": [
    [0.0, -1.0, 0.0, 103.0],
    [1.0, 0.0, 0.0, 0.0],
    [0.0, 0.0, 1.0, 0.0],
    [0.0, 0.0, 0.0, 1.0]
],
  "dcmmeta_shape": [104, 104, 60, 484],
  "dcmmeta_slice_dim": 2,
  "dcmmeta_version": 0.6,
  "global": {
    "const": {
      "AcquisitionMatrix": [104, 0, 0, 104],
      "AngioFlag": "N",
      "BitsAllocated": 16,
      "BitsStored": 16,
      "BodyPartExamined": "BRAIN",
      "Columns": 832,
      "EchoNumbers": 1,
      "EchoTime": 37.0,
      "EchoTrainLength": 104,
      "FlipAngle": 52.0,
      "HighBit": 15,
      "ImageOrientationPatient": [0.99844093918367, -0.0531607014745, -0.0170185422636, 0.04306911737528, 0.92765653499198, -0.3709425888398],
      "ImagePositionPatient": [-866.42026019671, -751.02670810817, 291.48910350664],
      "ImageType": [
        "ORIGINAL",
        "PRIMARY",
        "M",
        "MB",
        "ND",
        "MOSAIC"
],
      "ImagedNucleus": "1H",
      "ImagingFrequency": 123.258962,
      "InPlanePhaseEncodingDirection": "COL",
      "MRAcquisitionType": "2D",
      "MagneticFieldStrength": 3.0,
      "Manufacturer": "SIEMENS",
      "ManufacturerModelName": "Prisma_fit",
      "Modality": "MR",
      "NumberOfAverages": 1.0,
      "NumberOfPhaseEncodingSteps": 104,
      "PercentPhaseFieldOfView": 100.0,
      "PercentSampling": 100.0,
      "PerformedProcedureStepStartTime": "150617.540000",
      "PhotometricInterpretation": "MONOCHROME2",
      "PixelBandwidth": 2290.0,
      "PixelRepresentation": 0,
      "PixelSpacing": [2.0, 2.0],
      "ProtocolName": "func_task-friends-s05e22b",
      "RepetitionTime": 1490.0,
      "Rows": 832,
      "SAR": 0.02945076641863,
      "SamplesPerPixel": 1,
      "ScanOptions": "FS",
      "ScanningSequence": "EP",
      "SequenceName": "epfid2d1_104",
      "SequenceVariant": [
        "SK",
        "SS"
],
      "SeriesDescription": "func_task-friends-s05e22b",
      "SeriesNumber": 15,
      "SeriesTime": "160139.899000",
      "SliceLocation": -37.719309149797,
      "SliceThickness": 2.0,
      "SmallestImagePixelValue": 0,
      "SoftwareVersions": "syngo MR E11",
      "SpacingBetweenSlices": 2.0000000262894,
      "SpecificCharacterSet": "ISO_IR 100",
      "StudyID": "1",
      "StudyTime": "150617.480000",
      "TransmitCoilName": "Body",
      "VariableFlipAngleFlag": "N",
      "WindowCenterWidthExplanation": "Algo1",
      "dBdt": 0.0},
    "slices": {}
  },
  "time": {
    "samples": {
      "AcquisitionNumber": [1, 2, 3, 4, 5, 6, 7, 8, 9, 10, 11, 12, 13, 14, 15, 16, 17, 18, 19, 20, 21, 22, 23, 24, 25, 26, 27, 28, 29, 30, 31, 32, 33, 34, 35, 36, 37, 38, 39, 40, 41, 42, 43, 44, 45, 46, 47, 48, 49, 50, 51, 52, 53, 54, 55, 56, 57, 58, 59, 60, 61, 62, 63, 64, 65, 66, 67, 68, 69, 70, 71, 72, 73, 74, 75, 76, 77, 78, 79, 80, 81, 82, 83, 84, 85, 86, 87, 88, 89, 90, 91, 92, 93, 94, 95, 96, 97, 98, 99, 100, 101, 102, 103, 104, 105, 106, 107, 108, 109, 110, 111, 112, 113, 114, 115, 116, 117, 118, 119, 120, 121, 122, 123, 124, 125, 126, 127, 128, 129, 130, 131, 132, 133, 134, 135, 136, 137, 138, 139, 140, 141, 142, 143, 144, 145, 146, 147, 148, 149, 150, 151, 152, 153, 154, 155, 156, 157, 158, 159, 160, 161, 162, 163, 164, 165, 166, 167, 168, 169, 170, 171, 172, 173, 174, 175, 176, 177, 178, 179, 180, 181, 182, 183, 184, 185, 186, 187, 188, 189, 190, 191, 192, 193, 194, 195, 196, 197, 198, 199, 200, 201, 202, 203, 204, 205, 206, 207, 208, 209, 210, 211, 212, 213, 214, 215, 216, 217, 218, 219, 220, 221, 222, 223, 224, 225, 226, 227, 228, 229, 230, 231, 232, 233, 234, 235, 236, 237, 238, 239, 240, 241, 242, 243, 244, 245, 246, 247, 248, 249, 250, 251, 252, 253, 254, 255, 256, 257, 258, 259, 260, 261, 262, 263, 264, 265, 266, 267, 268, 269, 270, 271, 272, 273, 274, 275, 276, 277, 278, 279, 280, 281, 282, 283, 284, 285, 286, 287, 288, 289, 290, 291, 292, 293, 294, 295, 296, 297, 298, 299, 300, 301, 302, 303, 304, 305, 306, 307, 308, 309, 310, 311, 312, 313, 314, 315, 316, 317, 318, 319, 320, 321, 322, 323, 324, 325, 326, 327, 328, 329, 330, 331, 332, 333, 334, 335, 336, 337, 338, 339, 340, 341, 342, 343, 344, 345, 346, 347, 348, 349, 350, 351, 352, 353, 354, 355, 356, 357, 358, 359, 360, 361, 362, 363, 364, 365, 366, 367, 368, 369, 370, 371, 372, 373, 374, 375, 376, 377, 378, 379, 380, 381, 382, 383, 384, 385, 386, 387, 388, 389, 390, 391, 392, 393, 394, 395, 396, 397, 398, 399, 400, 401, 402, 403, 404, 405, 406, 407, 408, 409, 410, 411, 412, 413, 414, 415, 416, 417, 418, 419, 420, 421, 422, 423, 424, 425, 426, 427, 428, 429, 430, 431, 432, 433, 434, 435, 436, 437, 438, 439, 440, 441, 442, 443, 444, 445, 446, 447, 448, 449, 450, 451, 452, 453, 454, 455, 456, 457, 458, 459, 460, 461, 462, 463, 464, 465, 466, 467, 468, 469, 470, 471, 472, 473, 474, 475, 476, 477, 478, 479, 480, 481, 482, 483, 484],
      "AcquisitionTime": ["160024.000000", "160025.490000", "160026.980000", "160028.470000", "160029.960000", "160031.450000", "160032.940000", "160034.430000", "160035.920000", "160037.410000", "160038.900000", "160040.390000", "160041.880000", "160043.370000", "160044.860000", "160046.350000", "160047.840000", "160049.330000", "160050.820000", "160052.310000", "160053.800000", "160055.290000", "160056.780000", "160058.270000", "160059.760000", "160101.250000", "160102.740000", "160104.230000", "160105.720000", "160107.210000", "160108.700000", "160110.190000", "160111.680000", "160113.170000", "160114.660000", "160116.150000", "160117.640000", "160119.130000", "160120.620000", "160122.110000", "160123.600000", "160125.090000", "160126.580000", "160128.070000", "160129.560000", "160131.050000", "160132.540000", "160134.030000", "160135.520000", "160137.010000", "160138.500000", "160139.990000", "160141.480000", "160142.970000", "160144.460000", "160145.950000", "160147.440000", "160148.930000", "160150.420000", "160151.910000", "160153.400000", "160154.890000", "160156.380000", "160157.870000", "160159.360000", "160200.850000", "160202.340000", "160203.830000", "160205.320000", "160206.810000", "160208.300000", "160209.790000", "160211.280000", "160212.770000", "160214.260000", "160215.750000", "160217.240000", "160218.730000", "160220.220000", "160221.710000", "160223.200000", "160224.690000", "160226.180000", "160227.670000", "160229.160000", "160230.650000", "160232.140000", "160233.630000", "160235.120000", "160236.610000", "160238.100000", "160239.590000", "160241.080000", "160242.570000", "160244.060000", "160245.550000", "160247.040000", "160248.530000", "160250.020000", "160251.510000", "160253.000000", "160254.490000", "160255.980000", "160257.470000", "160258.960000", "160300.450000", "160301.940000", "160303.430000", "160304.920000", "160306.410000", "160307.900000", "160309.390000", "160310.880000", "160312.370000", "160313.860000", "160315.350000", "160316.840000", "160318.330000", "160319.820000", "160321.310000", "160322.800000", "160324.290000", "160325.780000", "160327.270000", "160328.760000", "160330.250000", "160331.740000", "160333.230000", "160334.720000", "160336.210000", "160337.700000", "160339.190000", "160340.680000", "160342.170000", "160343.660000", "160345.150000", "160346.640000", "160348.130000", "160349.620000", "160351.110000", "160352.600000", "160354.090000", "160355.580000", "160357.070000", "160358.560000", "160400.050000", "160401.540000", "160403.030000", "160404.520000", "160406.010000", "160407.500000", "160408.990000", "160410.480000", "160411.970000", "160413.460000", "160414.950000", "160416.440000", "160417.930000", "160419.420000", "160420.910000", "160422.400000", "160423.890000", "160425.380000", "160426.870000", "160428.360000", "160429.850000", "160431.340000", "160432.830000", "160434.320000", "160435.810000", "160437.300000", "160438.790000", "160440.280000", "160441.770000", "160443.260000", "160444.750000", "160446.240000", "160447.730000", "160449.220000", "160450.710000", "160452.200000", "160453.690000", "160455.180000", "160456.670000", "160458.160000", "160459.650000", "160501.140000", "160502.630000", "160504.120000", "160505.610000", "160507.100000", "160508.590000", "160510.080000", "160511.570000", "160513.060000", "160514.550000", "160516.040000", "160517.530000", "160519.020000", "160520.510000", "160522.000000", "160523.490000", "160524.980000", "160526.470000", "160527.960000", "160529.450000", "160530.940000", "160532.430000", "160533.920000", "160535.410000", "160536.900000", "160538.390000", "160539.880000", "160541.370000", "160542.860000", "160544.350000", "160545.840000", "160547.330000", "160548.820000", "160550.310000", "160551.800000", "160553.290000", "160554.780000", "160556.270000", "160557.760000", "160559.250000", "160600.740000", "160602.230000", "160603.720000", "160605.210000", "160606.700000", "160608.190000", "160609.680000", "160611.170000", "160612.660000", "160614.150000", "160615.640000", "160617.130000", "160618.620000", "160620.110000", "160621.600000", "160623.090000", "160624.580000", "160626.070000", "160627.560000", "160629.050000", "160630.540000", "160632.030000", "160633.520000", "160635.010000", "160636.500000", "160637.990000", "160639.480000", "160640.970000", "160642.460000", "160643.950000", "160645.440000", "160646.930000", "160648.420000", "160649.910000", "160651.400000", "160652.890000", "160654.380000", "160655.870000", "160657.360000", "160658.850000", "160700.340000", "160701.830000", "160703.320000", "160704.810000", "160706.300000", "160707.790000", "160709.280000", "160710.770000", "160712.260000", "160713.750000", "160715.240000", "160716.730000", "160718.220000", "160719.710000", "160721.200000", "160722.690000", "160724.180000", "160725.670000", "160727.160000", "160728.650000", "160730.140000", "160731.630000", "160733.120000", "160734.610000", "160736.100000", "160737.590000", "160739.080000", "160740.570000", "160742.060000", "160743.550000", "160745.040000", "160746.530000", "160748.020000", "160749.510000", "160751.000000", "160752.490000", "160753.980000", "160755.470000", "160756.960000", "160758.450000", "160759.940000", "160801.430000", "160802.920000", "160804.410000", "160805.900000", "160807.390000", "160808.880000", "160810.370000", "160811.860000", "160813.350000", "160814.840000", "160816.330000", "160817.820000", "160819.310000", "160820.800000", "160822.290000", "160823.780000", "160825.270000", "160826.760000", "160828.250000", "160829.740000", "160831.230000", "160832.720000", "160834.210000", "160835.700000", "160837.190000", "160838.680000", "160840.170000", "160841.660000", "160843.150000", "160844.640000", "160846.130000", "160847.620000", "160849.110000", "160850.600000", "160852.090000", "160853.580000", "160855.070000", "160856.560000", "160858.050000", "160859.540000", "160901.030000", "160902.520000", "160904.010000", "160905.500000", "160906.990000", "160908.480000", "160909.970000", "160911.460000", "160912.950000", "160914.440000", "160915.930000", "160917.420000", "160918.910000", "160920.400000", "160921.890000", "160923.380000", "160924.870000", "160926.360000", "160927.850000", "160929.340000", "160930.830000", "160932.320000", "160933.810000", "160935.300000", "160936.790000", "160938.280000", "160939.770000", "160941.260000", "160942.750000", "160944.240000", "160945.730000", "160947.220000", "160948.710000", "160950.200000", "160951.690000", "160953.180000", "160954.670000", "160956.160000", "160957.650000", "160959.140000", "161000.630000", "161002.120000", "161003.610000", "161005.100000", "161006.590000", "161008.080000", "161009.570000", "161011.060000", "161012.550000", "161014.040000", "161015.530000", "161017.020000", "161018.510000", "161020.000000", "161021.490000", "161022.980000", "161024.470000", "161025.960000", "161027.450000", "161028.940000", "161030.430000", "161031.920000", "161033.410000", "161034.900000", "161036.390000", "161037.880000", "161039.370000", "161040.860000", "161042.350000", "161043.840000", "161045.330000", "161046.820000", "161048.310000", "161049.800000", "161051.290000", "161052.780000", "161054.270000", "161055.760000", "161057.250000", "161058.740000", "161100.230000", "161101.720000", "161103.210000", "161104.700000", "161106.190000", "161107.680000", "161109.170000", "161110.660000", "161112.150000", "161113.640000", "161115.130000", "161116.620000", "161118.110000", "161119.600000", "161121.090000", "161122.580000", "161124.070000", "161125.560000", "161127.050000", "161128.540000", "161130.030000", "161131.520000", "161133.010000", "161134.500000", "161135.990000", "161137.480000", "161138.970000", "161140.460000", "161141.950000", "161143.440000", "161144.930000", "161146.420000", "161147.910000", "161149.400000", "161150.890000", "161152.380000", "161153.870000", "161155.360000", "161156.850000", "161158.340000", "161159.830000", "161201.320000", "161202.810000", "161204.300000", "161205.790000", "161207.280000", "161208.770000", "161210.260000", "161211.750000", "161213.240000", "161214.730000", "161216.220000", "161217.710000", "161219.200000", "161220.690000", "161222.180000", "161223.670000"],
      "ContentTime": ["160139.902000", "160139.905000", "160139.908000", "160139.911000", "160139.914000", "160139.917000", "160139.919000", "160139.922000", "160139.925000", "160139.928000", "160139.942000", "160139.948000", "160139.951000", "160139.954000", "160139.957000", "160139.960000", "160139.962000", "160139.965000", "160139.968000", "160139.971000", "160139.974000", "160159.871000", "160159.874000", "160159.877000", "160159.880000", "160159.882000", "160159.885000", "160159.888000", "160159.891000", "160159.894000", "160159.897000", "160159.900000", "160159.903000", "160159.905000", "160159.908000", "160159.911000", "160159.914000", "160159.917000", "160159.919000", "160159.922000", "160159.925000", "160219.871000", "160219.874000", "160219.877000", "160219.880000", "160219.882000", "160219.894000", "160219.897000", "160219.900000", "160219.903000", "160219.906000", "160219.909000", "160219.911000", "160219.914000", "160219.917000", "160219.920000", "160219.923000", "160219.926000", "160219.928000", "160219.931000", "160219.934000", "160219.937000", "160239.871000", "160239.874000", "160239.877000", "160239.880000", "160239.882000", "160239.885000", "160239.888000", "160239.891000", "160239.894000", "160239.897000", "160239.899000", "160239.902000", "160239.905000", "160239.908000", "160239.911000", "160239.913000", "160239.916000", "160239.919000", "160239.922000", "160239.925000", "160259.872000", "160259.875000", "160259.878000", "160259.880000", "160259.883000", "160259.886000", "160259.889000", "160259.892000", "160259.895000", "160259.897000", "160259.900000", "160259.903000", "160259.906000", "160259.909000", "160259.911000", "160259.914000", "160259.917000", "160259.920000", "160259.923000", "160259.926000", "160339.872000", "160339.875000", "160339.878000", "160339.881000", "160339.884000", "160339.886000", "160339.889000", "160339.892000", "160339.895000", "160339.898000", "160339.901000", "160339.903000", "160339.906000", "160339.909000", "160339.912000", "160339.915000", "160339.918000", "160339.920000", "160339.923000", "160339.926000", "160339.929000", "160339.932000", "160339.934000", "160339.937000", "160339.940000", "160339.943000", "160339.946000", "160339.960000", "160339.977000", "160359.871000", "160359.874000", "160359.877000", "160359.880000", "160359.882000", "160359.885000", "160359.888000", "160359.891000", "160359.894000", "160359.897000", "160359.899000", "160359.902000", "160359.905000", "160439.871000", "160439.874000", "160439.876000", "160439.879000", "160439.882000", "160439.885000", "160439.888000", "160439.891000", "160439.894000", "160439.897000", "160439.899000", "160439.902000", "160439.905000", "160439.908000", "160439.911000", "160439.914000", "160439.916000", "160439.919000", "160439.922000", "160439.925000", "160439.928000", "160439.931000", "160439.933000", "160439.936000", "160439.939000", "160439.942000", "160439.945000", "160519.872000", "160519.875000", "160519.878000", "160519.881000", "160519.883000", "160519.886000", "160519.889000", "160519.892000", "160519.895000", "160519.898000", "160519.900000", "160519.903000", "160519.906000", "160519.909000", "160519.912000", "160519.915000", "160519.918000", "160519.920000", "160519.923000", "160519.926000", "160519.929000", "160519.932000", "160519.935000", "160519.938000", "160519.941000", "160519.943000", "160519.946000", "160559.872000", "160559.875000", "160559.878000", "160559.881000", "160559.884000", "160559.886000", "160559.889000", "160559.892000", "160559.895000", "160559.898000", "160559.901000", "160559.904000", "160559.906000", "160559.909000", "160559.912000", "160559.915000", "160559.918000", "160559.921000", "160559.923000", "160559.926000", "160559.934000", "160559.937000", "160559.940000", "160559.943000", "160559.946000", "160559.949000", "160559.951000", "160639.871000", "160639.874000", "160639.877000", "160639.880000", "160639.883000", "160639.885000", "160639.888000", "160639.891000", "160639.894000", "160639.897000", "160639.900000", "160639.903000", "160639.905000", "160639.908000", "160639.911000", "160639.914000", "160639.917000", "160639.920000", "160639.922000", "160639.925000", "160639.928000", "160639.931000", "160639.934000", "160639.937000", "160639.940000", "160639.942000", "160719.871000", "160719.874000", "160719.877000", "160719.880000", "160719.882000", "160719.885000", "160719.888000", "160719.891000", "160719.894000", "160719.897000", "160719.900000", "160719.902000", "160719.905000", "160719.908000", "160719.911000", "160719.914000", "160719.917000", "160719.919000", "160719.922000", "160719.925000", "160719.928000", "160719.931000", "160719.934000", "160719.936000", "160719.939000", "160719.942000", "160719.945000", "160759.872000", "160759.875000", "160759.878000", "160759.881000", "160759.883000", "160759.886000", "160759.889000", "160759.892000", "160759.895000", "160759.898000", "160759.901000", "160759.903000", "160759.906000", "160759.909000", "160759.912000", "160759.915000", "160759.917000", "160759.920000", "160759.923000", "160759.926000", "160759.929000", "160759.931000", "160759.945000", "160759.948000", "160759.951000", "160759.954000", "160759.957000", "160839.871000", "160839.874000", "160839.877000", "160839.880000", "160839.882000", "160839.885000", "160839.888000", "160839.891000", "160839.894000", "160839.897000", "160839.900000", "160839.902000", "160839.905000", "160839.915000", "160839.918000", "160839.920000", "160839.923000", "160839.926000", "160839.929000", "160839.932000", "160839.934000", "160839.937000", "160839.940000", "160839.943000", "160839.946000", "160839.949000", "160839.951000", "160919.871000", "160919.874000", "160919.877000", "160919.880000", "160919.883000", "160919.886000", "160919.888000", "160919.891000", "160919.894000", "160919.897000", "160919.900000", "160919.903000", "160919.906000", "160919.908000", "160919.911000", "160919.914000", "160919.917000", "160919.920000", "160919.923000", "160919.926000", "160919.929000", "160919.932000", "160919.935000", "160919.938000", "160919.941000", "160919.943000", "160919.946000", "160959.872000", "160959.875000", "160959.878000", "160959.881000", "160959.883000", "160959.886000", "160959.889000", "160959.892000", "160959.895000", "160959.898000", "160959.901000", "160959.904000", "160959.907000", "160959.909000", "160959.912000", "160959.915000", "160959.918000", "160959.921000", "160959.924000", "160959.927000", "160959.929000", "160959.932000", "160959.935000", "160959.938000", "160959.941000", "160959.944000", "160959.947000", "161039.871000", "161039.874000", "161039.877000", "161039.880000", "161039.882000", "161039.885000", "161039.888000", "161039.891000", "161039.894000", "161039.897000", "161039.900000", "161039.903000", "161039.905000", "161039.908000", "161039.911000", "161039.914000", "161039.917000", "161039.920000", "161039.922000", "161039.925000", "161039.928000", "161039.931000", "161039.934000", "161039.937000", "161039.939000", "161039.942000", "161119.871000", "161119.874000", "161119.877000", "161119.880000", "161119.882000", "161119.885000", "161119.888000", "161119.891000", "161119.894000", "161119.897000", "161119.899000", "161119.902000", "161119.905000", "161119.908000", "161119.911000", "161119.914000", "161119.917000", "161119.919000", "161119.922000", "161119.925000", "161119.928000", "161119.931000", "161119.934000", "161119.936000", "161119.939000", "161119.942000", "161119.945000", "161159.871000", "161159.874000", "161159.877000", "161159.880000", "161159.883000", "161159.885000", "161159.888000", "161159.891000", "161159.894000", "161159.897000", "161159.900000", "161159.903000", "161159.905000", "161159.908000", "161159.911000", "161159.914000", "161159.917000", "161159.920000", "161159.923000", "161159.925000", "161159.928000", "161159.931000", "161159.934000", "161159.937000", "161159.940000", "161159.942000", "161159.945000", "161225.805000", "161225.808000", "161225.811000", "161225.814000", "161225.825000", "161225.828000", "161225.831000", "161225.833000", "161225.836000", "161225.839000", "161225.842000", "161225.845000", "161225.848000", "161225.850000", "161225.853000", "161225.856000", "161225.859000", "161225.862000"],
