{
  "AcquisitionMatrixPE": 104,
  "AcquisitionNumber": 1,
  "AcquisitionTime": "09:38:55.320000",
  "BandwidthPerPixelPhaseEncode": 17.17,
  "BaseResolution": 104,
  "BodyPartExamined": "BRAIN",
  "CoilString": "HC1-7;NC1_2",
  "ConsistencyInfo": "N4_VE11C_LATEST_20160120",
  "ConversionSoftware": "dcm2niix",
  "ConversionSoftwareVersion": "v1.0.20190720  (JP2:OpenJPEG) GCC7.3.0",
  "DerivedVendorReportedEchoSpacing": 0.000560011,
  "DeviceSerialNumber": "167006",
  "DwellTime": 2.1e-06,
  "EchoTime": 0.037,
  "EchoTrainLength": 104,
  "EffectiveEchoSpacing": 0.000560011,
  "FlipAngle": 52,
  "ImageComments": "Unaliased_MB4_PE3_LB",
  "ImageOrientationPatientDICOM": [0.99819, 0.000203493, -0.0601356, -0.0127185, 0.978088, -0.207805],
  "ImageType": [
    "ORIGINAL",
    "PRIMARY",
    "M",
    "MB",
    "ND",
    "MOSAIC"
],
  "ImagingFrequency": 123.259,
  "InPlanePhaseEncodingDirectionDICOM": "COL",
  "InstitutionAddress": "Chemin_Queen-Mary_4565_Montreal_District_CA_H3W_1W5",
  "InstitutionName": "IUGM",
  "InstitutionalDepartmentName": "Department",
  "MRAcquisitionType": "2D",
  "MagneticFieldStrength": 3,
  "Manufacturer": "Siemens",
  "ManufacturersModelName": "Prisma_fit",
  "Modality": "MR",
  "MultibandAccelerationFactor": 4,
  "PartialFourier": 1,
  "PatientPosition": "HFS",
  "PercentPhaseFOV": 100,
  "PhaseEncodingDirection": "j",
  "PhaseEncodingSteps": 104,
  "PhaseResolution": 1,
  "PixelBandwidth": 2290,
  "ProcedureStepDescription": "video_friends",
  "ProtocolName": "func_task-friends-s01e09a",
  "PulseSequenceDetails": "%CustomerSeq%_cmrr_mbep2d_bold",
  "ReceiveCoilActiveElements": "HC1-7;NC1,2",
  "ReceiveCoilName": "HeadNeck_64",
  "ReconMatrixPE": 104,
  "RepetitionTime": 1.49,
  "SAR": 0.0336331,
  "ScanOptions": "FS",
  "ScanningSequence": "EP",
  "SequenceName": "epfid2d1_104",
  "SequenceVariant": "SK_SS",
  "SeriesDescription": "func_task-friends-s01e09a",
  "SeriesNumber": 9,
  "ShimSetting": [592, -7267, -8829, 613, -94, -337, 49, 43],
  "SliceThickness": 2,
  "SliceTiming": [0, 0.7825, 0.0975, 0.8825, 0.195, 0.98, 0.2925, 1.0775, 0.3925, 1.175, 0.49, 1.2725, 0.5875, 1.3725, 0.685, 0, 0.7825, 0.0975, 0.8825, 0.195, 0.98, 0.2925, 1.0775, 0.3925, 1.175, 0.49, 1.2725, 0.5875, 1.3725, 0.685, 0, 0.7825, 0.0975, 0.8825, 0.195, 0.98, 0.2925, 1.0775, 0.3925, 1.175, 0.49, 1.2725, 0.5875, 1.3725, 0.685, 0, 0.7825, 0.0975, 0.8825, 0.195, 0.98, 0.2925, 1.0775, 0.3925, 1.175, 0.49, 1.2725, 0.5875, 1.3725, 0.685],
  "SoftwareVersions": "syngo_MR_E11",
  "SpacingBetweenSlices": 2,
  "StationName": "MRC35049",
  "TaskName": "friends",
  "TotalReadoutTime": 0.0576811,
  "TxRefAmp": 218.119,
  "WipMemBlock": "ababf605-1f5d-40f2-b1d8-50ba6b983e0b||Sequence: R016 ve11c/master r/e634e98; Dec 19 2017 11:00:25 by eja",
  "dcmmeta_affine": [
    [-1.9963804483413696, -0.025437042117118835, -0.11755125224590302, 102.77616882324219],
    [-0.00040698639350011945, 1.9561753273010254, -0.41638702154159546, -83.82566833496094],
    [-0.12027125060558319, 0.4156095087528229, 1.952640175819397, -46.45304870605469],
    [0.0, 0.0, 0.0, 1.0]
],
  "dcmmeta_reorient_transform": [
    [0.0, -1.0, 0.0, 103.0],
    [1.0, 0.0, 0.0, 0.0],
    [0.0, 0.0, 1.0, 0.0],
    [0.0, 0.0, 0.0, 1.0]
],
  "dcmmeta_shape": [104, 104, 60, 468],
  "dcmmeta_slice_dim": 2,
  "dcmmeta_version": 0.6,
  "global": {
    "const": {
      "AcquisitionMatrix": [104, 0, 0, 104],
      "AngioFlag": "N",
      "BitsAllocated": 16,
      "BitsStored": 16,
      "BodyPartExamined": "BRAIN",
      "Columns": 832,
      "EchoNumbers": 1,
      "EchoTime": 37.0,
      "EchoTrainLength": 104,
      "FlipAngle": 52.0,
      "HighBit": 15,
      "ImageOrientationPatient": [0.99819019484275, 0.00020349320393, -0.0601356259659, -0.012718521524, 0.97808763469163, -0.2078047595066],
      "ImagePositionPatient": [-817.57952976974, -829.85632734923, 191.41533236895],
      "ImageType": [
        "ORIGINAL",
        "PRIMARY",
        "M",
        "MB",
        "ND",
        "MOSAIC"
],
      "ImagedNucleus": "1H",
      "ImagingFrequency": 123.259114,
      "InPlanePhaseEncodingDirection": "COL",
      "MRAcquisitionType": "2D",
      "MagneticFieldStrength": 3.0,
      "Manufacturer": "SIEMENS",
      "ManufacturerModelName": "Prisma_fit",
      "Modality": "MR",
      "NumberOfAverages": 1.0,
      "NumberOfPhaseEncodingSteps": 104,
      "PercentPhaseFieldOfView": 100.0,
      "PercentSampling": 100.0,
      "PerformedProcedureStepStartTime": "093308.237000",
      "PhotometricInterpretation": "MONOCHROME2",
      "PixelBandwidth": 2290.0,
      "PixelRepresentation": 0,
      "PixelSpacing": [2.0, 2.0],
      "ProtocolName": "func_task-friends-s01e09a",
      "RepetitionTime": 1490.0,
      "Rows": 832,
      "SAR": 0.03363311894277,
      "SamplesPerPixel": 1,
      "ScanOptions": "FS",
      "ScanningSequence": "EP",
      "SequenceName": "epfid2d1_104",
      "SequenceVariant": [
        "SK",
        "SS"
],
      "SeriesDescription": "func_task-friends-s01e09a",
      "SeriesNumber": 9,
      "SeriesTime": "094013.538000",
      "SliceLocation": -33.941817769887,
      "SliceThickness": 2.0,
      "SmallestImagePixelValue": 0,
      "SoftwareVersions": "syngo MR E11",
      "SpacingBetweenSlices": 2.0000000250765,
      "SpecificCharacterSet": "ISO_IR 100",
      "StudyID": "1",
      "StudyTime": "093308.081000",
      "TransmitCoilName": "Body",
      "VariableFlipAngleFlag": "N",
      "WindowCenterWidthExplanation": "Algo1",
      "dBdt": 0.0},
    "slices": {}
  },
  "time": {
    "samples": {
      "AcquisitionNumber": [1, 2, 3, 4, 5, 6, 7, 8, 9, 10, 11, 12, 13, 14, 15, 16, 17, 18, 19, 20, 21, 22, 23, 24, 25, 26, 27, 28, 29, 30, 31, 32, 33, 34, 35, 36, 37, 38, 39, 40, 41, 42, 43, 44, 45, 46, 47, 48, 49, 50, 51, 52, 53, 54, 55, 56, 57, 58, 59, 60, 61, 62, 63, 64, 65, 66, 67, 68, 69, 70, 71, 72, 73, 74, 75, 76, 77, 78, 79, 80, 81, 82, 83, 84, 85, 86, 87, 88, 89, 90, 91, 92, 93, 94, 95, 96, 97, 98, 99, 100, 101, 102, 103, 104, 105, 106, 107, 108, 109, 110, 111, 112, 113, 114, 115, 116, 117, 118, 119, 120, 121, 122, 123, 124, 125, 126, 127, 128, 129, 130, 131, 132, 133, 134, 135, 136, 137, 138, 139, 140, 141, 142, 143, 144, 145, 146, 147, 148, 149, 150, 151, 152, 153, 154, 155, 156, 157, 158, 159, 160, 161, 162, 163, 164, 165, 166, 167, 168, 169, 170, 171, 172, 173, 174, 175, 176, 177, 178, 179, 180, 181, 182, 183, 184, 185, 186, 187, 188, 189, 190, 191, 192, 193, 194, 195, 196, 197, 198, 199, 200, 201, 202, 203, 204, 205, 206, 207, 208, 209, 210, 211, 212, 213, 214, 215, 216, 217, 218, 219, 220, 221, 222, 223, 224, 225, 226, 227, 228, 229, 230, 231, 232, 233, 234, 235, 236, 237, 238, 239, 240, 241, 242, 243, 244, 245, 246, 247, 248, 249, 250, 251, 252, 253, 254, 255, 256, 257, 258, 259, 260, 261, 262, 263, 264, 265, 266, 267, 268, 269, 270, 271, 272, 273, 274, 275, 276, 277, 278, 279, 280, 281, 282, 283, 284, 285, 286, 287, 288, 289, 290, 291, 292, 293, 294, 295, 296, 297, 298, 299, 300, 301, 302, 303, 304, 305, 306, 307, 308, 309, 310, 311, 312, 313, 314, 315, 316, 317, 318, 319, 320, 321, 322, 323, 324, 325, 326, 327, 328, 329, 330, 331, 332, 333, 334, 335, 336, 337, 338, 339, 340, 341, 342, 343, 344, 345, 346, 347, 348, 349, 350, 351, 352, 353, 354, 355, 356, 357, 358, 359, 360, 361, 362, 363, 364, 365, 366, 367, 368, 369, 370, 371, 372, 373, 374, 375, 376, 377, 378, 379, 380, 381, 382, 383, 384, 385, 386, 387, 388, 389, 390, 391, 392, 393, 394, 395, 396, 397, 398, 399, 400, 401, 402, 403, 404, 405, 406, 407, 408, 409, 410, 411, 412, 413, 414, 415, 416, 417, 418, 419, 420, 421, 422, 423, 424, 425, 426, 427, 428, 429, 430, 431, 432, 433, 434, 435, 436, 437, 438, 439, 440, 441, 442, 443, 444, 445, 446, 447, 448, 449, 450, 451, 452, 453, 454, 455, 456, 457, 458, 459, 460, 461, 462, 463, 464, 465, 466, 467, 468],
      "AcquisitionTime": ["093855.320000", "093856.810000", "093858.300000", "093859.790000", "093901.280000", "093902.770000", "093904.260000", "093905.750000", "093907.240000", "093908.730000", "093910.220000", "093911.710000", "093913.200000", "093914.690000", "093916.180000", "093917.670000", "093919.160000", "093920.650000", "093922.140000", "093923.630000", "093925.120000", "093926.610000", "093928.100000", "093929.590000", "093931.080000", "093932.570000", "093934.060000", "093935.550000", "093937.040000", "093938.530000", "093940.020000", "093941.510000", "093943.000000", "093944.490000", "093945.980000", "093947.470000", "093948.960000", "093950.450000", "093951.940000", "093953.430000", "093954.920000", "093956.410000", "093957.900000", "093959.390000", "094000.880000", "094002.370000", "094003.860000", "094005.350000", "094006.840000", "094008.330000", "094009.820000", "094011.310000", "094012.800000", "094014.290000", "094015.780000", "094017.270000", "094018.760000", "094020.250000", "094021.740000", "094023.230000", "094024.720000", "094026.210000", "094027.700000", "094029.190000", "094030.680000", "094032.170000", "094033.660000", "094035.150000", "094036.640000", "094038.130000", "094039.620000", "094041.110000", "094042.600000", "094044.090000", "094045.580000", "094047.070000", "094048.560000", "094050.050000", "094051.540000", "094053.030000", "094054.520000", "094056.010000", "094057.500000", "094058.990000", "094100.480000", "094101.970000", "094103.460000", "094104.950000", "094106.440000", "094107.930000", "094109.420000", "094110.910000", "094112.400000", "094113.890000", "094115.380000", "094116.870000", "094118.360000", "094119.850000", "094121.340000", "094122.830000", "094124.320000", "094125.810000", "094127.300000", "094128.790000", "094130.280000", "094131.770000", "094133.260000", "094134.750000", "094136.240000", "094137.730000", "094139.220000", "094140.710000", "094142.200000", "094143.690000", "094145.180000", "094146.670000", "094148.160000", "094149.650000", "094151.140000", "094152.630000", "094154.120000", "094155.610000", "094157.100000", "094158.590000", "094200.080000", "094201.570000", "094203.060000", "094204.550000", "094206.040000", "094207.530000", "094209.020000", "094210.510000", "094212.000000", "094213.490000", "094214.980000", "094216.470000", "094217.960000", "094219.450000", "094220.940000", "094222.430000", "094223.920000", "094225.410000", "094226.900000", "094228.390000", "094229.880000", "094231.370000", "094232.860000", "094234.350000", "094235.840000", "094237.330000", "094238.820000", "094240.310000", "094241.800000", "094243.290000", "094244.780000", "094246.270000", "094247.760000", "094249.250000", "094250.740000", "094252.230000", "094253.720000", "094255.210000", "094256.700000", "094258.190000", "094259.680000", "094301.170000", "094302.660000", "094304.150000", "094305.640000", "094307.130000", "094308.620000", "094310.110000", "094311.600000", "094313.090000", "094314.580000", "094316.070000", "094317.560000", "094319.050000", "094320.540000", "094322.030000", "094323.520000", "094325.010000", "094326.500000", "094327.990000", "094329.480000", "094330.970000", "094332.460000", "094333.950000", "094335.440000", "094336.930000", "094338.420000", "094339.910000", "094341.400000", "094342.890000", "094344.380000", "094345.870000", "094347.360000", "094348.850000", "094350.340000", "094351.830000", "094353.320000", "094354.810000", "094356.300000", "094357.790000", "094359.280000", "094400.770000", "094402.260000", "094403.750000", "094405.240000", "094406.730000", "094408.220000", "094409.710000", "094411.200000", "094412.690000", "094414.180000", "094415.670000", "094417.160000", "094418.650000", "094420.140000", "094421.630000", "094423.120000", "094424.610000", "094426.100000", "094427.590000", "094429.080000", "094430.570000", "094432.060000", "094433.550000", "094435.040000", "094436.530000", "094438.020000", "094439.510000", "094441.000000", "094442.490000", "094443.980000", "094445.470000", "094446.960000", "094448.450000", "094449.940000", "094451.430000", "094452.920000", "094454.410000", "094455.900000", "094457.390000", "094458.880000", "094500.370000", "094501.860000", "094503.350000", "094504.840000", "094506.330000", "094507.820000", "094509.310000", "094510.800000", "094512.290000", "094513.780000", "094515.270000", "094516.760000", "094518.250000", "094519.740000", "094521.230000", "094522.720000", "094524.210000", "094525.700000", "094527.190000", "094528.680000", "094530.170000", "094531.660000", "094533.150000", "094534.640000", "094536.130000", "094537.620000", "094539.110000", "094540.600000", "094542.090000", "094543.580000", "094545.070000", "094546.560000", "094548.050000", "094549.540000", "094551.030000", "094552.520000", "094554.010000", "094555.500000", "094556.990000", "094558.480000", "094559.970000", "094601.460000", "094602.950000", "094604.440000", "094605.930000", "094607.420000", "094608.910000", "094610.400000", "094611.890000", "094613.380000", "094614.870000", "094616.360000", "094617.850000", "094619.340000", "094620.830000", "094622.320000", "094623.810000", "094625.300000", "094626.790000", "094628.280000", "094629.770000", "094631.260000", "094632.750000", "094634.240000", "094635.730000", "094637.220000", "094638.710000", "094640.200000", "094641.690000", "094643.180000", "094644.670000", "094646.160000", "094647.650000", "094649.140000", "094650.630000", "094652.120000", "094653.610000", "094655.100000", "094656.590000", "094658.080000", "094659.570000", "094701.060000", "094702.550000", "094704.040000", "094705.530000", "094707.020000", "094708.510000", "094710.000000", "094711.490000", "094712.980000", "094714.470000", "094715.960000", "094717.450000", "094718.940000", "094720.430000", "094721.920000", "094723.410000", "094724.900000", "094726.390000", "094727.880000", "094729.370000", "094730.860000", "094732.350000", "094733.840000", "094735.330000", "094736.820000", "094738.310000", "094739.800000", "094741.290000", "094742.780000", "094744.270000", "094745.760000", "094747.250000", "094748.740000", "094750.230000", "094751.720000", "094753.210000", "094754.700000", "094756.190000", "094757.680000", "094759.170000", "094800.660000", "094802.150000", "094803.640000", "094805.130000", "094806.620000", "094808.110000", "094809.600000", "094811.090000", "094812.580000", "094814.070000", "094815.560000", "094817.050000", "094818.540000", "094820.030000", "094821.520000", "094823.010000", "094824.500000", "094825.990000", "094827.480000", "094828.970000", "094830.460000", "094831.950000", "094833.440000", "094834.930000", "094836.420000", "094837.910000", "094839.400000", "094840.890000", "094842.380000", "094843.870000", "094845.360000", "094846.850000", "094848.340000", "094849.830000", "094851.320000", "094852.810000", "094854.300000", "094855.790000", "094857.280000", "094858.770000", "094900.260000", "094901.750000", "094903.240000", "094904.730000", "094906.220000", "094907.710000", "094909.200000", "094910.690000", "094912.180000", "094913.670000", "094915.160000", "094916.650000", "094918.140000", "094919.630000", "094921.120000", "094922.610000", "094924.100000", "094925.590000", "094927.080000", "094928.570000", "094930.060000", "094931.550000", "094933.040000", "094934.530000", "094936.020000", "094937.510000", "094939.000000", "094940.490000", "094941.980000", "094943.470000", "094944.960000", "094946.450000", "094947.940000", "094949.430000", "094950.920000", "094952.410000", "094953.900000", "094955.390000", "094956.880000", "094958.370000", "094959.860000", "095001.350000", "095002.840000", "095004.330000", "095005.820000", "095007.310000", "095008.800000", "095010.290000", "095011.780000", "095013.270000", "095014.760000", "095016.250000", "095017.740000", "095019.230000", "095020.720000", "095022.210000", "095023.700000", "095025.190000", "095026.680000", "095028.170000", "095029.660000", "095031.150000"],
      "ContentTime": ["094013.541000", "094013.544000", "094013.547000", "094013.550000", "094013.553000", "094013.556000", "094013.564000", "094013.573000", "094013.575000", "094013.579000", "094013.581000", "094013.584000", "094013.587000", "094013.590000", "094013.593000", "094013.596000", "094013.599000", "094013.602000", "094013.605000", "094013.612000", "094013.615000", "094013.618000", "094013.625000", "094013.628000", "094053.504000", "094053.507000", "094053.510000", "094053.513000", "094053.516000", "094053.519000", "094053.521000", "094053.524000", "094053.527000", "094053.530000", "094053.533000", "094053.536000", "094053.539000", "094053.547000", "094053.550000", "094053.553000", "094053.556000", "094053.562000", "094053.565000", "094053.568000", "094053.571000", "094053.574000", "094053.588000", "094053.591000", "094053.594000", "094053.597000", "094053.600000", "094053.602000", "094053.610000", "094053.613000", "094053.615000", "094053.618000", "094053.621000", "094053.624000", "094053.627000", "094053.630000", "094053.633000", "094053.636000", "094053.638000", "094053.641000", "094113.504000", "094113.507000", "094113.510000", "094113.512000", "094113.515000", "094113.518000", "094113.521000", "094113.524000", "094113.527000", "094113.529000", "094113.532000", "094113.535000", "094113.538000", "094113.541000", "094113.544000", "094113.547000", "094113.549000", "094113.552000", "094113.555000", "094113.558000", "094133.504000", "094133.507000", "094133.510000", "094133.512000", "094133.515000", "094133.518000", "094133.521000", "094133.524000", "094133.527000", "094133.530000", "094133.533000", "094133.539000", "094133.542000", "094133.545000", "094133.548000", "094133.550000", "094133.553000", "094133.556000", "094133.559000", "094133.562000", "094213.503000", "094213.506000", "094213.509000", "094213.512000", "094213.515000", "094213.518000", "094213.520000", "094213.524000", "094213.526000", "094213.529000", "094213.532000", "094213.535000", "094213.548000", "094213.551000", "094213.554000", "094213.557000", "094213.560000", "094213.562000", "094213.565000", "094213.568000", "094213.571000", "094213.574000", "094213.577000", "094213.580000", "094213.583000", "094213.586000", "094213.588000", "094213.604000", "094253.503000", "094253.506000", "094253.514000", "094253.517000", "094253.520000", "094253.523000", "094253.526000", "094253.529000", "094253.532000", "094253.535000", "094253.537000", "094253.540000", "094253.543000", "094253.546000", "094253.554000", "094253.557000", "094253.560000", "094253.563000", "094253.566000", "094253.569000", "094253.572000", "094253.575000", "094253.577000", "094253.580000", "094253.583000", "094253.586000", "094253.589000", "094333.504000", "094333.507000", "094333.510000", "094333.513000", "094333.516000", "094333.519000", "094333.521000", "094333.525000", "094333.528000", "094333.531000", "094333.533000", "094333.536000", "094333.539000", "094333.542000", "094333.545000", "094333.548000", "094333.551000", "094333.554000", "094333.557000", "094333.560000", "094333.563000", "094333.565000", "094333.568000", "094333.571000", "094333.574000", "094333.577000", "094333.580000", "094413.504000", "094413.507000", "094413.510000", "094413.513000", "094413.515000", "094413.518000", "094413.521000", "094413.528000", "094413.531000", "094413.534000", "094413.537000", "094413.540000", "094413.543000", "094413.546000", "094413.548000", "094413.551000", "094413.554000", "094413.557000", "094413.560000", "094413.562000", "094413.565000", "094413.568000", "094413.574000", "094413.577000", "094413.579000", "094413.582000", "094413.585000", "094453.504000", "094453.507000", "094453.510000", "094453.513000", "094453.516000", "094453.519000", "094453.522000", "094453.525000", "094453.527000", "094453.530000", "094453.533000", "094453.536000", "094453.539000", "094453.542000", "094453.544000", "094453.547000", "094453.550000", "094453.553000", "094453.556000", "094453.559000", "094453.562000", "094453.565000", "094453.567000", "094453.570000", "094453.573000", "094453.576000", "094453.579000", "094533.504000", "094533.513000", "094533.515000", "094533.518000", "094533.521000", "094533.524000", "094533.527000", "094533.530000", "094533.533000", "094533.537000", "094533.540000", "094533.543000", "094533.546000", "094533.549000", "094533.552000", "094533.554000", "094533.557000", "094533.560000", "094533.563000", "094533.566000", "094533.569000", "094533.572000", "094533.575000", "094533.578000", "094533.581000", "094533.583000", "094533.586000", "094613.504000", "094613.507000", "094613.510000", "094613.513000", "094613.516000", "094613.518000", "094613.521000", "094613.524000", "094613.527000", "094613.545000", "094613.548000", "094613.551000", "094613.554000", "094613.558000", "094613.561000", "094613.564000", "094613.566000", "094613.569000", "094613.572000", "094613.575000", "094613.578000", "094613.581000", "094613.584000", "094613.587000", "094613.590000", "094613.593000", "094653.503000", "094653.506000", "094653.509000", "094653.512000", "094653.514000", "094653.517000", "094653.520000", "094653.536000", "094653.539000", "094653.542000", "094653.544000", "094653.547000", "094653.556000", "094653.559000", "094653.561000", "094653.564000", "094653.567000", "094653.570000", "094653.573000", "094653.576000", "094653.579000", "094653.582000", "094653.585000", "094653.587000", "094653.590000", "094653.593000", "094653.596000", "094733.503000", "094733.506000", "094733.509000", "094733.512000", "094733.515000", "094733.518000", "094733.520000", "094733.523000", "094733.526000", "094733.533000", "094733.535000", "094733.538000", "094733.541000", "094733.544000", "094733.547000", "094733.550000", "094733.552000", "094733.555000", "094733.558000", "094733.561000", "094733.564000", "094733.567000", "094733.570000", "094733.573000", "094733.576000", "094733.579000", "094733.582000", "094813.504000", "094813.507000", "094813.510000", "094813.513000", "094813.515000", "094813.518000", "094813.521000", "094813.524000", "094813.527000", "094813.530000", "094813.540000", "094813.543000", "094813.546000", "094813.549000", "094813.551000", "094813.554000", "094813.557000", "094813.560000", "094813.563000", "094813.566000", "094813.569000", "094813.572000", "094813.575000", "094813.578000", "094813.581000", "094813.584000", "094813.586000", "094853.504000", "094853.507000", "094853.510000", "094853.513000", "094853.516000", "094853.518000", "094853.521000", "094853.524000", "094853.527000", "094853.530000", "094853.533000", "094853.535000", "094853.538000", "094853.541000", "094853.544000", "094853.547000", "094853.550000", "094853.552000", "094853.555000", "094853.558000", "094853.561000", "094853.564000", "094853.567000", "094853.570000", "094853.573000", "094853.580000", "094853.582000", "094933.503000", "094933.506000", "094933.509000", "094933.512000", "094933.514000", "094933.517000", "094933.520000", "094933.523000", "094933.526000", "094933.529000", "094933.532000", "094933.534000", "094933.537000", "094933.540000", "094933.543000", "094933.546000", "094933.549000", "094933.552000", "094933.555000", "094933.558000", "094933.560000", "094933.563000", "094933.566000", "094933.569000", "094933.572000", "094933.575000", "094933.578000", "095013.504000", "095013.507000", "095013.510000", "095013.513000", "095013.516000", "095013.519000", "095013.521000", "095013.524000", "095013.527000", "095013.530000", "095013.533000", "095013.536000", "095013.539000", "095013.541000", "095013.544000", "095013.547000", "095013.550000", "095013.553000", "095013.556000", "095013.558000", "095013.561000", "095013.565000", "095013.568000", "095013.571000", "095013.575000", "095013.578000", "095032.997000", "095033.001000", "095033.004000", "095033.007000", "095033.010000", "095033.013000", "095033.015000", "095033.018000", "095033.021000", "095033.024000", "095033.035000", "095033.038000", "095033.041000", "095033.044000"],
