{
  "AcquisitionMatrixPE": 104,
  "AcquisitionNumber": 1,
  "AcquisitionTime": "19:23:24.647500",
  "BandwidthPerPixelPhaseEncode": 17.17,
  "BaseResolution": 104,
  "BodyPartExamined": "BRAIN",
  "CoilString": "HC1-7;NC1_2",
  "ConsistencyInfo": "N4_VE11C_LATEST_20160120",
  "ConversionSoftware": "dcm2niix",
  "ConversionSoftwareVersion": "v1.0.20190902",
  "DerivedVendorReportedEchoSpacing": 0.000560011,
  "DeviceSerialNumber": "167006",
  "DwellTime": 2.1e-06,
  "EchoTime": 0.037,
  "EchoTrainLength": 104,
  "EffectiveEchoSpacing": 0.000560011,
  "FlipAngle": 52,
  "ImageComments": "Unaliased_MB4_PE3_LB",
  "ImageOrientationPatientDICOM": [0.999258, -0.033407, -0.0191451, 0.0238978, 0.927961, -0.37191],
  "ImageType": [
    "ORIGINAL",
    "PRIMARY",
    "M",
    "MB",
    "ND",
    "MOSAIC"
],
  "ImagingFrequency": 123.259,
  "InPlanePhaseEncodingDirectionDICOM": "COL",
  "InstitutionAddress": "Chemin_Queen-Mary_4565_Montreal_District_CA_H3W_1W5",
  "InstitutionName": "IUGM",
  "InstitutionalDepartmentName": "Department",
  "MRAcquisitionType": "2D",
  "MagneticFieldStrength": 3,
  "Manufacturer": "Siemens",
  "ManufacturersModelName": "Prisma_fit",
  "Modality": "MR",
  "MultibandAccelerationFactor": 4,
  "PartialFourier": 1,
  "PatientPosition": "HFS",
  "PercentPhaseFOV": 100,
  "PhaseEncodingDirection": "j",
  "PhaseEncodingSteps": 104,
  "PhaseResolution": 1,
  "PixelBandwidth": 2290,
  "ProcedureStepDescription": "video_friends",
  "ProtocolName": "func_task-friends-s01e03a",
  "PulseSequenceDetails": "%CustomerSeq%_cmrr_mbep2d_bold",
  "ReceiveCoilActiveElements": "HC1-7;NC1,2",
  "ReceiveCoilName": "HeadNeck_64",
  "ReconMatrixPE": 104,
  "RepetitionTime": 1.49,
  "SAR": 0.0437314,
  "ScanOptions": "FS",
  "ScanningSequence": "EP",
  "SequenceName": "epfid2d1_104",
  "SequenceVariant": "SK_SS",
  "SeriesDescription": "func_task-friends-s01e03a",
  "SeriesNumber": 13,
  "ShimSetting": [620, -7297, -8814, 450, 27, -441, 40, 50],
  "SliceThickness": 2,
  "SliceTiming": [0, 0.785, 0.0975, 0.8825, 0.195, 0.98, 0.295, 1.0775, 0.3925, 1.175, 0.49, 1.275, 0.5875, 1.3725, 0.685, 0, 0.785, 0.0975, 0.8825, 0.195, 0.98, 0.295, 1.0775, 0.3925, 1.175, 0.49, 1.275, 0.5875, 1.3725, 0.685, 0, 0.785, 0.0975, 0.8825, 0.195, 0.98, 0.295, 1.0775, 0.3925, 1.175, 0.49, 1.275, 0.5875, 1.3725, 0.685, 0, 0.785, 0.0975, 0.8825, 0.195, 0.98, 0.295, 1.0775, 0.3925, 1.175, 0.49, 1.275, 0.5875, 1.3725, 0.685],
  "SoftwareVersions": "syngo_MR_E11",
  "SpacingBetweenSlices": 2,
  "StationName": "MRC35049",
  "TaskName": "s01e03a",
  "TotalReadoutTime": 0.0576811,
  "TxRefAmp": 254.236,
  "WipMemBlock": "8e96c832-cb6c-4f58-bd18-38f43c1f5b12||Sequence: R016 ve11c/master r/e634e98; Dec 19 2017 11:00:25 by eja",
  "dcmmeta_affine": [
    [-1.9985169172286987, 0.04779566079378128, -0.06038053333759308, 98.43819427490234],
    [0.06681390851736069, 1.8559222221374512, -0.7423533797264099, -73.27723693847656],
    [-0.038290150463581085, 0.7438200116157532, 1.8561426401138306, -56.5882682800293],
    [0.0, 0.0, 0.0, 1.0]
],
  "dcmmeta_reorient_transform": [
    [0.0, -1.0, 0.0, 103.0],
    [1.0, 0.0, 0.0, 0.0],
    [0.0, 0.0, 1.0, 0.0],
    [0.0, 0.0, 0.0, 1.0]
],
  "dcmmeta_shape": [104, 104, 60, 503],
  "dcmmeta_slice_dim": 2,
  "dcmmeta_version": 0.6,
  "global": {
    "const": {
      "AcquisitionMatrix": [104, 0, 0, 104],
      "AngioFlag": "N",
      "BitsAllocated": 16,
      "BitsStored": 16,
      "BodyPartExamined": "BRAIN",
      "Columns": 832,
      "EchoNumbers": 1,
      "EchoTime": 37.0,
      "EchoTrainLength": 104,
      "FlipAngle": 52.0,
      "HighBit": 15,
      "ImageOrientationPatient": [0.99925844580737, -0.0334069534917, -0.0191450761564, 0.0238978301742, 0.9279611208859, -0.3719100050243],
      "ImagePositionPatient": [-848.21891654273, -769.11818645837, 304.71329057026],
      "ImageType": [
        "ORIGINAL",
        "PRIMARY",
        "M",
        "MB",
        "ND",
        "MOSAIC"
],
      "ImagedNucleus": "1H",
      "ImagingFrequency": 123.25882,
      "InPlanePhaseEncodingDirection": "COL",
      "MRAcquisitionType": "2D",
      "MagneticFieldStrength": 3.0,
      "Manufacturer": "SIEMENS",
      "ManufacturerModelName": "Prisma_fit",
      "Modality": "MR",
      "NumberOfAverages": 1.0,
      "NumberOfPhaseEncodingSteps": 104,
      "PercentPhaseFieldOfView": 100.0,
      "PercentSampling": 100.0,
      "PerformedProcedureStepStartTime": "185538.702000",
      "PhotometricInterpretation": "MONOCHROME2",
      "PixelBandwidth": 2290.0,
      "PixelRepresentation": 0,
      "PixelSpacing": [2.0, 2.0],
      "ProtocolName": "func_task-friends-s01e03a",
      "RepetitionTime": 1490.0,
      "Rows": 832,
      "SAR": 0.04373144279,
      "SamplesPerPixel": 1,
      "ScanOptions": "FS",
      "ScanningSequence": "EP",
      "SequenceName": "epfid2d1_104",
      "SequenceVariant": [
        "SK",
        "SS"
],
      "SeriesDescription": "func_task-friends-s01e03a",
      "SeriesNumber": 13,
      "SeriesTime": "192445.516000",
      "SliceLocation": -28.291023955054,
      "SliceThickness": 2.0,
      "SmallestImagePixelValue": 0,
      "SoftwareVersions": "syngo MR E11",
      "SpacingBetweenSlices": 2.0000000079724,
      "SpecificCharacterSet": "ISO_IR 100",
      "StudyID": "1",
      "StudyTime": "185538.626000",
      "TransmitCoilName": "Body",
      "VariableFlipAngleFlag": "N",
      "WindowCenterWidthExplanation": "Algo1",
      "dBdt": 0.0},
    "slices": {}
  },
  "time": {
    "samples": {
      "AcquisitionNumber": [1, 2, 3, 4, 5, 6, 7, 8, 9, 10, 11, 12, 13, 14, 15, 16, 17, 18, 19, 20, 21, 22, 23, 24, 25, 26, 27, 28, 29, 30, 31, 32, 33, 34, 35, 36, 37, 38, 39, 40, 41, 42, 43, 44, 45, 46, 47, 48, 49, 50, 51, 52, 53, 54, 55, 56, 57, 58, 59, 60, 61, 62, 63, 64, 65, 66, 67, 68, 69, 70, 71, 72, 73, 74, 75, 76, 77, 78, 79, 80, 81, 82, 83, 84, 85, 86, 87, 88, 89, 90, 91, 92, 93, 94, 95, 96, 97, 98, 99, 100, 101, 102, 103, 104, 105, 106, 107, 108, 109, 110, 111, 112, 113, 114, 115, 116, 117, 118, 119, 120, 121, 122, 123, 124, 125, 126, 127, 128, 129, 130, 131, 132, 133, 134, 135, 136, 137, 138, 139, 140, 141, 142, 143, 144, 145, 146, 147, 148, 149, 150, 151, 152, 153, 154, 155, 156, 157, 158, 159, 160, 161, 162, 163, 164, 165, 166, 167, 168, 169, 170, 171, 172, 173, 174, 175, 176, 177, 178, 179, 180, 181, 182, 183, 184, 185, 186, 187, 188, 189, 190, 191, 192, 193, 194, 195, 196, 197, 198, 199, 200, 201, 202, 203, 204, 205, 206, 207, 208, 209, 210, 211, 212, 213, 214, 215, 216, 217, 218, 219, 220, 221, 222, 223, 224, 225, 226, 227, 228, 229, 230, 231, 232, 233, 234, 235, 236, 237, 238, 239, 240, 241, 242, 243, 244, 245, 246, 247, 248, 249, 250, 251, 252, 253, 254, 255, 256, 257, 258, 259, 260, 261, 262, 263, 264, 265, 266, 267, 268, 269, 270, 271, 272, 273, 274, 275, 276, 277, 278, 279, 280, 281, 282, 283, 284, 285, 286, 287, 288, 289, 290, 291, 292, 293, 294, 295, 296, 297, 298, 299, 300, 301, 302, 303, 304, 305, 306, 307, 308, 309, 310, 311, 312, 313, 314, 315, 316, 317, 318, 319, 320, 321, 322, 323, 324, 325, 326, 327, 328, 329, 330, 331, 332, 333, 334, 335, 336, 337, 338, 339, 340, 341, 342, 343, 344, 345, 346, 347, 348, 349, 350, 351, 352, 353, 354, 355, 356, 357, 358, 359, 360, 361, 362, 363, 364, 365, 366, 367, 368, 369, 370, 371, 372, 373, 374, 375, 376, 377, 378, 379, 380, 381, 382, 383, 384, 385, 386, 387, 388, 389, 390, 391, 392, 393, 394, 395, 396, 397, 398, 399, 400, 401, 402, 403, 404, 405, 406, 407, 408, 409, 410, 411, 412, 413, 414, 415, 416, 417, 418, 419, 420, 421, 422, 423, 424, 425, 426, 427, 428, 429, 430, 431, 432, 433, 434, 435, 436, 437, 438, 439, 440, 441, 442, 443, 444, 445, 446, 447, 448, 449, 450, 451, 452, 453, 454, 455, 456, 457, 458, 459, 460, 461, 462, 463, 464, 465, 466, 467, 468, 469, 470, 471, 472, 473, 474, 475, 476, 477, 478, 479, 480, 481, 482, 483, 484, 485, 486, 487, 488, 489, 490, 491, 492, 493, 494, 495, 496, 497, 498, 499, 500, 501, 502, 503],
      "AcquisitionTime": ["192324.647500", "192326.137500", "192327.627500", "192329.117500", "192330.607500", "192332.097500", "192333.587500", "192335.077500", "192336.567500", "192338.057500", "192339.547500", "192341.037500", "192342.527500", "192344.017500", "192345.507500", "192346.997500", "192348.487500", "192349.977500", "192351.467500", "192352.957500", "192354.447500", "192355.937500", "192357.427500", "192358.917500", "192400.407500", "192401.897500", "192403.387500", "192404.877500", "192406.367500", "192407.857500", "192409.347500", "192410.837500", "192412.327500", "192413.817500", "192415.307500", "192416.797500", "192418.287500", "192419.777500", "192421.267500", "192422.757500", "192424.247500", "192425.737500", "192427.227500", "192428.717500", "192430.207500", "192431.697500", "192433.187500", "192434.677500", "192436.167500", "192437.657500", "192439.147500", "192440.637500", "192442.127500", "192443.617500", "192445.107500", "192446.597500", "192448.087500", "192449.577500", "192451.067500", "192452.557500", "192454.047500", "192455.537500", "192457.027500", "192458.517500", "192500.007500", "192501.497500", "192502.987500", "192504.477500", "192505.967500", "192507.457500", "192508.947500", "192510.437500", "192511.927500", "192513.417500", "192514.907500", "192516.397500", "192517.887500", "192519.377500", "192520.867500", "192522.357500", "192523.847500", "192525.337500", "192526.827500", "192528.317500", "192529.807500", "192531.297500", "192532.787500", "192534.277500", "192535.767500", "192537.257500", "192538.747500", "192540.237500", "192541.727500", "192543.217500", "192544.707500", "192546.197500", "192547.687500", "192549.177500", "192550.667500", "192552.157500", "192553.647500", "192555.137500", "192556.627500", "192558.117500", "192559.607500", "192601.097500", "192602.587500", "192604.077500", "192605.567500", "192607.057500", "192608.547500", "192610.037500", "192611.527500", "192613.017500", "192614.507500", "192615.997500", "192617.487500", "192618.977500", "192620.467500", "192621.957500", "192623.447500", "192624.937500", "192626.427500", "192627.917500", "192629.407500", "192630.897500", "192632.387500", "192633.877500", "192635.367500", "192636.857500", "192638.347500", "192639.837500", "192641.327500", "192642.817500", "192644.307500", "192645.797500", "192647.287500", "192648.777500", "192650.267500", "192651.757500", "192653.247500", "192654.737500", "192656.227500", "192657.717500", "192659.207500", "192700.697500", "192702.187500", "192703.677500", "192705.167500", "192706.657500", "192708.147500", "192709.637500", "192711.127500", "192712.617500", "192714.107500", "192715.597500", "192717.087500", "192718.577500", "192720.067500", "192721.557500", "192723.047500", "192724.537500", "192726.027500", "192727.517500", "192729.007500", "192730.497500", "192731.987500", "192733.477500", "192734.967500", "192736.457500", "192737.947500", "192739.437500", "192740.927500", "192742.417500", "192743.907500", "192745.397500", "192746.887500", "192748.377500", "192749.867500", "192751.357500", "192752.847500", "192754.337500", "192755.827500", "192757.317500", "192758.807500", "192800.297500", "192801.787500", "192803.277500", "192804.767500", "192806.257500", "192807.747500", "192809.237500", "192810.727500", "192812.217500", "192813.707500", "192815.197500", "192816.687500", "192818.177500", "192819.667500", "192821.157500", "192822.647500", "192824.137500", "192825.627500", "192827.117500", "192828.607500", "192830.097500", "192831.587500", "192833.077500", "192834.567500", "192836.057500", "192837.547500", "192839.037500", "192840.527500", "192842.017500", "192843.507500", "192844.997500", "192846.487500", "192847.977500", "192849.467500", "192850.957500", "192852.447500", "192853.937500", "192855.427500", "192856.917500", "192858.407500", "192859.897500", "192901.387500", "192902.877500", "192904.367500", "192905.857500", "192907.347500", "192908.837500", "192910.327500", "192911.817500", "192913.307500", "192914.797500", "192916.287500", "192917.777500", "192919.267500", "192920.757500", "192922.247500", "192923.737500", "192925.227500", "192926.717500", "192928.207500", "192929.697500", "192931.187500", "192932.677500", "192934.167500", "192935.657500", "192937.147500", "192938.637500", "192940.127500", "192941.617500", "192943.107500", "192944.597500", "192946.087500", "192947.577500", "192949.067500", "192950.557500", "192952.047500", "192953.537500", "192955.027500", "192956.517500", "192958.007500", "192959.497500", "193000.987500", "193002.477500", "193003.967500", "193005.457500", "193006.947500", "193008.437500", "193009.927500", "193011.417500", "193012.907500", "193014.397500", "193015.887500", "193017.377500", "193018.867500", "193020.357500", "193021.847500", "193023.337500", "193024.827500", "193026.317500", "193027.807500", "193029.297500", "193030.787500", "193032.277500", "193033.767500", "193035.257500", "193036.747500", "193038.237500", "193039.727500", "193041.217500", "193042.707500", "193044.197500", "193045.687500", "193047.177500", "193048.667500", "193050.157500", "193051.647500", "193053.137500", "193054.627500", "193056.117500", "193057.607500", "193059.097500", "193100.587500", "193102.077500", "193103.567500", "193105.057500", "193106.547500", "193108.037500", "193109.527500", "193111.017500", "193112.507500", "193113.997500", "193115.487500", "193116.977500", "193118.467500", "193119.957500", "193121.447500", "193122.937500", "193124.427500", "193125.917500", "193127.407500", "193128.897500", "193130.387500", "193131.877500", "193133.367500", "193134.857500", "193136.347500", "193137.837500", "193139.327500", "193140.817500", "193142.307500", "193143.797500", "193145.287500", "193146.777500", "193148.267500", "193149.757500", "193151.247500", "193152.737500", "193154.227500", "193155.717500", "193157.207500", "193158.697500", "193200.187500", "193201.677500", "193203.167500", "193204.657500", "193206.147500", "193207.637500", "193209.127500", "193210.617500", "193212.107500", "193213.597500", "193215.087500", "193216.577500", "193218.067500", "193219.557500", "193221.047500", "193222.537500", "193224.027500", "193225.517500", "193227.007500", "193228.497500", "193229.987500", "193231.477500", "193232.967500", "193234.457500", "193235.947500", "193237.437500", "193238.927500", "193240.417500", "193241.907500", "193243.397500", "193244.887500", "193246.377500", "193247.867500", "193249.357500", "193250.847500", "193252.337500", "193253.827500", "193255.317500", "193256.807500", "193258.297500", "193259.787500", "193301.277500", "193302.767500", "193304.257500", "193305.747500", "193307.237500", "193308.727500", "193310.217500", "193311.707500", "193313.197500", "193314.687500", "193316.177500", "193317.667500", "193319.157500", "193320.647500", "193322.137500", "193323.627500", "193325.117500", "193326.607500", "193328.097500", "193329.587500", "193331.077500", "193332.567500", "193334.057500", "193335.547500", "193337.037500", "193338.527500", "193340.017500", "193341.507500", "193342.997500", "193344.487500", "193345.977500", "193347.467500", "193348.957500", "193350.447500", "193351.937500", "193353.427500", "193354.917500", "193356.407500", "193357.897500", "193359.387500", "193400.877500", "193402.367500", "193403.857500", "193405.347500", "193406.837500", "193408.327500", "193409.817500", "193411.307500", "193412.797500", "193414.287500", "193415.777500", "193417.267500", "193418.757500", "193420.247500", "193421.737500", "193423.227500", "193424.717500", "193426.207500", "193427.697500", "193429.187500", "193430.677500", "193432.167500", "193433.657500", "193435.147500", "193436.637500", "193438.127500", "193439.617500", "193441.107500", "193442.597500", "193444.087500", "193445.577500", "193447.067500", "193448.557500", "193450.047500", "193451.537500", "193453.027500", "193454.517500", "193456.007500", "193457.497500", "193458.987500", "193500.477500", "193501.967500", "193503.457500", "193504.947500", "193506.437500", "193507.927500", "193509.417500", "193510.907500", "193512.397500", "193513.887500", "193515.377500", "193516.867500", "193518.357500", "193519.847500", "193521.337500", "193522.827500", "193524.317500", "193525.807500", "193527.297500", "193528.787500", "193530.277500", "193531.767500", "193533.257500", "193534.747500", "193536.237500", "193537.727500", "193539.217500", "193540.707500", "193542.197500", "193543.687500", "193545.177500", "193546.667500", "193548.157500", "193549.647500", "193551.137500", "193552.627500"],
      "ContentTime": ["192445.519000", "192445.522000", "192445.525000", "192445.528000", "192445.531000", "192445.534000", "192445.537000", "192445.540000", "192445.543000", "192445.546000", "192445.549000", "192445.552000", "192445.555000", "192445.559000", "192445.569000", "192445.579000", "192445.582000", "192445.585000", "192445.588000", "192445.591000", "192445.594000", "192445.602000", "192445.605000", "192445.608000", "192445.611000", "192445.615000", "192505.488000", "192505.491000", "192505.494000", "192505.497000", "192505.500000", "192505.503000", "192505.506000", "192505.509000", "192505.512000", "192505.515000", "192505.518000", "192505.521000", "192505.524000", "192505.527000", "192505.530000", "192505.533000", "192505.536000", "192505.539000", "192505.542000", "192505.545000", "192525.488000", "192525.491000", "192525.494000", "192525.497000", "192525.500000", "192525.503000", "192525.506000", "192525.509000", "192525.512000", "192525.515000", "192525.518000", "192525.521000", "192525.525000", "192525.528000", "192525.531000", "192525.534000", "192525.537000", "192525.540000", "192525.543000", "192525.546000", "192525.549000", "192545.488000", "192545.491000", "192545.495000", "192545.498000", "192545.501000", "192545.505000", "192545.508000", "192545.511000", "192545.514000", "192545.517000", "192545.520000", "192545.523000", "192545.526000", "192545.529000", "192545.532000", "192545.535000", "192545.538000", "192545.541000", "192545.544000", "192545.547000", "192605.489000", "192605.492000", "192605.495000", "192605.498000", "192605.501000", "192605.504000", "192605.507000", "192605.510000", "192605.513000", "192605.517000", "192605.520000", "192605.523000", "192605.526000", "192605.530000", "192605.533000", "192605.536000", "192605.539000", "192605.542000", "192605.545000", "192605.548000", "192645.488000", "192645.491000", "192645.494000", "192645.497000", "192645.500000", "192645.503000", "192645.506000", "192645.509000", "192645.512000", "192645.515000", "192645.518000", "192645.521000", "192645.524000", "192645.527000", "192645.530000", "192645.533000", "192645.536000", "192645.539000", "192645.542000", "192645.545000", "192645.548000", "192645.551000", "192645.554000", "192645.557000", "192645.561000", "192645.563000", "192645.567000", "192725.488000", "192725.491000", "192725.494000", "192725.497000", "192725.500000", "192725.503000", "192725.506000", "192725.509000", "192725.512000", "192725.515000", "192725.518000", "192725.521000", "192725.525000", "192725.527000", "192725.531000", "192725.534000", "192725.537000", "192725.540000", "192725.543000", "192725.546000", "192725.549000", "192725.552000", "192725.555000", "192725.558000", "192725.561000", "192725.564000", "192725.583000", "192805.488000", "192805.491000", "192805.494000", "192805.497000", "192805.500000", "192805.504000", "192805.506000", "192805.509000", "192805.512000", "192805.516000", "192805.519000", "192805.522000", "192805.525000", "192805.528000", "192805.531000", "192805.534000", "192805.537000", "192805.540000", "192805.543000", "192805.546000", "192805.549000", "192805.552000", "192805.555000", "192805.558000", "192805.561000", "192805.564000", "192805.567000", "192845.489000", "192845.492000", "192845.495000", "192845.498000", "192845.502000", "192845.505000", "192845.508000", "192845.511000", "192845.514000", "192845.517000", "192845.520000", "192845.523000", "192845.526000", "192845.529000", "192845.532000", "192845.535000", "192845.539000", "192845.541000", "192845.544000", "192845.547000", "192845.550000", "192845.554000", "192845.557000", "192845.560000", "192845.563000", "192845.566000", "192925.488000", "192925.491000", "192925.494000", "192925.497000", "192925.500000", "192925.503000", "192925.507000", "192925.509000", "192925.512000", "192925.515000", "192925.519000", "192925.522000", "192925.525000", "192925.528000", "192925.531000", "192925.534000", "192925.537000", "192925.540000", "192925.543000", "192925.546000", "192925.549000", "192925.552000", "192925.555000", "192925.558000", "192925.561000", "192925.564000", "192925.567000", "193005.488000", "193005.491000", "193005.494000", "193005.497000", "193005.500000", "193005.504000", "193005.507000", "193005.510000", "193005.513000", "193005.522000", "193005.525000", "193005.528000", "193005.531000", "193005.534000", "193005.537000", "193005.540000", "193005.543000", "193005.546000", "193005.549000", "193005.552000", "193005.555000", "193005.558000", "193005.561000", "193005.564000", "193005.567000", "193005.570000", "193005.573000", "193045.489000", "193045.492000", "193045.495000", "193045.498000", "193045.501000", "193045.504000", "193045.507000", "193045.510000", "193045.514000", "193045.517000", "193045.520000", "193045.523000", "193045.526000", "193045.529000", "193045.532000", "193045.535000", "193045.538000", "193045.541000", "193045.544000", "193045.547000", "193045.550000", "193045.553000", "193045.556000", "193045.559000", "193045.562000", "193045.565000", "193045.568000", "193125.488000", "193125.491000", "193125.494000", "193125.498000", "193125.501000", "193125.503000", "193125.507000", "193125.510000", "193125.514000", "193125.517000", "193125.520000", "193125.523000", "193125.526000", "193125.529000", "193125.532000", "193125.535000", "193125.538000", "193125.541000", "193125.544000", "193125.547000", "193125.550000", "193125.553000", "193125.556000", "193125.559000", "193125.562000", "193125.565000", "193125.568000", "193205.488000", "193205.491000", "193205.494000", "193205.497000", "193205.500000", "193205.503000", "193205.507000", "193205.509000", "193205.512000", "193205.515000", "193205.519000", "193205.522000", "193205.525000", "193205.528000", "193205.531000", "193205.534000", "193205.537000", "193205.540000", "193205.543000", "193205.546000", "193205.549000", "193205.552000", "193205.555000", "193205.558000", "193205.561000", "193205.564000", "193205.576000", "193245.488000", "193245.492000", "193245.495000", "193245.497000", "193245.500000", "193245.504000", "193245.507000", "193245.510000", "193245.513000", "193245.516000", "193245.519000", "193245.522000", "193245.525000", "193245.528000", "193245.531000", "193245.534000", "193245.537000", "193245.540000", "193245.543000", "193245.546000", "193245.549000", "193245.553000", "193245.556000", "193245.559000", "193245.562000", "193245.565000", "193245.568000", "193325.489000", "193325.492000", "193325.495000", "193325.499000", "193325.502000", "193325.505000", "193325.508000", "193325.511000", "193325.514000", "193325.517000", "193325.521000", "193325.524000", "193325.527000", "193325.530000", "193325.533000", "193325.536000", "193325.539000", "193325.542000", "193325.545000", "193325.548000", "193325.551000", "193325.554000", "193325.557000", "193325.560000", "193325.563000", "193325.566000", "193405.488000", "193405.491000", "193405.494000", "193405.497000", "193405.500000", "193405.503000", "193405.506000", "193405.509000", "193405.512000", "193405.515000", "193405.518000", "193405.521000", "193405.524000", "193405.527000", "193405.531000", "193405.534000", "193405.537000", "193405.540000", "193405.543000", "193405.546000", "193405.549000", "193405.552000", "193405.555000", "193405.558000", "193405.561000", "193405.564000", "193405.567000", "193445.488000", "193445.491000", "193445.494000", "193445.497000", "193445.500000", "193445.504000", "193445.506000", "193445.509000", "193445.512000", "193445.516000", "193445.519000", "193445.522000", "193445.525000", "193445.528000", "193445.531000", "193445.534000", "193445.537000", "193445.540000", "193445.543000", "193445.546000", "193445.549000", "193445.553000", "193445.556000", "193445.559000", "193445.562000", "193445.565000", "193445.568000", "193525.489000", "193525.492000", "193525.495000", "193525.498000", "193525.501000", "193525.504000", "193525.507000", "193525.510000", "193525.514000", "193525.517000", "193525.520000", "193525.523000", "193525.526000", "193525.529000", "193525.532000", "193525.535000", "193525.538000", "193525.541000", "193525.544000", "193525.547000", "193525.550000", "193525.553000", "193525.556000", "193525.559000", "193525.570000", "193525.573000", "193525.576000", "193554.677000", "193554.681000", "193554.684000", "193554.687000", "193554.690000", "193554.693000", "193554.696000", "193554.699000", "193554.702000", "193554.705000", "193554.708000", "193554.711000", "193554.714000", "193554.717000", "193554.720000", "193554.723000", "193554.726000", "193554.730000", "193554.733000", "193554.735000"],
