{
  "AcquisitionMatrixPE": 104,
  "AcquisitionNumber": 1,
  "AcquisitionTime": "18:59:13.825000",
  "BandwidthPerPixelPhaseEncode": 17.17,
  "BaseResolution": 104,
  "BodyPartExamined": "BRAIN",
  "CoilString": "HC1-7;NC1_2",
  "ConsistencyInfo": "N4_VE11C_LATEST_20160120",
  "ConversionSoftware": "dcm2niix",
  "ConversionSoftwareVersion": "v1.0.20190902",
  "DerivedVendorReportedEchoSpacing": 0.000560011,
  "DeviceSerialNumber": "167006",
  "DwellTime": 2.1e-06,
  "EchoTime": 0.037,
  "EchoTrainLength": 104,
  "EffectiveEchoSpacing": 0.000560011,
  "FlipAngle": 52,
  "ImageComments": "Unaliased_MB4_PE3_LB",
  "ImageOrientationPatientDICOM": [0.999258, -0.033407, -0.0191451, 0.0238978, 0.927961, -0.37191],
  "ImageType": [
    "ORIGINAL",
    "PRIMARY",
    "M",
    "MB",
    "ND",
    "MOSAIC"
],
  "ImagingFrequency": 123.259,
  "InPlanePhaseEncodingDirectionDICOM": "COL",
  "InstitutionAddress": "Chemin_Queen-Mary_4565_Montreal_District_CA_H3W_1W5",
  "InstitutionName": "IUGM",
  "InstitutionalDepartmentName": "Department",
  "MRAcquisitionType": "2D",
  "MagneticFieldStrength": 3,
  "Manufacturer": "Siemens",
  "ManufacturersModelName": "Prisma_fit",
  "Modality": "MR",
  "MultibandAccelerationFactor": 4,
  "PartialFourier": 1,
  "PatientPosition": "HFS",
  "PercentPhaseFOV": 100,
  "PhaseEncodingDirection": "j",
  "PhaseEncodingSteps": 104,
  "PhaseResolution": 1,
  "PixelBandwidth": 2290,
  "ProcedureStepDescription": "video_friends",
  "ProtocolName": "func_task-friends-s01e02a",
  "PulseSequenceDetails": "%CustomerSeq%_cmrr_mbep2d_bold",
  "ReceiveCoilActiveElements": "HC1-7;NC1,2",
  "ReceiveCoilName": "HeadNeck_64",
  "ReconMatrixPE": 104,
  "RepetitionTime": 1.49,
  "SAR": 0.0437202,
  "ScanOptions": "FS",
  "ScanningSequence": "EP",
  "SequenceName": "epfid2d1_104",
  "SequenceVariant": "SK_SS",
  "SeriesDescription": "func_task-friends-s01e02a",
  "SeriesNumber": 9,
  "ShimSetting": [620, -7297, -8814, 450, 27, -441, 40, 50],
  "SliceThickness": 2,
  "SliceTiming": [0, 0.785, 0.1, 0.8825, 0.1975, 0.98, 0.295, 1.08, 0.3925, 1.1775, 0.49, 1.275, 0.59, 1.3725, 0.6875, 0, 0.785, 0.1, 0.8825, 0.1975, 0.98, 0.295, 1.08, 0.3925, 1.1775, 0.49, 1.275, 0.59, 1.3725, 0.6875, 0, 0.785, 0.1, 0.8825, 0.1975, 0.98, 0.295, 1.08, 0.3925, 1.1775, 0.49, 1.275, 0.59, 1.3725, 0.6875, 0, 0.785, 0.1, 0.8825, 0.1975, 0.98, 0.295, 1.08, 0.3925, 1.1775, 0.49, 1.275, 0.59, 1.3725, 0.6875],
  "SoftwareVersions": "syngo_MR_E11",
  "SpacingBetweenSlices": 2,
  "StationName": "MRC35049",
  "TaskName": "s01e02a",
  "TotalReadoutTime": 0.0576811,
  "TxRefAmp": 254.236,
  "WipMemBlock": "f7e74378-e34b-4735-bfb6-f8f75cd1e475||Sequence: R016 ve11c/master r/e634e98; Dec 19 2017 11:00:25 by eja",
  "dcmmeta_affine": [
    [-1.9985169172286987, 0.04779566079378128, -0.06038053333759308, 98.43819427490234],
    [0.06681390851736069, 1.8559222221374512, -0.7423533797264099, -73.27723693847656],
    [-0.038290150463581085, 0.7438200116157532, 1.8561426401138306, -56.5882682800293],
    [0.0, 0.0, 0.0, 1.0]
],
  "dcmmeta_reorient_transform": [
    [0.0, -1.0, 0.0, 103.0],
    [1.0, 0.0, 0.0, 0.0],
    [0.0, 0.0, 1.0, 0.0],
    [0.0, 0.0, 0.0, 1.0]
],
  "dcmmeta_shape": [104, 104, 60, 472],
  "dcmmeta_slice_dim": 2,
  "dcmmeta_version": 0.6,
  "global": {
    "const": {
      "AcquisitionMatrix": [104, 0, 0, 104],
      "AngioFlag": "N",
      "BitsAllocated": 16,
      "BitsStored": 16,
      "BodyPartExamined": "BRAIN",
      "Columns": 832,
      "EchoNumbers": 1,
      "EchoTime": 37.0,
      "EchoTrainLength": 104,
      "FlipAngle": 52.0,
      "HighBit": 15,
      "ImageOrientationPatient": [0.99925844580737, -0.0334069534917, -0.0191450761564, 0.0238978301742, 0.9279611208859, -0.3719100050243],
      "ImagePositionPatient": [-848.21891654273, -769.11818645837, 304.71329057026],
      "ImageType": [
        "ORIGINAL",
        "PRIMARY",
        "M",
        "MB",
        "ND",
        "MOSAIC"
],
      "ImagedNucleus": "1H",
      "ImagingFrequency": 123.258814,
      "InPlanePhaseEncodingDirection": "COL",
      "MRAcquisitionType": "2D",
      "MagneticFieldStrength": 3.0,
      "Manufacturer": "SIEMENS",
      "ManufacturerModelName": "Prisma_fit",
      "Modality": "MR",
      "NumberOfAverages": 1.0,
      "NumberOfPhaseEncodingSteps": 104,
      "PercentPhaseFieldOfView": 100.0,
      "PercentSampling": 100.0,
      "PerformedProcedureStepStartTime": "185538.702000",
      "PhotometricInterpretation": "MONOCHROME2",
      "PixelBandwidth": 2290.0,
      "PixelRepresentation": 0,
      "PixelSpacing": [2.0, 2.0],
      "ProtocolName": "func_task-friends-s01e02a",
      "RepetitionTime": 1490.0,
      "Rows": 832,
      "SAR": 0.0437201510301,
      "SamplesPerPixel": 1,
      "ScanOptions": "FS",
      "ScanningSequence": "EP",
      "SequenceName": "epfid2d1_104",
      "SequenceVariant": [
        "SK",
        "SS"
],
      "SeriesDescription": "func_task-friends-s01e02a",
      "SeriesNumber": 9,
      "SeriesTime": "190057.226000",
      "SliceLocation": -28.291023955054,
      "SliceThickness": 2.0,
      "SmallestImagePixelValue": 0,
      "SoftwareVersions": "syngo MR E11",
      "SpacingBetweenSlices": 2.0000000079724,
      "SpecificCharacterSet": "ISO_IR 100",
      "StudyID": "1",
      "StudyTime": "185538.626000",
      "TransmitCoilName": "Body",
      "VariableFlipAngleFlag": "N",
      "WindowCenterWidthExplanation": "Algo1",
      "dBdt": 0.0},
    "slices": {}
  },
  "time": {
    "samples": {
      "AcquisitionNumber": [1, 2, 3, 4, 5, 6, 7, 8, 9, 10, 11, 12, 13, 14, 15, 16, 17, 18, 19, 20, 21, 22, 23, 24, 25, 26, 27, 28, 29, 30, 31, 32, 33, 34, 35, 36, 37, 38, 39, 40, 41, 42, 43, 44, 45, 46, 47, 48, 49, 50, 51, 52, 53, 54, 55, 56, 57, 58, 59, 60, 61, 62, 63, 64, 65, 66, 67, 68, 69, 70, 71, 72, 73, 74, 75, 76, 77, 78, 79, 80, 81, 82, 83, 84, 85, 86, 87, 88, 89, 90, 91, 92, 93, 94, 95, 96, 97, 98, 99, 100, 101, 102, 103, 104, 105, 106, 107, 108, 109, 110, 111, 112, 113, 114, 115, 116, 117, 118, 119, 120, 121, 122, 123, 124, 125, 126, 127, 128, 129, 130, 131, 132, 133, 134, 135, 136, 137, 138, 139, 140, 141, 142, 143, 144, 145, 146, 147, 148, 149, 150, 151, 152, 153, 154, 155, 156, 157, 158, 159, 160, 161, 162, 163, 164, 165, 166, 167, 168, 169, 170, 171, 172, 173, 174, 175, 176, 177, 178, 179, 180, 181, 182, 183, 184, 185, 186, 187, 188, 189, 190, 191, 192, 193, 194, 195, 196, 197, 198, 199, 200, 201, 202, 203, 204, 205, 206, 207, 208, 209, 210, 211, 212, 213, 214, 215, 216, 217, 218, 219, 220, 221, 222, 223, 224, 225, 226, 227, 228, 229, 230, 231, 232, 233, 234, 235, 236, 237, 238, 239, 240, 241, 242, 243, 244, 245, 246, 247, 248, 249, 250, 251, 252, 253, 254, 255, 256, 257, 258, 259, 260, 261, 262, 263, 264, 265, 266, 267, 268, 269, 270, 271, 272, 273, 274, 275, 276, 277, 278, 279, 280, 281, 282, 283, 284, 285, 286, 287, 288, 289, 290, 291, 292, 293, 294, 295, 296, 297, 298, 299, 300, 301, 302, 303, 304, 305, 306, 307, 308, 309, 310, 311, 312, 313, 314, 315, 316, 317, 318, 319, 320, 321, 322, 323, 324, 325, 326, 327, 328, 329, 330, 331, 332, 333, 334, 335, 336, 337, 338, 339, 340, 341, 342, 343, 344, 345, 346, 347, 348, 349, 350, 351, 352, 353, 354, 355, 356, 357, 358, 359, 360, 361, 362, 363, 364, 365, 366, 367, 368, 369, 370, 371, 372, 373, 374, 375, 376, 377, 378, 379, 380, 381, 382, 383, 384, 385, 386, 387, 388, 389, 390, 391, 392, 393, 394, 395, 396, 397, 398, 399, 400, 401, 402, 403, 404, 405, 406, 407, 408, 409, 410, 411, 412, 413, 414, 415, 416, 417, 418, 419, 420, 421, 422, 423, 424, 425, 426, 427, 428, 429, 430, 431, 432, 433, 434, 435, 436, 437, 438, 439, 440, 441, 442, 443, 444, 445, 446, 447, 448, 449, 450, 451, 452, 453, 454, 455, 456, 457, 458, 459, 460, 461, 462, 463, 464, 465, 466, 467, 468, 469, 470, 471, 472],
      "AcquisitionTime": ["185913.825000", "185915.315000", "185916.805000", "185918.295000", "185919.785000", "185921.275000", "185922.765000", "185924.255000", "185925.745000", "185927.235000", "185928.725000", "185930.215000", "185931.705000", "185933.195000", "185934.685000", "185936.175000", "185937.665000", "185939.155000", "185940.645000", "185942.135000", "185943.625000", "185945.115000", "185946.605000", "185948.095000", "185949.585000", "185951.075000", "185952.565000", "185954.055000", "185955.545000", "185957.035000", "185958.525000", "190000.015000", "190001.505000", "190002.995000", "190004.485000", "190005.975000", "190007.465000", "190008.955000", "190010.445000", "190011.935000", "190013.425000", "190014.915000", "190016.405000", "190017.895000", "190019.385000", "190020.875000", "190022.365000", "190023.855000", "190025.345000", "190026.835000", "190028.325000", "190029.815000", "190031.305000", "190032.795000", "190034.285000", "190035.775000", "190037.265000", "190038.755000", "190040.245000", "190041.735000", "190043.225000", "190044.715000", "190046.205000", "190047.695000", "190049.185000", "190050.675000", "190052.165000", "190053.655000", "190055.145000", "190056.635000", "190058.125000", "190059.615000", "190101.105000", "190102.595000", "190104.085000", "190105.575000", "190107.065000", "190108.555000", "190110.045000", "190111.535000", "190113.025000", "190114.515000", "190116.005000", "190117.495000", "190118.985000", "190120.475000", "190121.965000", "190123.455000", "190124.945000", "190126.435000", "190127.925000", "190129.415000", "190130.905000", "190132.395000", "190133.885000", "190135.375000", "190136.865000", "190138.355000", "190139.845000", "190141.335000", "190142.825000", "190144.315000", "190145.805000", "190147.295000", "190148.785000", "190150.275000", "190151.765000", "190153.255000", "190154.745000", "190156.235000", "190157.725000", "190159.215000", "190200.705000", "190202.195000", "190203.685000", "190205.175000", "190206.665000", "190208.155000", "190209.645000", "190211.135000", "190212.625000", "190214.115000", "190215.605000", "190217.095000", "190218.585000", "190220.075000", "190221.565000", "190223.055000", "190224.545000", "190226.035000", "190227.525000", "190229.015000", "190230.505000", "190231.995000", "190233.485000", "190234.975000", "190236.465000", "190237.955000", "190239.445000", "190240.935000", "190242.425000", "190243.915000", "190245.405000", "190246.895000", "190248.385000", "190249.875000", "190251.365000", "190252.855000", "190254.345000", "190255.835000", "190257.325000", "190258.815000", "190300.305000", "190301.795000", "190303.285000", "190304.775000", "190306.265000", "190307.755000", "190309.245000", "190310.735000", "190312.225000", "190313.715000", "190315.205000", "190316.695000", "190318.185000", "190319.675000", "190321.165000", "190322.655000", "190324.145000", "190325.635000", "190327.125000", "190328.615000", "190330.105000", "190331.595000", "190333.085000", "190334.575000", "190336.065000", "190337.555000", "190339.045000", "190340.535000", "190342.025000", "190343.515000", "190345.005000", "190346.495000", "190347.985000", "190349.475000", "190350.965000", "190352.455000", "190353.945000", "190355.435000", "190356.925000", "190358.415000", "190359.905000", "190401.395000", "190402.885000", "190404.375000", "190405.865000", "190407.355000", "190408.845000", "190410.335000", "190411.825000", "190413.315000", "190414.805000", "190416.295000", "190417.785000", "190419.275000", "190420.765000", "190422.255000", "190423.745000", "190425.235000", "190426.725000", "190428.215000", "190429.705000", "190431.195000", "190432.685000", "190434.175000", "190435.665000", "190437.155000", "190438.645000", "190440.135000", "190441.625000", "190443.115000", "190444.605000", "190446.095000", "190447.585000", "190449.075000", "190450.565000", "190452.055000", "190453.545000", "190455.035000", "190456.525000", "190458.015000", "190459.505000", "190500.995000", "190502.485000", "190503.975000", "190505.465000", "190506.955000", "190508.445000", "190509.935000", "190511.425000", "190512.915000", "190514.405000", "190515.895000", "190517.385000", "190518.875000", "190520.365000", "190521.855000", "190523.345000", "190524.835000", "190526.325000", "190527.815000", "190529.305000", "190530.795000", "190532.285000", "190533.775000", "190535.265000", "190536.755000", "190538.245000", "190539.735000", "190541.225000", "190542.715000", "190544.205000", "190545.695000", "190547.185000", "190548.675000", "190550.165000", "190551.655000", "190553.145000", "190554.635000", "190556.125000", "190557.615000", "190559.105000", "190600.595000", "190602.085000", "190603.575000", "190605.065000", "190606.555000", "190608.045000", "190609.535000", "190611.025000", "190612.515000", "190614.005000", "190615.495000", "190616.985000", "190618.475000", "190619.965000", "190621.455000", "190622.945000", "190624.435000", "190625.925000", "190627.415000", "190628.905000", "190630.395000", "190631.885000", "190633.375000", "190634.865000", "190636.355000", "190637.845000", "190639.335000", "190640.825000", "190642.315000", "190643.805000", "190645.295000", "190646.785000", "190648.275000", "190649.765000", "190651.255000", "190652.745000", "190654.235000", "190655.725000", "190657.215000", "190658.705000", "190700.195000", "190701.685000", "190703.175000", "190704.665000", "190706.155000", "190707.645000", "190709.135000", "190710.625000", "190712.115000", "190713.605000", "190715.095000", "190716.585000", "190718.075000", "190719.565000", "190721.055000", "190722.545000", "190724.035000", "190725.525000", "190727.015000", "190728.505000", "190729.995000", "190731.485000", "190732.975000", "190734.465000", "190735.955000", "190737.445000", "190738.935000", "190740.425000", "190741.915000", "190743.405000", "190744.895000", "190746.385000", "190747.875000", "190749.365000", "190750.855000", "190752.345000", "190753.835000", "190755.325000", "190756.815000", "190758.305000", "190759.795000", "190801.285000", "190802.775000", "190804.265000", "190805.755000", "190807.245000", "190808.735000", "190810.225000", "190811.715000", "190813.205000", "190814.695000", "190816.185000", "190817.675000", "190819.165000", "190820.655000", "190822.145000", "190823.635000", "190825.125000", "190826.615000", "190828.105000", "190829.595000", "190831.085000", "190832.575000", "190834.065000", "190835.555000", "190837.045000", "190838.535000", "190840.025000", "190841.515000", "190843.005000", "190844.495000", "190845.985000", "190847.475000", "190848.965000", "190850.455000", "190851.945000", "190853.435000", "190854.925000", "190856.415000", "190857.905000", "190859.395000", "190900.885000", "190902.375000", "190903.865000", "190905.355000", "190906.845000", "190908.335000", "190909.825000", "190911.315000", "190912.805000", "190914.295000", "190915.785000", "190917.275000", "190918.765000", "190920.255000", "190921.745000", "190923.235000", "190924.725000", "190926.215000", "190927.705000", "190929.195000", "190930.685000", "190932.175000", "190933.665000", "190935.155000", "190936.645000", "190938.135000", "190939.625000", "190941.115000", "190942.605000", "190944.095000", "190945.585000", "190947.075000", "190948.565000", "190950.055000", "190951.545000", "190953.035000", "190954.525000", "190956.015000", "190957.505000", "190958.995000", "191000.485000", "191001.975000", "191003.465000", "191004.955000", "191006.445000", "191007.935000", "191009.425000", "191010.915000", "191012.405000", "191013.895000", "191015.385000", "191016.875000", "191018.365000", "191019.855000", "191021.345000", "191022.835000", "191024.325000", "191025.815000", "191027.305000", "191028.795000", "191030.285000", "191031.775000", "191033.265000", "191034.755000", "191036.245000", "191037.735000", "191039.225000", "191040.715000", "191042.205000", "191043.695000", "191045.185000", "191046.675000", "191048.165000", "191049.655000", "191051.145000", "191052.635000", "191054.125000", "191055.615000"],
      "ContentTime": ["190057.229000", "190057.233000", "190057.236000", "190057.239000", "190057.242000", "190057.245000", "190057.248000", "190057.251000", "190057.254000", "190057.257000", "190057.260000", "190057.263000", "190057.274000", "190057.277000", "190057.284000", "190057.287000", "190057.291000", "190057.294000", "190057.297000", "190057.300000", "190117.191000", "190117.194000", "190117.197000", "190117.200000", "190117.205000", "190117.208000", "190117.212000", "190117.215000", "190117.218000", "190117.221000", "190117.224000", "190117.227000", "190117.230000", "190117.233000", "190117.236000", "190117.239000", "190117.242000", "190117.245000", "190117.248000", "190117.251000", "190137.192000", "190137.195000", "190137.198000", "190137.201000", "190137.204000", "190137.207000", "190137.210000", "190137.213000", "190137.216000", "190137.219000", "190137.223000", "190137.226000", "190137.229000", "190137.232000", "190137.235000", "190137.238000", "190137.241000", "190137.244000", "190137.247000", "190137.250000", "190157.192000", "190157.195000", "190157.198000", "190157.201000", "190157.204000", "190157.207000", "190157.210000", "190157.213000", "190157.216000", "190157.219000", "190157.222000", "190157.225000", "190157.228000", "190157.231000", "190157.234000", "190157.237000", "190157.240000", "190157.243000", "190157.246000", "190157.249000", "190157.252000", "190217.192000", "190217.195000", "190217.198000", "190217.201000", "190217.204000", "190217.207000", "190217.210000", "190217.213000", "190217.216000", "190217.219000", "190217.222000", "190217.226000", "190217.229000", "190217.231000", "190217.234000", "190217.238000", "190217.240000", "190217.243000", "190217.246000", "190217.249000", "190237.191000", "190237.194000", "190237.197000", "190237.200000", "190237.203000", "190237.206000", "190237.209000", "190237.213000", "190237.216000", "190237.219000", "190237.222000", "190237.225000", "190237.228000", "190237.231000", "190237.234000", "190237.237000", "190237.240000", "190237.243000", "190237.246000", "190237.250000", "190257.191000", "190257.194000", "190257.197000", "190257.200000", "190257.203000", "190257.206000", "190257.209000", "190257.212000", "190257.215000", "190257.218000", "190257.221000", "190257.224000", "190257.227000", "190257.230000", "190257.233000", "190257.237000", "190257.240000", "190257.243000", "190257.245000", "190257.249000", "190317.191000", "190317.194000", "190317.197000", "190317.201000", "190317.204000", "190317.207000", "190317.210000", "190317.213000", "190317.216000", "190317.219000", "190317.222000", "190317.225000", "190317.228000", "190317.231000", "190317.234000", "190317.237000", "190317.240000", "190317.243000", "190317.246000", "190317.249000", "190357.192000", "190357.195000", "190357.198000", "190357.201000", "190357.204000", "190357.207000", "190357.210000", "190357.214000", "190357.216000", "190357.219000", "190357.222000", "190357.226000", "190357.229000", "190357.231000", "190357.234000", "190357.238000", "190357.241000", "190357.243000", "190357.246000", "190357.249000", "190357.252000", "190357.255000", "190357.258000", "190357.261000", "190357.265000", "190357.268000", "190357.271000", "190357.274000", "190437.192000", "190437.195000", "190437.198000", "190437.201000", "190437.204000", "190437.208000", "190437.211000", "190437.214000", "190437.217000", "190437.220000", "190437.223000", "190437.234000", "190437.237000", "190437.240000", "190437.243000", "190437.246000", "190437.249000", "190437.252000", "190437.255000", "190437.258000", "190437.261000", "190437.265000", "190437.268000", "190437.271000", "190437.274000", "190437.277000", "190437.280000", "190517.191000", "190517.194000", "190517.197000", "190517.200000", "190517.204000", "190517.207000", "190517.210000", "190517.213000", "190517.216000", "190517.219000", "190517.222000", "190517.225000", "190517.228000", "190517.231000", "190517.234000", "190517.237000", "190517.240000", "190517.243000", "190517.246000", "190517.249000", "190517.252000", "190517.255000", "190517.258000", "190517.261000", "190517.265000", "190517.268000", "190517.271000", "190557.191000", "190557.194000", "190557.197000", "190557.201000", "190557.204000", "190557.207000", "190557.210000", "190557.213000", "190557.216000", "190557.219000", "190557.222000", "190557.225000", "190557.228000", "190557.231000", "190557.234000", "190557.237000", "190557.240000", "190557.243000", "190557.246000", "190557.249000", "190557.252000", "190557.255000", "190557.258000", "190557.262000", "190557.265000", "190557.268000", "190557.270000", "190637.192000", "190637.195000", "190637.198000", "190637.201000", "190637.204000", "190637.207000", "190637.211000", "190637.214000", "190637.217000", "190637.220000", "190637.223000", "190637.226000", "190637.229000", "190637.232000", "190637.235000", "190637.238000", "190637.241000", "190637.244000", "190637.247000", "190637.250000", "190637.253000", "190637.256000", "190637.259000", "190637.262000", "190637.265000", "190637.268000", "190637.271000", "190717.191000", "190717.194000", "190717.197000", "190717.201000", "190717.204000", "190717.207000", "190717.210000", "190717.213000", "190717.216000", "190717.219000", "190717.222000", "190717.225000", "190717.228000", "190717.231000", "190717.234000", "190717.237000", "190717.240000", "190717.243000", "190717.246000", "190717.249000", "190717.254000", "190717.257000", "190717.260000", "190717.263000", "190717.266000", "190717.269000", "190757.191000", "190757.194000", "190757.197000", "190757.201000", "190757.204000", "190757.207000", "190757.210000", "190757.213000", "190757.216000", "190757.219000", "190757.222000", "190757.225000", "190757.228000", "190757.231000", "190757.234000", "190757.237000", "190757.240000", "190757.243000", "190757.246000", "190757.249000", "190757.252000", "190757.255000", "190757.258000", "190757.261000", "190757.264000", "190757.267000", "190757.270000", "190837.192000", "190837.195000", "190837.199000", "190837.202000", "190837.205000", "190837.208000", "190837.211000", "190837.214000", "190837.217000", "190837.220000", "190837.223000", "190837.226000", "190837.229000", "190837.232000", "190837.235000", "190837.238000", "190837.241000", "190837.244000", "190837.247000", "190837.250000", "190837.253000", "190837.256000", "190837.259000", "190837.262000", "190837.265000", "190837.269000", "190837.272000", "190917.192000", "190917.195000", "190917.199000", "190917.202000", "190917.205000", "190917.208000", "190917.211000", "190917.214000", "190917.217000", "190917.220000", "190917.223000", "190917.234000", "190917.237000", "190917.240000", "190917.243000", "190917.246000", "190917.249000", "190917.252000", "190917.255000", "190917.258000", "190917.261000", "190917.264000", "190917.267000", "190917.271000", "190917.274000", "190917.277000", "190917.280000", "190957.191000", "190957.194000", "190957.197000", "190957.200000", "190957.203000", "190957.207000", "190957.210000", "190957.213000", "190957.216000", "190957.219000", "190957.222000", "190957.225000", "190957.228000", "190957.231000", "190957.234000", "190957.237000", "190957.240000", "190957.243000", "190957.246000", "190957.249000", "190957.252000", "190957.255000", "190957.258000", "190957.261000", "190957.264000", "190957.268000", "190957.270000", "191037.191000", "191037.194000", "191037.197000", "191037.200000", "191037.203000", "191037.206000", "191037.209000", "191037.213000", "191037.216000", "191037.219000", "191037.222000", "191037.225000", "191037.228000", "191037.231000", "191037.234000", "191037.237000", "191037.240000", "191037.243000", "191037.246000", "191037.249000", "191037.252000", "191037.255000", "191037.258000", "191037.261000", "191037.264000", "191037.267000", "191037.270000", "191057.946000", "191057.949000", "191057.952000", "191057.955000", "191057.967000", "191057.970000", "191057.973000", "191057.976000", "191057.979000", "191057.982000", "191057.985000", "191057.988000", "191057.992000", "191057.995000"],
