{
  "AcquisitionMatrixPE": 104,
  "AcquisitionNumber": 1,
  "AcquisitionTime": "14:05:24.752500",
  "BandwidthPerPixelPhaseEncode": 17.17,
  "BaseResolution": 104,
  "BodyPartExamined": "BRAIN",
  "CoilCombinationMethod": "Sum of Squares",
  "ConsistencyInfo": "N4_VE11C_LATEST_20160120",
  "ConversionSoftware": "dcm2niix",
  "ConversionSoftwareVersion": "v1.0.20220505",
  "DerivedVendorReportedEchoSpacing": 0.000560011,
  "DeviceSerialNumber": "167006",
  "DwellTime": 2.1e-06,
  "EchoTime": 0.037,
  "EchoTrainLength": 104,
  "EffectiveEchoSpacing": 0.000560011,
  "FlipAngle": 52,
  "HeudiconvVersion": "0.5.3.post811+g6206e14",
  "ImageComments": "Unaliased MB4/PE3/LB",
  "ImageOrientationPatientDICOM": [0.999835, 0.00956945, 0.0154177, -0.00471165, 0.957409, -0.288695],
  "ImageOrientationText": "Tra>Cor(-16.8)>Sag(1.0)",
  "ImageType": [
    "ORIGINAL",
    "PRIMARY",
    "M",
    "MB",
    "ND",
    "MOSAIC"
],
  "ImagingFrequency": 123.259,
  "InPlanePhaseEncodingDirectionDICOM": "COL",
  "InstitutionAddress": "Chemin Queen-Mary 4565,Montreal,District,CA,H3W 1W5",
  "InstitutionName": "IUGM",
  "InstitutionalDepartmentName": "Department",
  "MRAcquisitionType": "2D",
  "MagneticFieldStrength": 3,
  "Manufacturer": "Siemens",
  "ManufacturersModelName": "Prisma_fit",
  "MatrixCoilMode": "SENSE",
  "Modality": "MR",
  "MultibandAccelerationFactor": 4,
  "PartialFourier": 1,
  "PatientPosition": "HFS",
  "PercentPhaseFOV": 100,
  "PercentSampling": 100,
  "PhaseEncodingDirection": "j",
  "PhaseEncodingSteps": 104,
  "PhaseResolution": 1,
  "PixelBandwidth": 2290,
  "ProcedureStepDescription": "video^friends",
  "ProtocolName": "func_task-friends-s06e21a",
  "PulseSequenceDetails": "%CustomerSeq%\\cmrr_mbep2d_bold",
  "ReceiveCoilActiveElements": "HC1-7;NC1,2",
  "ReceiveCoilName": "HeadNeck_64",
  "ReconMatrixPE": 104,
  "RepetitionTime": 1.49,
  "SAR": 0.0589962,
  "ScanOptions": "FS",
  "ScanningSequence": "EP",
  "SequenceName": "epfid2d1_104",
  "SequenceVariant": "SK\\SS",
  "SeriesDescription": "func_task-friends-s06e21a",
  "SeriesNumber": 16,
  "ShimSetting": [643, -7209, -8785, 686, 99, -36, 34, -5],
  "SliceThickness": 2,
  "SliceTiming": [0, 0.785, 0.0975, 0.8825, 0.1975, 0.98, 0.295, 1.0775, 0.3925, 1.1775, 0.49, 1.275, 0.5875, 1.3725, 0.6875, 0, 0.785, 0.0975, 0.8825, 0.1975, 0.98, 0.295, 1.0775, 0.3925, 1.1775, 0.49, 1.275, 0.5875, 1.3725, 0.6875, 0, 0.785, 0.0975, 0.8825, 0.1975, 0.98, 0.295, 1.0775, 0.3925, 1.1775, 0.49, 1.275, 0.5875, 1.3725, 0.6875, 0, 0.785, 0.0975, 0.8825, 0.1975, 0.98, 0.295, 1.0775, 0.3925, 1.1775, 0.49, 1.275, 0.5875, 1.3725, 0.6875],
  "SoftwareVersions": "syngo MR E11",
  "SpacingBetweenSlices": 2,
  "StationName": "MRC35049",
  "TaskName": "s06e21a",
  "TotalReadoutTime": 0.0576811,
  "TxRefAmp": 242.671,
  "WipMemBlock": "3d22a504-ac08-4e30-b268-f23a15f69e64||Sequence: R016 ve11c/master r/e634e98; Dec 19 2017 11:00:25 by eja",
  "dcmmeta_affine": [
    [-1.9996707439422607, -0.00942329689860344, 0.035047318786382675, 104.54667663574219],
    [-0.019138891249895096, 1.9148187637329102, -0.5771504640579224, -79.44485473632812],
    [0.03083530068397522, 0.5773907899856567, 1.9145938158035278, -64.78389739990234],
    [0.0, 0.0, 0.0, 1.0]
],
  "dcmmeta_reorient_transform": [
    [0.0, -1.0, 0.0, 103.0],
    [1.0, 0.0, 0.0, 0.0],
    [0.0, 0.0, 1.0, 0.0],
    [0.0, 0.0, 0.0, 1.0]
],
  "dcmmeta_shape": [104, 104, 60, 460],
  "dcmmeta_slice_dim": 2,
  "dcmmeta_version": 0.6,
  "global": {
    "const": {
      "AcquisitionMatrix": [104, 0, 0, 104],
      "AngioFlag": "N",
      "BitsAllocated": 16,
      "BitsStored": 16,
      "BodyPartExamined": "BRAIN",
      "Columns": 832,
      "EchoNumbers": 1,
      "EchoTime": 37.0,
      "EchoTrainLength": 104,
      "FlipAngle": 52.0,
      "HighBit": 15,
      "ImageOrientationPatient": [0.99983534732013, 0.00956944602877, 0.01541765066242, -0.0047116486162, 0.95740940439174, -0.288695397867],
      "ImagePositionPatient": [-828.02613157488, -821.74208271857, 193.63355372229],
      "ImageType": [
        "ORIGINAL",
        "PRIMARY",
        "M",
        "MB",
        "ND",
        "MOSAIC"
],
      "ImagedNucleus": "1H",
      "ImagingFrequency": 123.25883,
      "InPlanePhaseEncodingDirection": "COL",
      "MRAcquisitionType": "2D",
      "MagneticFieldStrength": 3.0,
      "Manufacturer": "SIEMENS",
      "ManufacturerModelName": "Prisma_fit",
      "Modality": "MR",
      "NumberOfAverages": 1.0,
      "NumberOfPhaseEncodingSteps": 104,
      "PercentPhaseFieldOfView": 100.0,
      "PercentSampling": 100.0,
      "PerformedProcedureStepStartTime": "130030.174000",
      "PhotometricInterpretation": "MONOCHROME2",
      "PixelBandwidth": 2290.0,
      "PixelRepresentation": 0,
      "PixelSpacing": [2.0, 2.0],
      "ProtocolName": "func_task-friends-s06e21a",
      "RepetitionTime": 1490.0,
      "Rows": 832,
      "SAR": 0.05899623788911,
      "SamplesPerPixel": 1,
      "ScanOptions": "FS",
      "ScanningSequence": "EP",
      "SequenceName": "epfid2d1_104",
      "SequenceVariant": [
        "SK",
        "SS"
],
      "SeriesDescription": "func_task-friends-s06e21a",
      "SeriesNumber": 16,
      "SeriesTime": "140651.142000",
      "SliceLocation": -37.259564152221,
      "SliceThickness": 2.0,
      "SmallestImagePixelValue": 0,
      "SoftwareVersions": "syngo MR E11",
      "SpacingBetweenSlices": 2.0000000700828,
      "SpecificCharacterSet": "ISO_IR 100",
      "StudyID": "1",
      "StudyTime": "130030.081000",
      "TransmitCoilName": "Body",
      "VariableFlipAngleFlag": "N",
      "WindowCenterWidthExplanation": "Algo1",
      "dBdt": 0.0},
    "slices": {}
  },
  "time": {
    "samples": {
      "AcquisitionNumber": [1, 2, 3, 4, 5, 6, 7, 8, 9, 10, 11, 12, 13, 14, 15, 16, 17, 18, 19, 20, 21, 22, 23, 24, 25, 26, 27, 28, 29, 30, 31, 32, 33, 34, 35, 36, 37, 38, 39, 40, 41, 42, 43, 44, 45, 46, 47, 48, 49, 50, 51, 52, 53, 54, 55, 56, 57, 58, 59, 60, 61, 62, 63, 64, 65, 66, 67, 68, 69, 70, 71, 72, 73, 74, 75, 76, 77, 78, 79, 80, 81, 82, 83, 84, 85, 86, 87, 88, 89, 90, 91, 92, 93, 94, 95, 96, 97, 98, 99, 100, 101, 102, 103, 104, 105, 106, 107, 108, 109, 110, 111, 112, 113, 114, 115, 116, 117, 118, 119, 120, 121, 122, 123, 124, 125, 126, 127, 128, 129, 130, 131, 132, 133, 134, 135, 136, 137, 138, 139, 140, 141, 142, 143, 144, 145, 146, 147, 148, 149, 150, 151, 152, 153, 154, 155, 156, 157, 158, 159, 160, 161, 162, 163, 164, 165, 166, 167, 168, 169, 170, 171, 172, 173, 174, 175, 176, 177, 178, 179, 180, 181, 182, 183, 184, 185, 186, 187, 188, 189, 190, 191, 192, 193, 194, 195, 196, 197, 198, 199, 200, 201, 202, 203, 204, 205, 206, 207, 208, 209, 210, 211, 212, 213, 214, 215, 216, 217, 218, 219, 220, 221, 222, 223, 224, 225, 226, 227, 228, 229, 230, 231, 232, 233, 234, 235, 236, 237, 238, 239, 240, 241, 242, 243, 244, 245, 246, 247, 248, 249, 250, 251, 252, 253, 254, 255, 256, 257, 258, 259, 260, 261, 262, 263, 264, 265, 266, 267, 268, 269, 270, 271, 272, 273, 274, 275, 276, 277, 278, 279, 280, 281, 282, 283, 284, 285, 286, 287, 288, 289, 290, 291, 292, 293, 294, 295, 296, 297, 298, 299, 300, 301, 302, 303, 304, 305, 306, 307, 308, 309, 310, 311, 312, 313, 314, 315, 316, 317, 318, 319, 320, 321, 322, 323, 324, 325, 326, 327, 328, 329, 330, 331, 332, 333, 334, 335, 336, 337, 338, 339, 340, 341, 342, 343, 344, 345, 346, 347, 348, 349, 350, 351, 352, 353, 354, 355, 356, 357, 358, 359, 360, 361, 362, 363, 364, 365, 366, 367, 368, 369, 370, 371, 372, 373, 374, 375, 376, 377, 378, 379, 380, 381, 382, 383, 384, 385, 386, 387, 388, 389, 390, 391, 392, 393, 394, 395, 396, 397, 398, 399, 400, 401, 402, 403, 404, 405, 406, 407, 408, 409, 410, 411, 412, 413, 414, 415, 416, 417, 418, 419, 420, 421, 422, 423, 424, 425, 426, 427, 428, 429, 430, 431, 432, 433, 434, 435, 436, 437, 438, 439, 440, 441, 442, 443, 444, 445, 446, 447, 448, 449, 450, 451, 452, 453, 454, 455, 456, 457, 458, 459, 460],
      "AcquisitionTime": ["140524.752500", "140526.242500", "140527.732500", "140529.222500", "140530.712500", "140532.202500", "140533.692500", "140535.182500", "140536.672500", "140538.162500", "140539.652500", "140541.142500", "140542.632500", "140544.122500", "140545.612500", "140547.102500", "140548.592500", "140550.082500", "140551.572500", "140553.062500", "140554.552500", "140556.042500", "140557.532500", "140559.022500", "140600.512500", "140602.002500", "140603.492500", "140604.982500", "140606.472500", "140607.962500", "140609.452500", "140610.942500", "140612.432500", "140613.922500", "140615.412500", "140616.902500", "140618.392500", "140619.882500", "140621.372500", "140622.862500", "140624.352500", "140625.842500", "140627.332500", "140628.822500", "140630.312500", "140631.802500", "140633.292500", "140634.782500", "140636.272500", "140637.762500", "140639.252500", "140640.742500", "140642.232500", "140643.722500", "140645.212500", "140646.702500", "140648.192500", "140649.682500", "140651.172500", "140652.662500", "140654.152500", "140655.642500", "140657.132500", "140658.622500", "140700.112500", "140701.602500", "140703.092500", "140704.582500", "140706.072500", "140707.562500", "140709.052500", "140710.542500", "140712.032500", "140713.522500", "140715.012500", "140716.502500", "140717.992500", "140719.482500", "140720.972500", "140722.462500", "140723.952500", "140725.442500", "140726.932500", "140728.422500", "140729.912500", "140731.402500", "140732.892500", "140734.382500", "140735.872500", "140737.362500", "140738.852500", "140740.342500", "140741.832500", "140743.322500", "140744.812500", "140746.302500", "140747.792500", "140749.282500", "140750.772500", "140752.262500", "140753.752500", "140755.242500", "140756.732500", "140758.222500", "140759.712500", "140801.202500", "140802.692500", "140804.182500", "140805.672500", "140807.162500", "140808.652500", "140810.142500", "140811.632500", "140813.122500", "140814.612500", "140816.102500", "140817.592500", "140819.082500", "140820.572500", "140822.062500", "140823.552500", "140825.042500", "140826.532500", "140828.022500", "140829.512500", "140831.002500", "140832.492500", "140833.982500", "140835.472500", "140836.962500", "140838.452500", "140839.942500", "140841.432500", "140842.922500", "140844.412500", "140845.902500", "140847.392500", "140848.882500", "140850.372500", "140851.862500", "140853.352500", "140854.842500", "140856.332500", "140857.822500", "140859.312500", "140900.802500", "140902.292500", "140903.782500", "140905.272500", "140906.762500", "140908.252500", "140909.742500", "140911.232500", "140912.722500", "140914.212500", "140915.702500", "140917.192500", "140918.682500", "140920.172500", "140921.662500", "140923.152500", "140924.642500", "140926.132500", "140927.622500", "140929.112500", "140930.602500", "140932.092500", "140933.582500", "140935.072500", "140936.562500", "140938.052500", "140939.542500", "140941.032500", "140942.522500", "140944.012500", "140945.502500", "140946.992500", "140948.482500", "140949.972500", "140951.462500", "140952.952500", "140954.442500", "140955.932500", "140957.422500", "140958.912500", "141000.402500", "141001.892500", "141003.382500", "141004.872500", "141006.362500", "141007.852500", "141009.342500", "141010.832500", "141012.322500", "141013.812500", "141015.302500", "141016.792500", "141018.282500", "141019.772500", "141021.262500", "141022.752500", "141024.242500", "141025.732500", "141027.222500", "141028.712500", "141030.202500", "141031.692500", "141033.182500", "141034.672500", "141036.162500", "141037.652500", "141039.142500", "141040.632500", "141042.122500", "141043.612500", "141045.102500", "141046.592500", "141048.082500", "141049.572500", "141051.062500", "141052.552500", "141054.042500", "141055.532500", "141057.022500", "141058.512500", "141100.002500", "141101.492500", "141102.982500", "141104.472500", "141105.962500", "141107.452500", "141108.942500", "141110.432500", "141111.922500", "141113.412500", "141114.902500", "141116.392500", "141117.882500", "141119.372500", "141120.862500", "141122.352500", "141123.842500", "141125.332500", "141126.822500", "141128.312500", "141129.802500", "141131.292500", "141132.782500", "141134.272500", "141135.762500", "141137.252500", "141138.742500", "141140.232500", "141141.722500", "141143.212500", "141144.702500", "141146.192500", "141147.682500", "141149.172500", "141150.662500", "141152.152500", "141153.642500", "141155.132500", "141156.622500", "141158.112500", "141159.602500", "141201.092500", "141202.582500", "141204.072500", "141205.562500", "141207.052500", "141208.542500", "141210.032500", "141211.522500", "141213.012500", "141214.502500", "141215.992500", "141217.482500", "141218.972500", "141220.462500", "141221.952500", "141223.442500", "141224.932500", "141226.422500", "141227.912500", "141229.402500", "141230.892500", "141232.382500", "141233.872500", "141235.362500", "141236.852500", "141238.342500", "141239.832500", "141241.322500", "141242.812500", "141244.302500", "141245.792500", "141247.282500", "141248.772500", "141250.262500", "141251.752500", "141253.242500", "141254.732500", "141256.222500", "141257.712500", "141259.202500", "141300.692500", "141302.182500", "141303.672500", "141305.162500", "141306.652500", "141308.142500", "141309.632500", "141311.122500", "141312.612500", "141314.102500", "141315.592500", "141317.082500", "141318.572500", "141320.062500", "141321.552500", "141323.042500", "141324.532500", "141326.022500", "141327.512500", "141329.002500", "141330.492500", "141331.982500", "141333.472500", "141334.962500", "141336.452500", "141337.942500", "141339.432500", "141340.922500", "141342.412500", "141343.902500", "141345.392500", "141346.882500", "141348.372500", "141349.862500", "141351.352500", "141352.842500", "141354.332500", "141355.822500", "141357.312500", "141358.802500", "141400.292500", "141401.782500", "141403.272500", "141404.762500", "141406.252500", "141407.742500", "141409.232500", "141410.722500", "141412.212500", "141413.702500", "141415.192500", "141416.682500", "141418.172500", "141419.662500", "141421.152500", "141422.642500", "141424.132500", "141425.622500", "141427.112500", "141428.602500", "141430.092500", "141431.582500", "141433.072500", "141434.562500", "141436.052500", "141437.542500", "141439.032500", "141440.522500", "141442.012500", "141443.502500", "141444.992500", "141446.482500", "141447.972500", "141449.462500", "141450.952500", "141452.442500", "141453.932500", "141455.422500", "141456.912500", "141458.402500", "141459.892500", "141501.382500", "141502.872500", "141504.362500", "141505.852500", "141507.342500", "141508.832500", "141510.322500", "141511.812500", "141513.302500", "141514.792500", "141516.282500", "141517.772500", "141519.262500", "141520.752500", "141522.242500", "141523.732500", "141525.222500", "141526.712500", "141528.202500", "141529.692500", "141531.182500", "141532.672500", "141534.162500", "141535.652500", "141537.142500", "141538.632500", "141540.122500", "141541.612500", "141543.102500", "141544.592500", "141546.082500", "141547.572500", "141549.062500", "141550.552500", "141552.042500", "141553.532500", "141555.022500", "141556.512500", "141558.002500", "141559.492500", "141600.982500", "141602.472500", "141603.962500", "141605.452500", "141606.942500", "141608.432500", "141609.922500", "141611.412500", "141612.902500", "141614.392500", "141615.882500", "141617.372500", "141618.862500", "141620.352500", "141621.842500", "141623.332500", "141624.822500", "141626.312500", "141627.802500", "141629.292500", "141630.782500", "141632.272500", "141633.762500", "141635.252500", "141636.742500", "141638.232500", "141639.722500", "141641.212500", "141642.702500", "141644.192500", "141645.682500", "141647.172500", "141648.662500"],
      "ContentTime": ["140651.145000", "140651.148000", "140651.151000", "140651.161000", "140651.164000", "140651.167000", "140651.170000", "140651.173000", "140651.175000", "140651.178000", "140651.181000", "140651.201000", "140651.204000", "140651.207000", "140651.210000", "140651.213000", "140651.216000", "140651.219000", "140651.222000", "140651.224000", "140651.227000", "140651.230000", "140651.233000", "140651.236000", "140651.239000", "140651.242000", "140651.245000", "140651.248000", "140651.250000", "140651.253000", "140651.256000", "140651.259000", "140651.262000", "140651.266000", "140651.269000", "140711.112000", "140711.115000", "140711.118000", "140711.121000", "140711.124000", "140711.127000", "140711.130000", "140711.133000", "140711.135000", "140711.152000", "140711.155000", "140711.158000", "140711.161000", "140711.163000", "140711.166000", "140711.169000", "140711.172000", "140711.175000", "140711.178000", "140711.181000", "140731.113000", "140731.116000", "140731.119000", "140731.122000", "140731.125000", "140731.127000", "140731.130000", "140731.133000", "140731.136000", "140731.139000", "140731.142000", "140731.145000", "140731.148000", "140731.151000", "140731.154000", "140731.157000", "140731.160000", "140731.162000", "140731.165000", "140731.168000", "140751.113000", "140751.116000", "140751.119000", "140751.122000", "140751.125000", "140751.128000", "140751.131000", "140751.133000", "140751.136000", "140751.139000", "140751.142000", "140751.145000", "140751.148000", "140751.151000", "140751.154000", "140751.157000", "140751.160000", "140751.163000", "140751.166000", "140751.169000", "140831.113000", "140831.116000", "140831.119000", "140831.122000", "140831.125000", "140831.128000", "140831.131000", "140831.133000", "140831.136000", "140831.139000", "140831.142000", "140831.145000", "140831.148000", "140831.151000", "140831.154000", "140831.157000", "140831.160000", "140831.163000", "140831.166000", "140831.169000", "140831.172000", "140831.175000", "140831.177000", "140831.180000", "140831.183000", "140831.186000", "140831.189000", "140831.192000", "140831.195000", "140911.112000", "140911.115000", "140911.118000", "140911.121000", "140911.124000", "140911.127000", "140911.130000", "140911.132000", "140911.135000", "140911.138000", "140911.141000", "140911.144000", "140911.147000", "140911.150000", "140911.153000", "140911.156000", "140911.159000", "140911.162000", "140911.165000", "140911.168000", "140911.171000", "140911.174000", "140911.176000", "140911.179000", "140911.182000", "140911.185000", "140911.188000", "140951.113000", "140951.116000", "140951.119000", "140951.122000", "140951.125000", "140951.128000", "140951.131000", "140951.134000", "140951.137000", "140951.140000", "140951.142000", "140951.145000", "140951.148000", "140951.151000", "140951.154000", "140951.157000", "140951.160000", "140951.163000", "140951.166000", "140951.169000", "140951.172000", "140951.175000", "140951.178000", "140951.180000", "140951.183000", "140951.186000", "140951.189000", "141031.113000", "141031.116000", "141031.119000", "141031.122000", "141031.125000", "141031.133000", "141031.136000", "141031.139000", "141031.142000", "141031.145000", "141031.148000", "141031.151000", "141031.154000", "141031.156000", "141031.159000", "141031.162000", "141031.165000", "141031.168000", "141031.171000", "141031.174000", "141031.177000", "141031.180000", "141031.183000", "141031.186000", "141031.189000", "141031.192000", "141031.194000", "141111.112000", "141111.115000", "141111.118000", "141111.137000", "141111.140000", "141111.143000", "141111.146000", "141111.149000", "141111.152000", "141111.155000", "141111.158000", "141111.161000", "141111.164000", "141111.167000", "141111.170000", "141111.172000", "141111.175000", "141111.178000", "141111.181000", "141111.184000", "141111.187000", "141111.190000", "141111.193000", "141111.196000", "141111.199000", "141111.202000", "141111.204000", "141151.112000", "141151.115000", "141151.118000", "141151.121000", "141151.124000", "141151.127000", "141151.130000", "141151.133000", "141151.136000", "141151.138000", "141151.141000", "141151.153000", "141151.156000", "141151.159000", "141151.162000", "141151.165000", "141151.168000", "141151.171000", "141151.174000", "141151.177000", "141151.180000", "141151.183000", "141151.185000", "141151.188000", "141151.191000", "141151.194000", "141151.197000", "141231.113000", "141231.116000", "141231.119000", "141231.122000", "141231.126000", "141231.129000", "141231.132000", "141231.135000", "141231.138000", "141231.141000", "141231.144000", "141231.147000", "141231.150000", "141231.153000", "141231.156000", "141231.159000", "141231.161000", "141231.164000", "141231.167000", "141231.170000", "141231.173000", "141231.176000", "141231.179000", "141231.182000", "141231.185000", "141231.188000", "141311.113000", "141311.116000", "141311.119000", "141311.122000", "141311.125000", "141311.128000", "141311.131000", "141311.134000", "141311.137000", "141311.139000", "141311.142000", "141311.145000", "141311.148000", "141311.151000", "141311.154000", "141311.157000", "141311.160000", "141311.163000", "141311.166000", "141311.169000", "141311.172000", "141311.175000", "141311.177000", "141311.180000", "141311.183000", "141311.186000", "141311.189000", "141351.112000", "141351.115000", "141351.118000", "141351.121000", "141351.124000", "141351.127000", "141351.130000", "141351.133000", "141351.136000", "141351.139000", "141351.141000", "141351.144000", "141351.147000", "141351.150000", "141351.153000", "141351.156000", "141351.159000", "141351.162000", "141351.165000", "141351.168000", "141351.171000", "141351.174000", "141351.176000", "141351.179000", "141351.182000", "141351.185000", "141351.188000", "141431.113000", "141431.116000", "141431.119000", "141431.122000", "141431.125000", "141431.128000", "141431.131000", "141431.134000", "141431.137000", "141431.140000", "141431.142000", "141431.145000", "141431.148000", "141431.151000", "141431.154000", "141431.157000", "141431.160000", "141431.163000", "141431.166000", "141431.169000", "141431.172000", "141431.175000", "141431.177000", "141431.180000", "141431.183000", "141431.186000", "141431.189000", "141511.113000", "141511.116000", "141511.119000", "141511.122000", "141511.125000", "141511.128000", "141511.131000", "141511.134000", "141511.136000", "141511.139000", "141511.142000", "141511.145000", "141511.148000", "141511.151000", "141511.154000", "141511.157000", "141511.160000", "141511.163000", "141511.166000", "141511.168000", "141511.171000", "141511.174000", "141511.177000", "141511.180000", "141511.183000", "141511.186000", "141511.208000", "141551.112000", "141551.115000", "141551.118000", "141551.121000", "141551.124000", "141551.127000", "141551.130000", "141551.133000", "141551.136000", "141551.139000", "141551.142000", "141551.144000", "141551.147000", "141551.150000", "141551.153000", "141551.156000", "141551.159000", "141551.162000", "141551.165000", "141551.168000", "141551.171000", "141551.174000", "141551.177000", "141551.180000", "141551.183000", "141551.186000", "141551.189000", "141631.112000", "141631.115000", "141631.118000", "141631.121000", "141631.124000", "141631.127000", "141631.130000", "141631.133000", "141631.135000", "141631.138000", "141631.141000", "141631.144000", "141631.147000", "141631.150000", "141631.153000", "141631.156000", "141631.159000", "141631.162000", "141631.165000", "141631.168000", "141631.171000", "141631.173000", "141631.176000", "141631.179000", "141631.182000", "141631.185000", "141631.188000", "141650.427000", "141650.430000", "141650.433000", "141650.436000", "141650.438000", "141650.442000", "141650.444000", "141650.447000", "141650.450000", "141650.453000", "141650.456000", "141650.459000", "141650.462000"],
