{
  "AcquisitionMatrixPE": 104,
  "AcquisitionNumber": 1,
  "AcquisitionTime": "13:25:26.975000",
  "BandwidthPerPixelPhaseEncode": 17.17,
  "BaseResolution": 104,
  "BodyPartExamined": "BRAIN",
  "CoilCombinationMethod": "Sum of Squares",
  "ConsistencyInfo": "N4_VE11C_LATEST_20160120",
  "ConversionSoftware": "dcm2niix",
  "ConversionSoftwareVersion": "v1.0.20220505",
  "DerivedVendorReportedEchoSpacing": 0.000560011,
  "DeviceSerialNumber": "167006",
  "DwellTime": 2.1e-06,
  "EchoTime": 0.037,
  "EchoTrainLength": 104,
  "EffectiveEchoSpacing": 0.000560011,
  "FlipAngle": 52,
  "HeudiconvVersion": "0.5.3.post811+g6206e14",
  "ImageComments": "Unaliased MB4/PE3/LB",
  "ImageOrientationPatientDICOM": [0.999835, 0.00956945, 0.0154177, -0.00471165, 0.957409, -0.288695],
  "ImageOrientationText": "Tra>Cor(-16.8)>Sag(1.0)",
  "ImageType": [
    "ORIGINAL",
    "PRIMARY",
    "M",
    "MB",
    "ND",
    "MOSAIC"
],
  "ImagingFrequency": 123.259,
  "InPlanePhaseEncodingDirectionDICOM": "COL",
  "InstitutionAddress": "Chemin Queen-Mary 4565,Montreal,District,CA,H3W 1W5",
  "InstitutionName": "IUGM",
  "InstitutionalDepartmentName": "Department",
  "MRAcquisitionType": "2D",
  "MagneticFieldStrength": 3,
  "Manufacturer": "Siemens",
  "ManufacturersModelName": "Prisma_fit",
  "MatrixCoilMode": "SENSE",
  "Modality": "MR",
  "MultibandAccelerationFactor": 4,
  "PartialFourier": 1,
  "PatientPosition": "HFS",
  "PercentPhaseFOV": 100,
  "PercentSampling": 100,
  "PhaseEncodingDirection": "j",
  "PhaseEncodingSteps": 104,
  "PhaseResolution": 1,
  "PixelBandwidth": 2290,
  "ProcedureStepDescription": "video^friends",
  "ProtocolName": "func_task-friends-s06e19b",
  "PulseSequenceDetails": "%CustomerSeq%\\cmrr_mbep2d_bold",
  "ReceiveCoilActiveElements": "HC1-7;NC1,2",
  "ReceiveCoilName": "HeadNeck_64",
  "ReconMatrixPE": 104,
  "RepetitionTime": 1.49,
  "SAR": 0.0590006,
  "ScanOptions": "FS",
  "ScanningSequence": "EP",
  "SequenceName": "epfid2d1_104",
  "SequenceVariant": "SK\\SS",
  "SeriesDescription": "func_task-friends-s06e19b",
  "SeriesNumber": 10,
  "ShimSetting": [643, -7209, -8785, 686, 99, -36, 34, -5],
  "SliceThickness": 2,
  "SliceTiming": [0, 0.785, 0.1, 0.8825, 0.1975, 0.98, 0.295, 1.0775, 0.3925, 1.1775, 0.49, 1.275, 0.59, 1.3725, 0.6875, 0, 0.785, 0.1, 0.8825, 0.1975, 0.98, 0.295, 1.0775, 0.3925, 1.1775, 0.49, 1.275, 0.59, 1.3725, 0.6875, 0, 0.785, 0.1, 0.8825, 0.1975, 0.98, 0.295, 1.0775, 0.3925, 1.1775, 0.49, 1.275, 0.59, 1.3725, 0.6875, 0, 0.785, 0.1, 0.8825, 0.1975, 0.98, 0.295, 1.0775, 0.3925, 1.1775, 0.49, 1.275, 0.59, 1.3725, 0.6875],
  "SoftwareVersions": "syngo MR E11",
  "SpacingBetweenSlices": 2,
  "StationName": "MRC35049",
  "TaskName": "s06e19b",
  "TotalReadoutTime": 0.0576811,
  "TxRefAmp": 242.671,
  "WipMemBlock": "e4d811af-2cbf-40e4-8315-50ddce6da806||Sequence: R016 ve11c/master r/e634e98; Dec 19 2017 11:00:25 by eja",
  "dcmmeta_affine": [
    [-1.9996707439422607, -0.00942329689860344, 0.035047318786382675, 104.54667663574219],
    [-0.019138891249895096, 1.9148187637329102, -0.5771504640579224, -79.44485473632812],
    [0.03083530068397522, 0.5773907899856567, 1.9145938158035278, -64.78389739990234],
    [0.0, 0.0, 0.0, 1.0]
],
  "dcmmeta_reorient_transform": [
    [0.0, -1.0, 0.0, 103.0],
    [1.0, 0.0, 0.0, 0.0],
    [0.0, 0.0, 1.0, 0.0],
    [0.0, 0.0, 0.0, 1.0]
],
  "dcmmeta_shape": [104, 104, 60, 468],
  "dcmmeta_slice_dim": 2,
  "dcmmeta_version": 0.6,
  "global": {
    "const": {
      "AcquisitionMatrix": [104, 0, 0, 104],
      "AngioFlag": "N",
      "BitsAllocated": 16,
      "BitsStored": 16,
      "BodyPartExamined": "BRAIN",
      "Columns": 832,
      "EchoNumbers": 1,
      "EchoTime": 37.0,
      "EchoTrainLength": 104,
      "FlipAngle": 52.0,
      "HighBit": 15,
      "ImageOrientationPatient": [0.99983534732013, 0.00956944602877, 0.01541765066242, -0.0047116486162, 0.95740940439174, -0.288695397867],
      "ImagePositionPatient": [-828.02613157488, -821.74208271857, 193.63355372229],
      "ImageType": [
        "ORIGINAL",
        "PRIMARY",
        "M",
        "MB",
        "ND",
        "MOSAIC"
],
      "ImagedNucleus": "1H",
      "ImagingFrequency": 123.25881,
      "InPlanePhaseEncodingDirection": "COL",
      "MRAcquisitionType": "2D",
      "MagneticFieldStrength": 3.0,
      "Manufacturer": "SIEMENS",
      "ManufacturerModelName": "Prisma_fit",
      "Modality": "MR",
      "NumberOfAverages": 1.0,
      "NumberOfPhaseEncodingSteps": 104,
      "PercentPhaseFieldOfView": 100.0,
      "PercentSampling": 100.0,
      "PerformedProcedureStepStartTime": "130030.174000",
      "PhotometricInterpretation": "MONOCHROME2",
      "PixelBandwidth": 2290.0,
      "PixelRepresentation": 0,
      "PixelSpacing": [2.0, 2.0],
      "ProtocolName": "func_task-friends-s06e19b",
      "RepetitionTime": 1490.0,
      "Rows": 832,
      "SAR": 0.05900056703335,
      "SamplesPerPixel": 1,
      "ScanOptions": "FS",
      "ScanningSequence": "EP",
      "SequenceName": "epfid2d1_104",
      "SequenceVariant": [
        "SK",
        "SS"
],
      "SeriesDescription": "func_task-friends-s06e19b",
      "SeriesNumber": 10,
      "SeriesTime": "132651.152000",
      "SliceLocation": -37.259564152221,
      "SliceThickness": 2.0,
      "SmallestImagePixelValue": 0,
      "SoftwareVersions": "syngo MR E11",
      "SpacingBetweenSlices": 2.0000000700828,
      "SpecificCharacterSet": "ISO_IR 100",
      "StudyID": "1",
      "StudyTime": "130030.081000",
      "TransmitCoilName": "Body",
      "VariableFlipAngleFlag": "N",
      "WindowCenterWidthExplanation": "Algo1",
      "dBdt": 0.0},
    "slices": {}
  },
  "time": {
    "samples": {
      "AcquisitionNumber": [1, 2, 3, 4, 5, 6, 7, 8, 9, 10, 11, 12, 13, 14, 15, 16, 17, 18, 19, 20, 21, 22, 23, 24, 25, 26, 27, 28, 29, 30, 31, 32, 33, 34, 35, 36, 37, 38, 39, 40, 41, 42, 43, 44, 45, 46, 47, 48, 49, 50, 51, 52, 53, 54, 55, 56, 57, 58, 59, 60, 61, 62, 63, 64, 65, 66, 67, 68, 69, 70, 71, 72, 73, 74, 75, 76, 77, 78, 79, 80, 81, 82, 83, 84, 85, 86, 87, 88, 89, 90, 91, 92, 93, 94, 95, 96, 97, 98, 99, 100, 101, 102, 103, 104, 105, 106, 107, 108, 109, 110, 111, 112, 113, 114, 115, 116, 117, 118, 119, 120, 121, 122, 123, 124, 125, 126, 127, 128, 129, 130, 131, 132, 133, 134, 135, 136, 137, 138, 139, 140, 141, 142, 143, 144, 145, 146, 147, 148, 149, 150, 151, 152, 153, 154, 155, 156, 157, 158, 159, 160, 161, 162, 163, 164, 165, 166, 167, 168, 169, 170, 171, 172, 173, 174, 175, 176, 177, 178, 179, 180, 181, 182, 183, 184, 185, 186, 187, 188, 189, 190, 191, 192, 193, 194, 195, 196, 197, 198, 199, 200, 201, 202, 203, 204, 205, 206, 207, 208, 209, 210, 211, 212, 213, 214, 215, 216, 217, 218, 219, 220, 221, 222, 223, 224, 225, 226, 227, 228, 229, 230, 231, 232, 233, 234, 235, 236, 237, 238, 239, 240, 241, 242, 243, 244, 245, 246, 247, 248, 249, 250, 251, 252, 253, 254, 255, 256, 257, 258, 259, 260, 261, 262, 263, 264, 265, 266, 267, 268, 269, 270, 271, 272, 273, 274, 275, 276, 277, 278, 279, 280, 281, 282, 283, 284, 285, 286, 287, 288, 289, 290, 291, 292, 293, 294, 295, 296, 297, 298, 299, 300, 301, 302, 303, 304, 305, 306, 307, 308, 309, 310, 311, 312, 313, 314, 315, 316, 317, 318, 319, 320, 321, 322, 323, 324, 325, 326, 327, 328, 329, 330, 331, 332, 333, 334, 335, 336, 337, 338, 339, 340, 341, 342, 343, 344, 345, 346, 347, 348, 349, 350, 351, 352, 353, 354, 355, 356, 357, 358, 359, 360, 361, 362, 363, 364, 365, 366, 367, 368, 369, 370, 371, 372, 373, 374, 375, 376, 377, 378, 379, 380, 381, 382, 383, 384, 385, 386, 387, 388, 389, 390, 391, 392, 393, 394, 395, 396, 397, 398, 399, 400, 401, 402, 403, 404, 405, 406, 407, 408, 409, 410, 411, 412, 413, 414, 415, 416, 417, 418, 419, 420, 421, 422, 423, 424, 425, 426, 427, 428, 429, 430, 431, 432, 433, 434, 435, 436, 437, 438, 439, 440, 441, 442, 443, 444, 445, 446, 447, 448, 449, 450, 451, 452, 453, 454, 455, 456, 457, 458, 459, 460, 461, 462, 463, 464, 465, 466, 467, 468],
      "AcquisitionTime": ["132526.975000", "132528.465000", "132529.955000", "132531.445000", "132532.935000", "132534.425000", "132535.915000", "132537.405000", "132538.895000", "132540.385000", "132541.875000", "132543.365000", "132544.855000", "132546.345000", "132547.835000", "132549.325000", "132550.815000", "132552.305000", "132553.795000", "132555.285000", "132556.775000", "132558.265000", "132559.755000", "132601.245000", "132602.735000", "132604.225000", "132605.715000", "132607.205000", "132608.695000", "132610.185000", "132611.675000", "132613.165000", "132614.655000", "132616.145000", "132617.635000", "132619.125000", "132620.615000", "132622.105000", "132623.595000", "132625.085000", "132626.575000", "132628.065000", "132629.555000", "132631.045000", "132632.535000", "132634.025000", "132635.515000", "132637.005000", "132638.495000", "132639.985000", "132641.475000", "132642.965000", "132644.455000", "132645.945000", "132647.435000", "132648.925000", "132650.415000", "132651.905000", "132653.395000", "132654.885000", "132656.375000", "132657.865000", "132659.355000", "132700.845000", "132702.335000", "132703.825000", "132705.315000", "132706.805000", "132708.295000", "132709.785000", "132711.275000", "132712.765000", "132714.255000", "132715.745000", "132717.235000", "132718.725000", "132720.215000", "132721.705000", "132723.195000", "132724.685000", "132726.175000", "132727.665000", "132729.155000", "132730.645000", "132732.135000", "132733.625000", "132735.115000", "132736.605000", "132738.095000", "132739.585000", "132741.075000", "132742.565000", "132744.055000", "132745.545000", "132747.035000", "132748.525000", "132750.015000", "132751.505000", "132752.995000", "132754.485000", "132755.975000", "132757.465000", "132758.955000", "132800.445000", "132801.935000", "132803.425000", "132804.915000", "132806.405000", "132807.895000", "132809.385000", "132810.875000", "132812.365000", "132813.855000", "132815.345000", "132816.835000", "132818.325000", "132819.815000", "132821.305000", "132822.795000", "132824.285000", "132825.775000", "132827.265000", "132828.755000", "132830.245000", "132831.735000", "132833.225000", "132834.715000", "132836.205000", "132837.695000", "132839.185000", "132840.675000", "132842.165000", "132843.655000", "132845.145000", "132846.635000", "132848.125000", "132849.615000", "132851.105000", "132852.595000", "132854.085000", "132855.575000", "132857.065000", "132858.555000", "132900.045000", "132901.535000", "132903.025000", "132904.515000", "132906.005000", "132907.495000", "132908.985000", "132910.475000", "132911.965000", "132913.455000", "132914.945000", "132916.435000", "132917.925000", "132919.415000", "132920.905000", "132922.395000", "132923.885000", "132925.375000", "132926.865000", "132928.355000", "132929.845000", "132931.335000", "132932.825000", "132934.315000", "132935.805000", "132937.295000", "132938.785000", "132940.275000", "132941.765000", "132943.255000", "132944.745000", "132946.235000", "132947.725000", "132949.215000", "132950.705000", "132952.195000", "132953.685000", "132955.175000", "132956.665000", "132958.155000", "132959.645000", "133001.135000", "133002.625000", "133004.115000", "133005.605000", "133007.095000", "133008.585000", "133010.075000", "133011.565000", "133013.055000", "133014.545000", "133016.035000", "133017.525000", "133019.015000", "133020.505000", "133021.995000", "133023.485000", "133024.975000", "133026.465000", "133027.955000", "133029.445000", "133030.935000", "133032.425000", "133033.915000", "133035.405000", "133036.895000", "133038.385000", "133039.875000", "133041.365000", "133042.855000", "133044.345000", "133045.835000", "133047.325000", "133048.815000", "133050.305000", "133051.795000", "133053.285000", "133054.775000", "133056.265000", "133057.755000", "133059.245000", "133100.735000", "133102.225000", "133103.715000", "133105.205000", "133106.695000", "133108.185000", "133109.675000", "133111.165000", "133112.655000", "133114.145000", "133115.635000", "133117.125000", "133118.615000", "133120.105000", "133121.595000", "133123.085000", "133124.575000", "133126.065000", "133127.555000", "133129.045000", "133130.535000", "133132.025000", "133133.515000", "133135.005000", "133136.495000", "133137.985000", "133139.475000", "133140.965000", "133142.455000", "133143.945000", "133145.435000", "133146.925000", "133148.415000", "133149.905000", "133151.395000", "133152.885000", "133154.375000", "133155.865000", "133157.355000", "133158.845000", "133200.335000", "133201.825000", "133203.315000", "133204.805000", "133206.295000", "133207.785000", "133209.275000", "133210.765000", "133212.255000", "133213.745000", "133215.235000", "133216.725000", "133218.215000", "133219.705000", "133221.195000", "133222.685000", "133224.175000", "133225.665000", "133227.155000", "133228.645000", "133230.135000", "133231.625000", "133233.115000", "133234.605000", "133236.095000", "133237.585000", "133239.075000", "133240.565000", "133242.055000", "133243.545000", "133245.035000", "133246.525000", "133248.015000", "133249.505000", "133250.995000", "133252.485000", "133253.975000", "133255.465000", "133256.955000", "133258.445000", "133259.935000", "133301.425000", "133302.915000", "133304.405000", "133305.895000", "133307.385000", "133308.875000", "133310.365000", "133311.855000", "133313.345000", "133314.835000", "133316.325000", "133317.815000", "133319.305000", "133320.795000", "133322.285000", "133323.775000", "133325.265000", "133326.755000", "133328.245000", "133329.735000", "133331.225000", "133332.715000", "133334.205000", "133335.695000", "133337.185000", "133338.675000", "133340.165000", "133341.655000", "133343.145000", "133344.635000", "133346.125000", "133347.615000", "133349.105000", "133350.595000", "133352.085000", "133353.575000", "133355.065000", "133356.555000", "133358.045000", "133359.535000", "133401.025000", "133402.515000", "133404.005000", "133405.495000", "133406.985000", "133408.475000", "133409.965000", "133411.455000", "133412.945000", "133414.435000", "133415.925000", "133417.415000", "133418.905000", "133420.395000", "133421.885000", "133423.375000", "133424.865000", "133426.355000", "133427.845000", "133429.335000", "133430.825000", "133432.315000", "133433.805000", "133435.295000", "133436.785000", "133438.275000", "133439.765000", "133441.255000", "133442.745000", "133444.235000", "133445.725000", "133447.215000", "133448.705000", "133450.195000", "133451.685000", "133453.175000", "133454.665000", "133456.155000", "133457.645000", "133459.135000", "133500.625000", "133502.115000", "133503.605000", "133505.095000", "133506.585000", "133508.075000", "133509.565000", "133511.055000", "133512.545000", "133514.035000", "133515.525000", "133517.015000", "133518.505000", "133519.995000", "133521.485000", "133522.975000", "133524.465000", "133525.955000", "133527.445000", "133528.935000", "133530.425000", "133531.915000", "133533.405000", "133534.895000", "133536.385000", "133537.875000", "133539.365000", "133540.855000", "133542.345000", "133543.835000", "133545.325000", "133546.815000", "133548.305000", "133549.795000", "133551.285000", "133552.775000", "133554.265000", "133555.755000", "133557.245000", "133558.735000", "133600.225000", "133601.715000", "133603.205000", "133604.695000", "133606.185000", "133607.675000", "133609.165000", "133610.655000", "133612.145000", "133613.635000", "133615.125000", "133616.615000", "133618.105000", "133619.595000", "133621.085000", "133622.575000", "133624.065000", "133625.555000", "133627.045000", "133628.535000", "133630.025000", "133631.515000", "133633.005000", "133634.495000", "133635.985000", "133637.475000", "133638.965000", "133640.455000", "133641.945000", "133643.435000", "133644.925000", "133646.415000", "133647.905000", "133649.395000", "133650.885000", "133652.375000", "133653.865000", "133655.355000", "133656.845000", "133658.335000", "133659.825000", "133701.315000", "133702.805000"],
      "ContentTime": ["132651.154000", "132651.158000", "132651.161000", "132651.164000", "132651.167000", "132651.169000", "132651.172000", "132651.175000", "132651.178000", "132651.181000", "132651.184000", "132651.187000", "132651.190000", "132651.193000", "132651.195000", "132651.198000", "132651.201000", "132651.204000", "132651.207000", "132651.210000", "132651.213000", "132651.216000", "132651.219000", "132651.221000", "132651.224000", "132651.227000", "132651.230000", "132651.233000", "132651.236000", "132711.112000", "132711.115000", "132711.118000", "132711.121000", "132711.124000", "132711.127000", "132711.129000", "132711.132000", "132711.135000", "132711.138000", "132711.141000", "132711.144000", "132711.147000", "132711.150000", "132711.152000", "132711.155000", "132711.158000", "132711.161000", "132711.164000", "132711.167000", "132731.112000", "132731.115000", "132731.118000", "132731.121000", "132731.124000", "132731.126000", "132731.140000", "132731.144000", "132731.147000", "132731.150000", "132731.153000", "132731.156000", "132731.159000", "132731.162000", "132731.165000", "132731.168000", "132731.170000", "132731.173000", "132731.176000", "132731.179000", "132751.112000", "132751.115000", "132751.118000", "132751.121000", "132751.124000", "132751.126000", "132751.129000", "132751.132000", "132751.135000", "132751.138000", "132751.155000", "132751.158000", "132751.160000", "132751.163000", "132751.166000", "132751.169000", "132751.172000", "132751.175000", "132751.177000", "132751.180000", "132751.183000", "132831.113000", "132831.116000", "132831.119000", "132831.122000", "132831.125000", "132831.128000", "132831.131000", "132831.133000", "132831.136000", "132831.139000", "132831.142000", "132831.145000", "132831.148000", "132831.169000", "132831.173000", "132831.175000", "132831.178000", "132831.181000", "132831.184000", "132831.187000", "132831.190000", "132831.193000", "132831.196000", "132831.199000", "132831.201000", "132831.204000", "132831.207000", "132831.210000", "132831.213000", "132831.216000", "132831.219000", "132831.222000", "132831.225000", "132911.113000", "132911.116000", "132911.119000", "132911.122000", "132911.125000", "132911.128000", "132911.131000", "132911.134000", "132911.136000", "132911.140000", "132911.144000", "132911.147000", "132911.149000", "132911.152000", "132911.155000", "132911.158000", "132911.161000", "132911.164000", "132911.167000", "132911.170000", "132911.173000", "132911.176000", "132911.178000", "132911.181000", "132911.184000", "132911.187000", "132951.112000", "132951.115000", "132951.118000", "132951.121000", "132951.124000", "132951.136000", "132951.139000", "132951.142000", "132951.145000", "132951.147000", "132951.150000", "132951.153000", "132951.156000", "132951.159000", "132951.162000", "132951.165000", "132951.168000", "132951.171000", "132951.174000", "132951.176000", "132951.179000", "132951.182000", "132951.185000", "132951.188000", "132951.191000", "132951.194000", "132951.197000", "133031.113000", "133031.116000", "133031.119000", "133031.122000", "133031.125000", "133031.128000", "133031.131000", "133031.134000", "133031.136000", "133031.139000", "133031.142000", "133031.145000", "133031.148000", "133031.151000", "133031.154000", "133031.157000", "133031.160000", "133031.163000", "133031.166000", "133031.169000", "133031.172000", "133031.175000", "133031.178000", "133031.181000", "133031.183000", "133031.186000", "133031.189000", "133111.113000", "133111.116000", "133111.119000", "133111.122000", "133111.125000", "133111.128000", "133111.131000", "133111.133000", "133111.136000", "133111.139000", "133111.142000", "133111.145000", "133111.148000", "133111.151000", "133111.154000", "133111.157000", "133111.160000", "133111.162000", "133111.165000", "133111.168000", "133111.171000", "133111.174000", "133111.177000", "133111.180000", "133111.183000", "133111.186000", "133111.189000", "133151.112000", "133151.115000", "133151.118000", "133151.121000", "133151.124000", "133151.127000", "133151.130000", "133151.133000", "133151.135000", "133151.138000", "133151.141000", "133151.144000", "133151.147000", "133151.150000", "133151.153000", "133151.155000", "133151.159000", "133151.162000", "133151.170000", "133151.173000", "133151.175000", "133151.178000", "133151.181000", "133151.184000", "133151.187000", "133151.190000", "133151.193000", "133231.112000", "133231.115000", "133231.118000", "133231.121000", "133231.124000", "133231.127000", "133231.130000", "133231.132000", "133231.135000", "133231.138000", "133231.141000", "133231.144000", "133231.147000", "133231.150000", "133231.153000", "133231.156000", "133231.158000", "133231.162000", "133231.164000", "133231.167000", "133231.170000", "133231.173000", "133231.176000", "133231.179000", "133231.182000", "133231.185000", "133231.188000", "133311.113000", "133311.116000", "133311.119000", "133311.122000", "133311.125000", "133311.128000", "133311.131000", "133311.134000", "133311.144000", "133311.147000", "133311.151000", "133311.154000", "133311.157000", "133311.160000", "133311.163000", "133311.166000", "133311.181000", "133311.184000", "133311.187000", "133311.190000", "133311.193000", "133311.195000", "133311.198000", "133311.201000", "133311.204000", "133311.207000", "133351.113000", "133351.116000", "133351.119000", "133351.122000", "133351.125000", "133351.127000", "133351.130000", "133351.133000", "133351.136000", "133351.139000", "133351.142000", "133351.145000", "133351.148000", "133351.151000", "133351.154000", "133351.156000", "133351.159000", "133351.162000", "133351.165000", "133351.168000", "133351.171000", "133351.174000", "133351.177000", "133351.180000", "133351.182000", "133351.185000", "133351.188000", "133431.112000", "133431.115000", "133431.118000", "133431.121000", "133431.124000", "133431.127000", "133431.130000", "133431.133000", "133431.135000", "133431.138000", "133431.141000", "133431.144000", "133431.147000", "133431.150000", "133431.153000", "133431.156000", "133431.159000", "133431.162000", "133431.167000", "133431.170000", "133431.173000", "133431.176000", "133431.179000", "133431.182000", "133431.184000", "133431.187000", "133431.190000", "133511.113000", "133511.116000", "133511.127000", "133511.130000", "133511.133000", "133511.136000", "133511.139000", "133511.141000", "133511.144000", "133511.147000", "133511.150000", "133511.153000", "133511.156000", "133511.159000", "133511.162000", "133511.165000", "133511.167000", "133511.170000", "133511.173000", "133511.176000", "133511.179000", "133511.182000", "133511.185000", "133511.188000", "133511.191000", "133511.193000", "133511.196000", "133551.113000", "133551.116000", "133551.119000", "133551.122000", "133551.125000", "133551.128000", "133551.131000", "133551.134000", "133551.137000", "133551.140000", "133551.142000", "133551.145000", "133551.148000", "133551.151000", "133551.154000", "133551.157000", "133551.160000", "133551.163000", "133551.166000", "133551.169000", "133551.172000", "133551.175000", "133551.177000", "133551.180000", "133551.183000", "133551.186000", "133551.189000", "133631.112000", "133631.115000", "133631.118000", "133631.121000", "133631.124000", "133631.127000", "133631.130000", "133631.133000", "133631.135000", "133631.138000", "133631.141000", "133631.144000", "133631.147000", "133631.150000", "133631.153000", "133631.156000", "133631.159000", "133631.162000", "133631.165000", "133631.167000", "133631.170000", "133631.173000", "133631.176000", "133631.179000", "133631.182000", "133631.185000", "133631.188000", "133705.139000", "133705.142000", "133705.145000", "133705.148000", "133705.151000", "133705.155000", "133705.158000", "133705.161000", "133705.164000", "133705.167000", "133705.170000", "133705.173000", "133705.176000", "133705.179000", "133705.182000", "133705.185000", "133705.188000", "133705.191000", "133705.193000", "133705.197000", "133705.199000", "133705.202000", "133705.217000"],
