{
  "AcquisitionMatrixPE": 104,
  "AcquisitionNumber": 1,
  "AcquisitionTime": "16:12:14.387500",
  "BandwidthPerPixelPhaseEncode": 17.17,
  "BaseResolution": 104,
  "BodyPartExamined": "BRAIN",
  "CoilCombinationMethod": "Sum of Squares",
  "ConsistencyInfo": "N4_VE11C_LATEST_20160120",
  "ConversionSoftware": "dcm2niix",
  "ConversionSoftwareVersion": "v1.0.20211006",
  "DerivedVendorReportedEchoSpacing": 0.000560011,
  "DeviceSerialNumber": "167006",
  "DwellTime": 2.1e-06,
  "EchoTime": 0.037,
  "EchoTrainLength": 104,
  "EffectiveEchoSpacing": 0.000560011,
  "FlipAngle": 52,
  "HeudiconvVersion": "0.11.3.post9+gc939bf8",
  "ImageComments": "Unaliased MB4/PE3/LB",
  "ImageOrientationPatientDICOM": [0.998165, -0.0601263, -0.00722367, 0.0552818, 0.953381, -0.296661],
  "ImageOrientationText": "Tra>Cor(-17.2)>Sag(-1.4)",
  "ImageType": [
    "ORIGINAL",
    "PRIMARY",
    "M",
    "MB",
    "ND",
    "MOSAIC"
],
  "ImagingFrequency": 123.259,
  "InPlanePhaseEncodingDirectionDICOM": "COL",
  "InstitutionAddress": "Chemin Queen-Mary 4565,Montreal,District,CA,H3W 1W5",
  "InstitutionName": "IUGM",
  "InstitutionalDepartmentName": "Department",
  "MRAcquisitionType": "2D",
  "MagneticFieldStrength": 3,
  "Manufacturer": "Siemens",
  "ManufacturersModelName": "Prisma_fit",
  "MatrixCoilMode": "SENSE",
  "Modality": "MR",
  "MultibandAccelerationFactor": 4,
  "PartialFourier": 1,
  "PatientPosition": "HFS",
  "PercentPhaseFOV": 100,
  "PercentSampling": 100,
  "PhaseEncodingDirection": "j",
  "PhaseEncodingSteps": 104,
  "PhaseResolution": 1,
  "PixelBandwidth": 2290,
  "ProcedureStepDescription": "video^friends",
  "ProtocolName": "func_task-friends-s06e19b",
  "PulseSequenceDetails": "%CustomerSeq%\\cmrr_mbep2d_bold",
  "ReceiveCoilActiveElements": "HC1-7;NC1,2",
  "ReceiveCoilName": "HeadNeck_64",
  "ReconMatrixPE": 104,
  "RepetitionTime": 1.49,
  "SAR": 0.058222,
  "ScanOptions": "FS",
  "ScanningSequence": "EP",
  "SequenceName": "epfid2d1_104",
  "SequenceVariant": "SK\\SS",
  "SeriesDescription": "func_task-friends-s06e19b",
  "SeriesNumber": 12,
  "ShimSetting": [617, -7258, -8817, 591, -15, -217, -51, -26],
  "SliceThickness": 2,
  "SliceTiming": [0, 0.785, 0.0975, 0.8825, 0.1975, 0.98, 0.295, 1.0775, 0.3925, 1.1775, 0.49, 1.275, 0.5875, 1.3725, 0.6875, 0, 0.785, 0.0975, 0.8825, 0.1975, 0.98, 0.295, 1.0775, 0.3925, 1.1775, 0.49, 1.275, 0.5875, 1.3725, 0.6875, 0, 0.785, 0.0975, 0.8825, 0.1975, 0.98, 0.295, 1.0775, 0.3925, 1.1775, 0.49, 1.275, 0.5875, 1.3725, 0.6875, 0, 0.785, 0.0975, 0.8825, 0.1975, 0.98, 0.295, 1.0775, 0.3925, 1.1775, 0.49, 1.275, 0.5875, 1.3725, 0.6875],
  "SoftwareVersions": "syngo MR E11",
  "SpacingBetweenSlices": 2,
  "StationName": "MRC35049",
  "TaskName": "s06e19b",
  "TotalReadoutTime": 0.0576811,
  "TxRefAmp": 277.378,
  "WipMemBlock": "f475cc57-e2f8-46f6-b419-0a49cd3fb36f||Sequence: R016 ve11c/master r/e634e98; Dec 19 2017 11:00:25 by eja",
  "dcmmeta_affine": [
    [-1.9963293075561523, 0.11056353151798248, -0.049448125064373016, 97.95260620117188],
    [0.1202525943517685, 1.9067625999450684, -0.5914351940155029, -83.1767578125],
    [-0.014447337947785854, 0.5933228135108948, 1.909910798072815, -60.693153381347656],
    [0.0, 0.0, 0.0, 1.0]
],
  "dcmmeta_reorient_transform": [
    [0.0, -1.0, 0.0, 103.0],
    [1.0, 0.0, 0.0, 0.0],
    [0.0, 0.0, 1.0, 0.0],
    [0.0, 0.0, 0.0, 1.0]
],
  "dcmmeta_shape": [104, 104, 60, 468],
  "dcmmeta_slice_dim": 2,
  "dcmmeta_version": 0.6,
  "global": {
    "const": {
      "AcquisitionMatrix": [104, 0, 0, 104],
      "AngioFlag": "N",
      "BitsAllocated": 16,
      "BitsStored": 16,
      "BodyPartExamined": "BRAIN",
      "Columns": 832,
      "EchoNumbers": 1,
      "EchoTime": 37.0,
      "EchoTrainLength": 104,
      "FlipAngle": 52.0,
      "HighBit": 15,
      "ImageOrientationPatient": [0.99816463924732, -0.0601262967641, -0.0072236689921, 0.05528176629319, 0.95338131849199, -0.2966614027237],
      "ImagePositionPatient": [-876.24963004154, -763.50944997396, 221.6474278853],
      "ImageType": [
        "ORIGINAL",
        "PRIMARY",
        "M",
        "MB",
        "ND",
        "MOSAIC"
],
      "ImagedNucleus": "1H",
      "ImagingFrequency": 123.258779,
      "InPlanePhaseEncodingDirection": "COL",
      "MRAcquisitionType": "2D",
      "MagneticFieldStrength": 3.0,
      "Manufacturer": "SIEMENS",
      "ManufacturerModelName": "Prisma_fit",
      "Modality": "MR",
      "NumberOfAverages": 1.0,
      "NumberOfPhaseEncodingSteps": 104,
      "PercentPhaseFieldOfView": 100.0,
      "PercentSampling": 100.0,
      "PerformedProcedureStepStartTime": "141339.647000",
      "PhotometricInterpretation": "MONOCHROME2",
      "PixelBandwidth": 2290.0,
      "PixelRepresentation": 0,
      "PixelSpacing": [2.0, 2.0],
      "ProtocolName": "func_task-friends-s06e19b",
      "RepetitionTime": 1490.0,
      "Rows": 832,
      "SAR": 0.05822202540006,
      "SamplesPerPixel": 1,
      "ScanOptions": "FS",
      "ScanningSequence": "EP",
      "SequenceName": "epfid2d1_104",
      "SequenceVariant": [
        "SK",
        "SS"
],
      "SeriesDescription": "func_task-friends-s06e19b",
      "SeriesNumber": 12,
      "SeriesTime": "161317.466000",
      "SliceLocation": -35.784211399517,
      "SliceThickness": 2.0,
      "SmallestImagePixelValue": 0,
      "SoftwareVersions": "syngo MR E11",
      "SpacingBetweenSlices": 2.0000000023339,
      "SpecificCharacterSet": "ISO_IR 100",
      "StudyID": "1",
      "StudyTime": "141339.562000",
      "TransmitCoilName": "Body",
      "VariableFlipAngleFlag": "N",
      "WindowCenterWidthExplanation": "Algo1",
      "dBdt": 0.0},
    "slices": {}
  },
  "time": {
    "samples": {
      "AcquisitionNumber": [1, 2, 3, 4, 5, 6, 7, 8, 9, 10, 11, 12, 13, 14, 15, 16, 17, 18, 19, 20, 21, 22, 23, 24, 25, 26, 27, 28, 29, 30, 31, 32, 33, 34, 35, 36, 37, 38, 39, 40, 41, 42, 43, 44, 45, 46, 47, 48, 49, 50, 51, 52, 53, 54, 55, 56, 57, 58, 59, 60, 61, 62, 63, 64, 65, 66, 67, 68, 69, 70, 71, 72, 73, 74, 75, 76, 77, 78, 79, 80, 81, 82, 83, 84, 85, 86, 87, 88, 89, 90, 91, 92, 93, 94, 95, 96, 97, 98, 99, 100, 101, 102, 103, 104, 105, 106, 107, 108, 109, 110, 111, 112, 113, 114, 115, 116, 117, 118, 119, 120, 121, 122, 123, 124, 125, 126, 127, 128, 129, 130, 131, 132, 133, 134, 135, 136, 137, 138, 139, 140, 141, 142, 143, 144, 145, 146, 147, 148, 149, 150, 151, 152, 153, 154, 155, 156, 157, 158, 159, 160, 161, 162, 163, 164, 165, 166, 167, 168, 169, 170, 171, 172, 173, 174, 175, 176, 177, 178, 179, 180, 181, 182, 183, 184, 185, 186, 187, 188, 189, 190, 191, 192, 193, 194, 195, 196, 197, 198, 199, 200, 201, 202, 203, 204, 205, 206, 207, 208, 209, 210, 211, 212, 213, 214, 215, 216, 217, 218, 219, 220, 221, 222, 223, 224, 225, 226, 227, 228, 229, 230, 231, 232, 233, 234, 235, 236, 237, 238, 239, 240, 241, 242, 243, 244, 245, 246, 247, 248, 249, 250, 251, 252, 253, 254, 255, 256, 257, 258, 259, 260, 261, 262, 263, 264, 265, 266, 267, 268, 269, 270, 271, 272, 273, 274, 275, 276, 277, 278, 279, 280, 281, 282, 283, 284, 285, 286, 287, 288, 289, 290, 291, 292, 293, 294, 295, 296, 297, 298, 299, 300, 301, 302, 303, 304, 305, 306, 307, 308, 309, 310, 311, 312, 313, 314, 315, 316, 317, 318, 319, 320, 321, 322, 323, 324, 325, 326, 327, 328, 329, 330, 331, 332, 333, 334, 335, 336, 337, 338, 339, 340, 341, 342, 343, 344, 345, 346, 347, 348, 349, 350, 351, 352, 353, 354, 355, 356, 357, 358, 359, 360, 361, 362, 363, 364, 365, 366, 367, 368, 369, 370, 371, 372, 373, 374, 375, 376, 377, 378, 379, 380, 381, 382, 383, 384, 385, 386, 387, 388, 389, 390, 391, 392, 393, 394, 395, 396, 397, 398, 399, 400, 401, 402, 403, 404, 405, 406, 407, 408, 409, 410, 411, 412, 413, 414, 415, 416, 417, 418, 419, 420, 421, 422, 423, 424, 425, 426, 427, 428, 429, 430, 431, 432, 433, 434, 435, 436, 437, 438, 439, 440, 441, 442, 443, 444, 445, 446, 447, 448, 449, 450, 451, 452, 453, 454, 455, 456, 457, 458, 459, 460, 461, 462, 463, 464, 465, 466, 467, 468],
      "AcquisitionTime": ["161214.387500", "161215.877500", "161217.367500", "161218.857500", "161220.347500", "161221.837500", "161223.327500", "161224.817500", "161226.307500", "161227.797500", "161229.287500", "161230.777500", "161232.267500", "161233.757500", "161235.247500", "161236.737500", "161238.227500", "161239.717500", "161241.207500", "161242.697500", "161244.187500", "161245.677500", "161247.167500", "161248.657500", "161250.147500", "161251.637500", "161253.127500", "161254.617500", "161256.107500", "161257.597500", "161259.087500", "161300.577500", "161302.067500", "161303.557500", "161305.047500", "161306.537500", "161308.027500", "161309.517500", "161311.007500", "161312.497500", "161313.987500", "161315.477500", "161316.967500", "161318.457500", "161319.947500", "161321.437500", "161322.927500", "161324.417500", "161325.907500", "161327.397500", "161328.887500", "161330.377500", "161331.867500", "161333.357500", "161334.847500", "161336.337500", "161337.827500", "161339.317500", "161340.807500", "161342.297500", "161343.787500", "161345.277500", "161346.767500", "161348.257500", "161349.747500", "161351.237500", "161352.727500", "161354.217500", "161355.707500", "161357.197500", "161358.687500", "161400.177500", "161401.667500", "161403.157500", "161404.647500", "161406.137500", "161407.627500", "161409.117500", "161410.607500", "161412.097500", "161413.587500", "161415.077500", "161416.567500", "161418.057500", "161419.547500", "161421.037500", "161422.527500", "161424.017500", "161425.507500", "161426.997500", "161428.487500", "161429.977500", "161431.467500", "161432.957500", "161434.447500", "161435.937500", "161437.427500", "161438.917500", "161440.407500", "161441.897500", "161443.387500", "161444.877500", "161446.367500", "161447.857500", "161449.347500", "161450.837500", "161452.327500", "161453.817500", "161455.307500", "161456.797500", "161458.287500", "161459.777500", "161501.267500", "161502.757500", "161504.247500", "161505.737500", "161507.227500", "161508.717500", "161510.207500", "161511.697500", "161513.187500", "161514.677500", "161516.167500", "161517.657500", "161519.147500", "161520.637500", "161522.127500", "161523.617500", "161525.107500", "161526.597500", "161528.087500", "161529.577500", "161531.067500", "161532.557500", "161534.047500", "161535.537500", "161537.027500", "161538.517500", "161540.007500", "161541.497500", "161542.987500", "161544.477500", "161545.967500", "161547.457500", "161548.947500", "161550.437500", "161551.927500", "161553.417500", "161554.907500", "161556.397500", "161557.887500", "161559.377500", "161600.867500", "161602.357500", "161603.847500", "161605.337500", "161606.827500", "161608.317500", "161609.807500", "161611.297500", "161612.787500", "161614.277500", "161615.767500", "161617.257500", "161618.747500", "161620.237500", "161621.727500", "161623.217500", "161624.707500", "161626.197500", "161627.687500", "161629.177500", "161630.667500", "161632.157500", "161633.647500", "161635.137500", "161636.627500", "161638.117500", "161639.607500", "161641.097500", "161642.587500", "161644.077500", "161645.567500", "161647.057500", "161648.547500", "161650.037500", "161651.527500", "161653.017500", "161654.507500", "161655.997500", "161657.487500", "161658.977500", "161700.467500", "161701.957500", "161703.447500", "161704.937500", "161706.427500", "161707.917500", "161709.407500", "161710.897500", "161712.387500", "161713.877500", "161715.367500", "161716.857500", "161718.347500", "161719.837500", "161721.327500", "161722.817500", "161724.307500", "161725.797500", "161727.287500", "161728.777500", "161730.267500", "161731.757500", "161733.247500", "161734.737500", "161736.227500", "161737.717500", "161739.207500", "161740.697500", "161742.187500", "161743.677500", "161745.167500", "161746.657500", "161748.147500", "161749.637500", "161751.127500", "161752.617500", "161754.107500", "161755.597500", "161757.087500", "161758.577500", "161800.067500", "161801.557500", "161803.047500", "161804.537500", "161806.027500", "161807.517500", "161809.007500", "161810.497500", "161811.987500", "161813.477500", "161814.967500", "161816.457500", "161817.947500", "161819.437500", "161820.927500", "161822.417500", "161823.907500", "161825.397500", "161826.887500", "161828.377500", "161829.867500", "161831.357500", "161832.847500", "161834.337500", "161835.827500", "161837.317500", "161838.807500", "161840.297500", "161841.787500", "161843.277500", "161844.767500", "161846.257500", "161847.747500", "161849.237500", "161850.727500", "161852.217500", "161853.707500", "161855.197500", "161856.687500", "161858.177500", "161859.667500", "161901.157500", "161902.647500", "161904.137500", "161905.627500", "161907.117500", "161908.607500", "161910.097500", "161911.587500", "161913.077500", "161914.567500", "161916.057500", "161917.547500", "161919.037500", "161920.527500", "161922.017500", "161923.507500", "161924.997500", "161926.487500", "161927.977500", "161929.467500", "161930.957500", "161932.447500", "161933.937500", "161935.427500", "161936.917500", "161938.407500", "161939.897500", "161941.387500", "161942.877500", "161944.367500", "161945.857500", "161947.347500", "161948.837500", "161950.327500", "161951.817500", "161953.307500", "161954.797500", "161956.287500", "161957.777500", "161959.267500", "162000.757500", "162002.247500", "162003.737500", "162005.227500", "162006.717500", "162008.207500", "162009.697500", "162011.187500", "162012.677500", "162014.167500", "162015.657500", "162017.147500", "162018.637500", "162020.127500", "162021.617500", "162023.107500", "162024.597500", "162026.087500", "162027.577500", "162029.067500", "162030.557500", "162032.047500", "162033.537500", "162035.027500", "162036.517500", "162038.007500", "162039.497500", "162040.987500", "162042.477500", "162043.967500", "162045.457500", "162046.947500", "162048.437500", "162049.927500", "162051.417500", "162052.907500", "162054.397500", "162055.887500", "162057.377500", "162058.867500", "162100.357500", "162101.847500", "162103.337500", "162104.827500", "162106.317500", "162107.807500", "162109.297500", "162110.787500", "162112.277500", "162113.767500", "162115.257500", "162116.747500", "162118.237500", "162119.727500", "162121.217500", "162122.707500", "162124.197500", "162125.687500", "162127.177500", "162128.667500", "162130.157500", "162131.647500", "162133.137500", "162134.627500", "162136.117500", "162137.607500", "162139.097500", "162140.587500", "162142.077500", "162143.567500", "162145.057500", "162146.547500", "162148.037500", "162149.527500", "162151.017500", "162152.507500", "162153.997500", "162155.487500", "162156.977500", "162158.467500", "162159.957500", "162201.447500", "162202.937500", "162204.427500", "162205.917500", "162207.407500", "162208.897500", "162210.387500", "162211.877500", "162213.367500", "162214.857500", "162216.347500", "162217.837500", "162219.327500", "162220.817500", "162222.307500", "162223.797500", "162225.287500", "162226.777500", "162228.267500", "162229.757500", "162231.247500", "162232.737500", "162234.227500", "162235.717500", "162237.207500", "162238.697500", "162240.187500", "162241.677500", "162243.167500", "162244.657500", "162246.147500", "162247.637500", "162249.127500", "162250.617500", "162252.107500", "162253.597500", "162255.087500", "162256.577500", "162258.067500", "162259.557500", "162301.047500", "162302.537500", "162304.027500", "162305.517500", "162307.007500", "162308.497500", "162309.987500", "162311.477500", "162312.967500", "162314.457500", "162315.947500", "162317.437500", "162318.927500", "162320.417500", "162321.907500", "162323.397500", "162324.887500", "162326.377500", "162327.867500", "162329.357500", "162330.847500", "162332.337500", "162333.827500", "162335.317500", "162336.807500", "162338.297500", "162339.787500", "162341.277500", "162342.767500", "162344.257500", "162345.747500", "162347.237500", "162348.727500", "162350.217500"],
      "ContentTime": ["161317.469000", "161317.472000", "161317.475000", "161317.478000", "161317.481000", "161317.483000", "161317.490000", "161317.493000", "161317.496000", "161317.498000", "161337.427000", "161337.430000", "161337.433000", "161337.436000", "161337.439000", "161337.451000", "161337.454000", "161337.457000", "161337.460000", "161337.462000", "161337.465000", "161337.468000", "161337.471000", "161337.474000", "161337.477000", "161337.479000", "161337.482000", "161337.485000", "161337.488000", "161337.497000", "161357.427000", "161357.430000", "161357.433000", "161357.435000", "161357.438000", "161357.441000", "161357.444000", "161357.446000", "161357.449000", "161357.452000", "161357.455000", "161357.458000", "161357.461000", "161357.463000", "161357.466000", "161357.469000", "161357.472000", "161357.475000", "161357.478000", "161357.480000", "161417.427000", "161417.430000", "161417.433000", "161417.435000", "161417.438000", "161417.441000", "161417.444000", "161417.447000", "161417.449000", "161417.452000", "161417.455000", "161417.465000", "161417.468000", "161417.471000", "161417.474000", "161417.476000", "161417.479000", "161417.482000", "161417.485000", "161417.488000", "161437.428000", "161437.431000", "161437.434000", "161437.436000", "161437.439000", "161437.442000", "161437.445000", "161437.459000", "161437.462000", "161437.464000", "161437.467000", "161437.470000", "161437.473000", "161437.476000", "161437.478000", "161437.481000", "161437.484000", "161437.487000", "161437.489000", "161437.492000", "161517.428000", "161517.431000", "161517.434000", "161517.436000", "161517.439000", "161517.442000", "161517.445000", "161517.448000", "161517.450000", "161517.453000", "161517.456000", "161517.459000", "161517.461000", "161517.464000", "161517.467000", "161517.470000", "161517.473000", "161517.476000", "161517.478000", "161517.481000", "161517.484000", "161517.487000", "161517.490000", "161517.492000", "161517.495000", "161517.498000", "161517.501000", "161517.504000", "161517.507000", "161517.509000", "161517.512000", "161517.515000", "161557.427000", "161557.430000", "161557.433000", "161557.436000", "161557.438000", "161557.441000", "161557.444000", "161557.447000", "161557.450000", "161557.453000", "161557.456000", "161557.458000", "161557.461000", "161557.464000", "161557.467000", "161557.470000", "161557.472000", "161557.475000", "161557.478000", "161557.481000", "161557.484000", "161557.486000", "161557.489000", "161557.492000", "161557.495000", "161557.498000", "161637.427000", "161637.430000", "161637.433000", "161637.435000", "161637.438000", "161637.441000", "161637.444000", "161637.447000", "161637.450000", "161637.452000", "161637.455000", "161637.458000", "161637.461000", "161637.464000", "161637.467000", "161637.469000", "161637.472000", "161637.475000", "161637.478000", "161637.493000", "161637.496000", "161637.499000", "161637.502000", "161637.505000", "161637.507000", "161637.510000", "161637.513000", "161717.428000", "161717.431000", "161717.434000", "161717.437000", "161717.439000", "161717.442000", "161717.445000", "161717.448000", "161717.451000", "161717.454000", "161717.456000", "161717.459000", "161717.462000", "161717.465000", "161717.468000", "161717.471000", "161717.473000", "161717.476000", "161717.479000", "161717.482000", "161717.485000", "161717.488000", "161717.490000", "161717.493000", "161717.496000", "161717.499000", "161717.502000", "161757.428000", "161757.431000", "161757.434000", "161757.436000", "161757.439000", "161757.442000", "161757.445000", "161757.448000", "161757.451000", "161757.453000", "161757.456000", "161757.459000", "161757.462000", "161757.465000", "161757.468000", "161757.470000", "161757.473000", "161757.476000", "161757.479000", "161757.482000", "161757.485000", "161757.488000", "161757.490000", "161757.493000", "161757.496000", "161757.499000", "161757.502000", "161837.427000", "161837.437000", "161837.440000", "161837.443000", "161837.446000", "161837.448000", "161837.451000", "161837.454000", "161837.457000", "161837.460000", "161837.463000", "161837.465000", "161837.468000", "161837.471000", "161837.474000", "161837.477000", "161837.479000", "161837.482000", "161837.485000", "161837.489000", "161837.492000", "161837.494000", "161837.497000", "161837.500000", "161837.503000", "161837.506000", "161837.508000", "161917.428000", "161917.431000", "161917.434000", "161917.437000", "161917.446000", "161917.449000", "161917.452000", "161917.455000", "161917.458000", "161917.460000", "161917.463000", "161917.466000", "161917.469000", "161917.472000", "161917.474000", "161917.477000", "161917.480000", "161917.483000", "161917.486000", "161917.488000", "161917.491000", "161917.494000", "161917.497000", "161917.500000", "161917.503000", "161917.505000", "161917.508000", "161957.428000", "161957.431000", "161957.434000", "161957.437000", "161957.439000", "161957.442000", "161957.445000", "161957.448000", "161957.451000", "161957.454000", "161957.456000", "161957.459000", "161957.462000", "161957.465000", "161957.468000", "161957.471000", "161957.473000", "161957.476000", "161957.479000", "161957.482000", "161957.485000", "161957.488000", "161957.490000", "161957.493000", "161957.496000", "161957.499000", "161957.502000", "162037.427000", "162037.430000", "162037.433000", "162037.435000", "162037.438000", "162037.441000", "162037.444000", "162037.447000", "162037.450000", "162037.453000", "162037.455000", "162037.458000", "162037.461000", "162037.464000", "162037.467000", "162037.470000", "162037.473000", "162037.476000", "162037.478000", "162037.481000", "162037.484000", "162037.487000", "162037.490000", "162037.492000", "162037.495000", "162037.498000", "162117.427000", "162117.430000", "162117.433000", "162117.436000", "162117.438000", "162117.441000", "162117.448000", "162117.451000", "162117.454000", "162117.457000", "162117.459000", "162117.462000", "162117.465000", "162117.468000", "162117.471000", "162117.477000", "162117.480000", "162117.483000", "162117.486000", "162117.488000", "162117.491000", "162117.494000", "162117.497000", "162117.500000", "162117.503000", "162117.505000", "162117.508000", "162157.428000", "162157.431000", "162157.434000", "162157.437000", "162157.440000", "162157.443000", "162157.446000", "162157.449000", "162157.452000", "162157.455000", "162157.457000", "162157.460000", "162157.463000", "162157.466000", "162157.469000", "162157.472000", "162157.475000", "162157.477000", "162157.480000", "162157.483000", "162157.486000", "162157.489000", "162157.492000", "162157.494000", "162157.497000", "162157.500000", "162157.503000", "162217.428000", "162217.431000", "162217.434000", "162217.437000", "162217.439000", "162217.442000", "162217.445000", "162217.448000", "162217.451000", "162217.454000", "162217.457000", "162217.460000", "162217.462000", "162217.465000", "162257.427000", "162257.430000", "162257.433000", "162257.435000", "162257.438000", "162257.441000", "162257.444000", "162257.447000", "162257.450000", "162257.452000", "162257.460000", "162257.465000", "162257.468000", "162257.470000", "162257.473000", "162257.476000", "162257.479000", "162257.482000", "162257.485000", "162257.487000", "162257.490000", "162257.493000", "162257.496000", "162257.499000", "162257.502000", "162257.504000", "162337.427000", "162337.430000", "162337.433000", "162337.436000", "162337.439000", "162337.441000", "162337.444000", "162337.447000", "162337.450000", "162337.453000", "162337.456000", "162337.459000", "162337.462000", "162337.464000", "162337.478000", "162337.481000", "162337.484000", "162337.487000", "162337.489000", "162337.492000", "162337.495000", "162337.498000", "162337.501000", "162337.503000", "162337.506000", "162337.509000", "162337.512000", "162352.797000", "162352.938000", "162352.941000", "162352.944000", "162352.947000", "162352.950000", "162352.953000", "162352.956000", "162352.959000", "162352.962000", "162352.965000"],
