{
  "AcquisitionMatrixPE": 104,
  "AcquisitionNumber": 1,
  "AcquisitionTime": "16:37:30.185000",
  "BandwidthPerPixelPhaseEncode": 17.17,
  "BaseResolution": 104,
  "BodyPartExamined": "BRAIN",
  "CoilCombinationMethod": "Sum of Squares",
  "ConsistencyInfo": "N4_VE11C_LATEST_20160120",
  "ConversionSoftware": "dcm2niix",
  "ConversionSoftwareVersion": "v1.0.20211006",
  "DerivedVendorReportedEchoSpacing": 0.000560011,
  "DeviceSerialNumber": "167006",
  "DwellTime": 2.1e-06,
  "EchoTime": 0.037,
  "EchoTrainLength": 104,
  "EffectiveEchoSpacing": 0.000560011,
  "FlipAngle": 52,
  "HeudiconvVersion": "0.11.3.post9+gc939bf8",
  "ImageComments": "Unaliased MB4/PE3/LB",
  "ImageOrientationPatientDICOM": [0.998165, -0.0601263, -0.00722367, 0.0552818, 0.953381, -0.296661],
  "ImageOrientationText": "Tra>Cor(-17.2)>Sag(-1.4)",
  "ImageType": [
    "ORIGINAL",
    "PRIMARY",
    "M",
    "MB",
    "ND",
    "MOSAIC"
],
  "ImagingFrequency": 123.259,
  "InPlanePhaseEncodingDirectionDICOM": "COL",
  "InstitutionAddress": "Chemin Queen-Mary 4565,Montreal,District,CA,H3W 1W5",
  "InstitutionName": "IUGM",
  "InstitutionalDepartmentName": "Department",
  "MRAcquisitionType": "2D",
  "MagneticFieldStrength": 3,
  "Manufacturer": "Siemens",
  "ManufacturersModelName": "Prisma_fit",
  "MatrixCoilMode": "SENSE",
  "Modality": "MR",
  "MultibandAccelerationFactor": 4,
  "PartialFourier": 1,
  "PatientPosition": "HFS",
  "PercentPhaseFOV": 100,
  "PercentSampling": 100,
  "PhaseEncodingDirection": "j",
  "PhaseEncodingSteps": 104,
  "PhaseResolution": 1,
  "PixelBandwidth": 2290,
  "ProcedureStepDescription": "video^friends",
  "ProtocolName": "func_task-friends-s06e20b",
  "PulseSequenceDetails": "%CustomerSeq%\\cmrr_mbep2d_bold",
  "ReceiveCoilActiveElements": "HC1-7;NC1,2",
  "ReceiveCoilName": "HeadNeck_64",
  "ReconMatrixPE": 104,
  "RepetitionTime": 1.49,
  "SAR": 0.0582204,
  "ScanOptions": "FS",
  "ScanningSequence": "EP",
  "SequenceName": "epfid2d1_104",
  "SequenceVariant": "SK\\SS",
  "SeriesDescription": "func_task-friends-s06e20b",
  "SeriesNumber": 16,
  "ShimSetting": [617, -7258, -8817, 591, -15, -217, -51, -26],
  "SliceThickness": 2,
  "SliceTiming": [0, 0.7825, 0.0975, 0.8825, 0.195, 0.98, 0.2925, 1.0775, 0.3925, 1.175, 0.49, 1.2725, 0.5875, 1.3725, 0.685, 0, 0.7825, 0.0975, 0.8825, 0.195, 0.98, 0.2925, 1.0775, 0.3925, 1.175, 0.49, 1.2725, 0.5875, 1.3725, 0.685, 0, 0.7825, 0.0975, 0.8825, 0.195, 0.98, 0.2925, 1.0775, 0.3925, 1.175, 0.49, 1.2725, 0.5875, 1.3725, 0.685, 0, 0.7825, 0.0975, 0.8825, 0.195, 0.98, 0.2925, 1.0775, 0.3925, 1.175, 0.49, 1.2725, 0.5875, 1.3725, 0.685],
  "SoftwareVersions": "syngo MR E11",
  "SpacingBetweenSlices": 2,
  "StationName": "MRC35049",
  "TaskName": "s06e20b",
  "TotalReadoutTime": 0.0576811,
  "TxRefAmp": 277.378,
  "WipMemBlock": "e17d66ee-6bf3-4f58-9830-db59be106e80||Sequence: R016 ve11c/master r/e634e98; Dec 19 2017 11:00:25 by eja",
  "dcmmeta_affine": [
    [-1.9963293075561523, 0.11056353151798248, -0.049448125064373016, 97.95260620117188],
    [0.1202525943517685, 1.9067625999450684, -0.5914351940155029, -83.1767578125],
    [-0.014447337947785854, 0.5933228135108948, 1.909910798072815, -60.693153381347656],
    [0.0, 0.0, 0.0, 1.0]
],
  "dcmmeta_reorient_transform": [
    [0.0, -1.0, 0.0, 103.0],
    [1.0, 0.0, 0.0, 0.0],
    [0.0, 0.0, 1.0, 0.0],
    [0.0, 0.0, 0.0, 1.0]
],
  "dcmmeta_shape": [104, 104, 60, 465],
  "dcmmeta_slice_dim": 2,
  "dcmmeta_version": 0.6,
  "global": {
    "const": {
      "AcquisitionMatrix": [104, 0, 0, 104],
      "AngioFlag": "N",
      "BitsAllocated": 16,
      "BitsStored": 16,
      "BodyPartExamined": "BRAIN",
      "Columns": 832,
      "EchoNumbers": 1,
      "EchoTime": 37.0,
      "EchoTrainLength": 104,
      "FlipAngle": 52.0,
      "HighBit": 15,
      "ImageOrientationPatient": [0.99816463924732, -0.0601262967641, -0.0072236689921, 0.05528176629319, 0.95338131849199, -0.2966614027237],
      "ImagePositionPatient": [-876.24963004154, -763.50944997396, 221.6474278853],
      "ImageType": [
        "ORIGINAL",
        "PRIMARY",
        "M",
        "MB",
        "ND",
        "MOSAIC"
],
      "ImagedNucleus": "1H",
      "ImagingFrequency": 123.258794,
      "InPlanePhaseEncodingDirection": "COL",
      "MRAcquisitionType": "2D",
      "MagneticFieldStrength": 3.0,
      "Manufacturer": "SIEMENS",
      "ManufacturerModelName": "Prisma_fit",
      "Modality": "MR",
      "NumberOfAverages": 1.0,
      "NumberOfPhaseEncodingSteps": 104,
      "PercentPhaseFieldOfView": 100.0,
      "PercentSampling": 100.0,
      "PerformedProcedureStepStartTime": "141339.647000",
      "PhotometricInterpretation": "MONOCHROME2",
      "PixelBandwidth": 2290.0,
      "PixelRepresentation": 0,
      "PixelSpacing": [2.0, 2.0],
      "ProtocolName": "func_task-friends-s06e20b",
      "RepetitionTime": 1490.0,
      "Rows": 832,
      "SAR": 0.05822044147359,
      "SamplesPerPixel": 1,
      "ScanOptions": "FS",
      "ScanningSequence": "EP",
      "SequenceName": "epfid2d1_104",
      "SequenceVariant": [
        "SK",
        "SS"
],
      "SeriesDescription": "func_task-friends-s06e20b",
      "SeriesNumber": 16,
      "SeriesTime": "163901.238000",
      "SliceLocation": -35.784211399517,
      "SliceThickness": 2.0,
      "SmallestImagePixelValue": 0,
      "SoftwareVersions": "syngo MR E11",
      "SpacingBetweenSlices": 2.0000000023339,
      "SpecificCharacterSet": "ISO_IR 100",
      "StudyID": "1",
      "StudyTime": "141339.562000",
      "TransmitCoilName": "Body",
      "VariableFlipAngleFlag": "N",
      "WindowCenterWidthExplanation": "Algo1",
      "dBdt": 0.0},
    "slices": {}
  },
  "time": {
    "samples": {
      "AcquisitionNumber": [1, 2, 3, 4, 5, 6, 7, 8, 9, 10, 11, 12, 13, 14, 15, 16, 17, 18, 19, 20, 21, 22, 23, 24, 25, 26, 27, 28, 29, 30, 31, 32, 33, 34, 35, 36, 37, 38, 39, 40, 41, 42, 43, 44, 45, 46, 47, 48, 49, 50, 51, 52, 53, 54, 55, 56, 57, 58, 59, 60, 61, 62, 63, 64, 65, 66, 67, 68, 69, 70, 71, 72, 73, 74, 75, 76, 77, 78, 79, 80, 81, 82, 83, 84, 85, 86, 87, 88, 89, 90, 91, 92, 93, 94, 95, 96, 97, 98, 99, 100, 101, 102, 103, 104, 105, 106, 107, 108, 109, 110, 111, 112, 113, 114, 115, 116, 117, 118, 119, 120, 121, 122, 123, 124, 125, 126, 127, 128, 129, 130, 131, 132, 133, 134, 135, 136, 137, 138, 139, 140, 141, 142, 143, 144, 145, 146, 147, 148, 149, 150, 151, 152, 153, 154, 155, 156, 157, 158, 159, 160, 161, 162, 163, 164, 165, 166, 167, 168, 169, 170, 171, 172, 173, 174, 175, 176, 177, 178, 179, 180, 181, 182, 183, 184, 185, 186, 187, 188, 189, 190, 191, 192, 193, 194, 195, 196, 197, 198, 199, 200, 201, 202, 203, 204, 205, 206, 207, 208, 209, 210, 211, 212, 213, 214, 215, 216, 217, 218, 219, 220, 221, 222, 223, 224, 225, 226, 227, 228, 229, 230, 231, 232, 233, 234, 235, 236, 237, 238, 239, 240, 241, 242, 243, 244, 245, 246, 247, 248, 249, 250, 251, 252, 253, 254, 255, 256, 257, 258, 259, 260, 261, 262, 263, 264, 265, 266, 267, 268, 269, 270, 271, 272, 273, 274, 275, 276, 277, 278, 279, 280, 281, 282, 283, 284, 285, 286, 287, 288, 289, 290, 291, 292, 293, 294, 295, 296, 297, 298, 299, 300, 301, 302, 303, 304, 305, 306, 307, 308, 309, 310, 311, 312, 313, 314, 315, 316, 317, 318, 319, 320, 321, 322, 323, 324, 325, 326, 327, 328, 329, 330, 331, 332, 333, 334, 335, 336, 337, 338, 339, 340, 341, 342, 343, 344, 345, 346, 347, 348, 349, 350, 351, 352, 353, 354, 355, 356, 357, 358, 359, 360, 361, 362, 363, 364, 365, 366, 367, 368, 369, 370, 371, 372, 373, 374, 375, 376, 377, 378, 379, 380, 381, 382, 383, 384, 385, 386, 387, 388, 389, 390, 391, 392, 393, 394, 395, 396, 397, 398, 399, 400, 401, 402, 403, 404, 405, 406, 407, 408, 409, 410, 411, 412, 413, 414, 415, 416, 417, 418, 419, 420, 421, 422, 423, 424, 425, 426, 427, 428, 429, 430, 431, 432, 433, 434, 435, 436, 437, 438, 439, 440, 441, 442, 443, 444, 445, 446, 447, 448, 449, 450, 451, 452, 453, 454, 455, 456, 457, 458, 459, 460, 461, 462, 463, 464, 465],
      "AcquisitionTime": ["163730.185000", "163731.675000", "163733.165000", "163734.655000", "163736.145000", "163737.635000", "163739.125000", "163740.615000", "163742.105000", "163743.595000", "163745.085000", "163746.575000", "163748.065000", "163749.555000", "163751.045000", "163752.535000", "163754.025000", "163755.515000", "163757.005000", "163758.495000", "163759.985000", "163801.475000", "163802.965000", "163804.455000", "163805.945000", "163807.435000", "163808.925000", "163810.415000", "163811.905000", "163813.395000", "163814.885000", "163816.375000", "163817.865000", "163819.355000", "163820.845000", "163822.335000", "163823.825000", "163825.315000", "163826.805000", "163828.295000", "163829.785000", "163831.275000", "163832.765000", "163834.255000", "163835.745000", "163837.235000", "163838.725000", "163840.215000", "163841.705000", "163843.195000", "163844.685000", "163846.175000", "163847.665000", "163849.155000", "163850.645000", "163852.135000", "163853.625000", "163855.115000", "163856.605000", "163858.095000", "163859.585000", "163901.075000", "163902.565000", "163904.055000", "163905.545000", "163907.035000", "163908.525000", "163910.015000", "163911.505000", "163912.995000", "163914.485000", "163915.975000", "163917.465000", "163918.955000", "163920.445000", "163921.935000", "163923.425000", "163924.915000", "163926.405000", "163927.895000", "163929.385000", "163930.875000", "163932.365000", "163933.855000", "163935.345000", "163936.835000", "163938.325000", "163939.815000", "163941.305000", "163942.795000", "163944.285000", "163945.775000", "163947.265000", "163948.755000", "163950.245000", "163951.735000", "163953.225000", "163954.715000", "163956.205000", "163957.695000", "163959.185000", "164000.675000", "164002.165000", "164003.655000", "164005.145000", "164006.635000", "164008.125000", "164009.615000", "164011.105000", "164012.595000", "164014.085000", "164015.575000", "164017.065000", "164018.555000", "164020.045000", "164021.535000", "164023.025000", "164024.515000", "164026.005000", "164027.495000", "164028.985000", "164030.475000", "164031.965000", "164033.455000", "164034.945000", "164036.435000", "164037.925000", "164039.415000", "164040.905000", "164042.395000", "164043.885000", "164045.375000", "164046.865000", "164048.355000", "164049.845000", "164051.335000", "164052.825000", "164054.315000", "164055.805000", "164057.295000", "164058.785000", "164100.275000", "164101.765000", "164103.255000", "164104.745000", "164106.235000", "164107.725000", "164109.215000", "164110.705000", "164112.195000", "164113.685000", "164115.175000", "164116.665000", "164118.155000", "164119.645000", "164121.135000", "164122.625000", "164124.115000", "164125.605000", "164127.095000", "164128.585000", "164130.075000", "164131.565000", "164133.055000", "164134.545000", "164136.035000", "164137.525000", "164139.015000", "164140.505000", "164141.995000", "164143.485000", "164144.975000", "164146.465000", "164147.955000", "164149.445000", "164150.935000", "164152.425000", "164153.915000", "164155.405000", "164156.895000", "164158.385000", "164159.875000", "164201.365000", "164202.855000", "164204.345000", "164205.835000", "164207.325000", "164208.815000", "164210.305000", "164211.795000", "164213.285000", "164214.775000", "164216.265000", "164217.755000", "164219.245000", "164220.735000", "164222.225000", "164223.715000", "164225.205000", "164226.695000", "164228.185000", "164229.675000", "164231.165000", "164232.655000", "164234.145000", "164235.635000", "164237.125000", "164238.615000", "164240.105000", "164241.595000", "164243.085000", "164244.575000", "164246.065000", "164247.555000", "164249.045000", "164250.535000", "164252.025000", "164253.515000", "164255.005000", "164256.495000", "164257.985000", "164259.475000", "164300.965000", "164302.455000", "164303.945000", "164305.435000", "164306.925000", "164308.415000", "164309.905000", "164311.395000", "164312.885000", "164314.375000", "164315.865000", "164317.355000", "164318.845000", "164320.335000", "164321.825000", "164323.315000", "164324.805000", "164326.295000", "164327.785000", "164329.275000", "164330.765000", "164332.255000", "164333.745000", "164335.235000", "164336.725000", "164338.215000", "164339.705000", "164341.195000", "164342.685000", "164344.175000", "164345.665000", "164347.155000", "164348.645000", "164350.135000", "164351.625000", "164353.115000", "164354.605000", "164356.095000", "164357.585000", "164359.075000", "164400.565000", "164402.055000", "164403.545000", "164405.035000", "164406.525000", "164408.015000", "164409.505000", "164410.995000", "164412.485000", "164413.975000", "164415.465000", "164416.955000", "164418.445000", "164419.935000", "164421.425000", "164422.915000", "164424.405000", "164425.895000", "164427.385000", "164428.875000", "164430.365000", "164431.855000", "164433.345000", "164434.835000", "164436.325000", "164437.815000", "164439.305000", "164440.795000", "164442.285000", "164443.775000", "164445.265000", "164446.755000", "164448.245000", "164449.735000", "164451.225000", "164452.715000", "164454.205000", "164455.695000", "164457.185000", "164458.675000", "164500.165000", "164501.655000", "164503.145000", "164504.635000", "164506.125000", "164507.615000", "164509.105000", "164510.595000", "164512.085000", "164513.575000", "164515.065000", "164516.555000", "164518.045000", "164519.535000", "164521.025000", "164522.515000", "164524.005000", "164525.495000", "164526.985000", "164528.475000", "164529.965000", "164531.455000", "164532.945000", "164534.435000", "164535.925000", "164537.415000", "164538.905000", "164540.395000", "164541.885000", "164543.375000", "164544.865000", "164546.355000", "164547.845000", "164549.335000", "164550.825000", "164552.315000", "164553.805000", "164555.295000", "164556.785000", "164558.275000", "164559.765000", "164601.255000", "164602.745000", "164604.235000", "164605.725000", "164607.215000", "164608.705000", "164610.195000", "164611.685000", "164613.175000", "164614.665000", "164616.155000", "164617.645000", "164619.135000", "164620.625000", "164622.115000", "164623.605000", "164625.095000", "164626.585000", "164628.075000", "164629.565000", "164631.055000", "164632.545000", "164634.035000", "164635.525000", "164637.015000", "164638.505000", "164639.995000", "164641.485000", "164642.975000", "164644.465000", "164645.955000", "164647.445000", "164648.935000", "164650.425000", "164651.915000", "164653.405000", "164654.895000", "164656.385000", "164657.875000", "164659.365000", "164700.855000", "164702.345000", "164703.835000", "164705.325000", "164706.815000", "164708.305000", "164709.795000", "164711.285000", "164712.775000", "164714.265000", "164715.755000", "164717.245000", "164718.735000", "164720.225000", "164721.715000", "164723.205000", "164724.695000", "164726.185000", "164727.675000", "164729.165000", "164730.655000", "164732.145000", "164733.635000", "164735.125000", "164736.615000", "164738.105000", "164739.595000", "164741.085000", "164742.575000", "164744.065000", "164745.555000", "164747.045000", "164748.535000", "164750.025000", "164751.515000", "164753.005000", "164754.495000", "164755.985000", "164757.475000", "164758.965000", "164800.455000", "164801.945000", "164803.435000", "164804.925000", "164806.415000", "164807.905000", "164809.395000", "164810.885000", "164812.375000", "164813.865000", "164815.355000", "164816.845000", "164818.335000", "164819.825000", "164821.315000", "164822.805000", "164824.295000", "164825.785000", "164827.275000", "164828.765000", "164830.255000", "164831.745000", "164833.235000", "164834.725000", "164836.215000", "164837.705000", "164839.195000", "164840.685000", "164842.175000", "164843.665000", "164845.155000", "164846.645000", "164848.135000", "164849.625000", "164851.115000", "164852.605000", "164854.095000", "164855.585000", "164857.075000", "164858.565000", "164900.055000", "164901.545000"],
      "ContentTime": ["163901.241000", "163901.245000", "163901.247000", "163901.250000", "163901.265000", "163901.267000", "163901.271000", "163901.273000", "163901.276000", "163901.279000", "163901.282000", "163901.285000", "163901.287000", "163901.290000", "163901.293000", "163901.296000", "163901.299000", "163901.302000", "163901.304000", "163901.307000", "163901.310000", "163901.313000", "163901.315000", "163901.318000", "163901.321000", "163901.324000", "163901.327000", "163901.330000", "163901.332000", "163901.335000", "163901.338000", "163901.341000", "163901.344000", "163901.346000", "163901.349000", "163901.352000", "163921.213000", "163921.216000", "163921.225000", "163921.228000", "163921.231000", "163921.233000", "163921.236000", "163921.239000", "163921.242000", "163921.244000", "163921.247000", "163921.250000", "163921.253000", "163921.262000", "163921.264000", "163921.267000", "163921.270000", "163921.273000", "163921.276000", "163921.279000", "163941.214000", "163941.217000", "163941.220000", "163941.222000", "163941.225000", "163941.228000", "163941.231000", "163941.234000", "163941.236000", "163941.239000", "163941.242000", "163941.245000", "163941.248000", "163941.250000", "163941.253000", "163941.256000", "163941.259000", "163941.262000", "163941.264000", "163941.267000", "164001.214000", "164001.217000", "164001.220000", "164001.231000", "164001.234000", "164001.237000", "164001.240000", "164001.243000", "164001.245000", "164001.248000", "164001.251000", "164001.254000", "164001.257000", "164001.260000", "164001.270000", "164001.273000", "164001.275000", "164001.278000", "164001.281000", "164001.284000", "164041.214000", "164041.217000", "164041.220000", "164041.223000", "164041.225000", "164041.228000", "164041.231000", "164041.234000", "164041.237000", "164041.240000", "164041.242000", "164041.245000", "164041.248000", "164041.256000", "164041.258000", "164041.261000", "164041.264000", "164041.267000", "164041.270000", "164041.272000", "164041.275000", "164041.278000", "164041.281000", "164041.284000", "164041.287000", "164041.289000", "164041.292000", "164041.295000", "164041.298000", "164041.301000", "164041.303000", "164121.213000", "164121.216000", "164121.219000", "164121.221000", "164121.224000", "164121.227000", "164121.230000", "164121.233000", "164121.236000", "164121.238000", "164121.241000", "164121.244000", "164121.247000", "164121.250000", "164121.252000", "164121.255000", "164121.258000", "164121.261000", "164121.264000", "164121.267000", "164121.269000", "164121.272000", "164121.275000", "164121.278000", "164121.281000", "164121.283000", "164121.286000", "164201.214000", "164201.217000", "164201.220000", "164201.222000", "164201.225000", "164201.228000", "164201.231000", "164201.234000", "164201.237000", "164201.239000", "164201.242000", "164201.245000", "164201.248000", "164201.251000", "164201.254000", "164201.256000", "164201.259000", "164201.262000", "164201.265000", "164201.268000", "164201.270000", "164201.273000", "164201.276000", "164201.279000", "164201.282000", "164201.284000", "164201.287000", "164221.214000", "164221.217000", "164221.220000", "164221.222000", "164221.225000", "164221.228000", "164221.231000", "164221.234000", "164221.237000", "164221.239000", "164221.242000", "164221.245000", "164221.248000", "164301.213000", "164301.216000", "164301.219000", "164301.222000", "164301.225000", "164301.227000", "164301.230000", "164301.233000", "164301.236000", "164301.239000", "164301.242000", "164301.244000", "164301.247000", "164301.250000", "164301.253000", "164301.256000", "164301.259000", "164301.261000", "164301.264000", "164301.267000", "164301.270000", "164301.273000", "164301.275000", "164301.278000", "164301.281000", "164301.284000", "164301.287000", "164341.213000", "164341.216000", "164341.219000", "164341.222000", "164341.224000", "164341.227000", "164341.230000", "164341.233000", "164341.236000", "164341.239000", "164341.241000", "164341.244000", "164341.247000", "164341.250000", "164341.253000", "164341.256000", "164341.259000", "164341.261000", "164341.264000", "164341.267000", "164341.270000", "164341.273000", "164341.276000", "164341.278000", "164341.281000", "164341.284000", "164341.287000", "164421.214000", "164421.217000", "164421.220000", "164421.222000", "164421.225000", "164421.228000", "164421.231000", "164421.234000", "164421.237000", "164421.239000", "164421.242000", "164421.245000", "164421.248000", "164421.251000", "164421.254000", "164421.256000", "164421.259000", "164421.262000", "164421.265000", "164421.268000", "164421.270000", "164421.273000", "164421.276000", "164421.279000", "164421.282000", "164421.284000", "164421.303000", "164501.214000", "164501.217000", "164501.220000", "164501.223000", "164501.226000", "164501.228000", "164501.231000", "164501.234000", "164501.237000", "164501.240000", "164501.242000", "164501.245000", "164501.248000", "164501.251000", "164501.254000", "164501.257000", "164501.259000", "164501.262000", "164501.265000", "164501.268000", "164501.271000", "164501.274000", "164501.276000", "164501.279000", "164501.282000", "164501.285000", "164501.288000", "164541.213000", "164541.216000", "164541.219000", "164541.222000", "164541.224000", "164541.227000", "164541.230000", "164541.233000", "164541.236000", "164541.239000", "164541.241000", "164541.244000", "164541.247000", "164541.250000", "164541.253000", "164541.256000", "164541.258000", "164541.261000", "164541.264000", "164541.267000", "164541.270000", "164541.272000", "164541.275000", "164541.278000", "164541.281000", "164541.284000", "164541.287000", "164621.213000", "164621.216000", "164621.219000", "164621.222000", "164621.224000", "164621.227000", "164621.230000", "164621.233000", "164621.236000", "164621.238000", "164621.241000", "164621.244000", "164621.248000", "164621.251000", "164621.254000", "164621.257000", "164621.260000", "164621.263000", "164621.266000", "164621.268000", "164621.271000", "164621.274000", "164621.277000", "164621.280000", "164621.283000", "164621.285000", "164701.214000", "164701.217000", "164701.220000", "164701.223000", "164701.225000", "164701.228000", "164701.231000", "164701.234000", "164701.237000", "164701.239000", "164701.242000", "164701.245000", "164701.248000", "164701.251000", "164701.254000", "164701.257000", "164701.259000", "164701.262000", "164701.265000", "164701.268000", "164701.271000", "164701.274000", "164701.276000", "164701.279000", "164701.282000", "164701.285000", "164701.288000", "164741.213000", "164741.216000", "164741.219000", "164741.222000", "164741.224000", "164741.227000", "164741.230000", "164741.233000", "164741.236000", "164741.238000", "164741.241000", "164741.244000", "164741.247000", "164741.250000", "164741.253000", "164741.256000", "164741.258000", "164741.261000", "164741.264000", "164741.267000", "164741.270000", "164741.273000", "164741.276000", "164741.279000", "164741.282000", "164741.284000", "164741.287000", "164821.213000", "164821.216000", "164821.219000", "164821.221000", "164821.224000", "164821.227000", "164821.230000", "164821.233000", "164821.236000", "164821.239000", "164821.241000", "164821.244000", "164821.247000", "164821.250000", "164821.253000", "164821.256000", "164821.258000", "164821.261000", "164821.264000", "164821.267000", "164821.270000", "164821.272000", "164821.275000", "164821.278000", "164821.281000", "164821.284000", "164821.287000", "164901.214000", "164901.217000", "164901.220000", "164901.223000", "164901.225000", "164901.228000", "164901.231000", "164901.234000", "164901.237000", "164901.240000", "164901.243000", "164901.246000", "164901.248000", "164901.251000", "164901.254000", "164901.257000", "164901.260000", "164901.263000", "164901.265000", "164901.268000", "164901.271000", "164901.296000", "164901.314000", "164901.317000", "164901.320000", "164901.323000", "164901.326000", "164903.839000", "164903.842000"],
