{
  "AcquisitionMatrixPE": 104,
  "AcquisitionNumber": 1,
  "AcquisitionTime": "16:00:3.465000",
  "BandwidthPerPixelPhaseEncode": 17.17,
  "BaseResolution": 104,
  "BodyPartExamined": "BRAIN",
  "CoilCombinationMethod": "Sum of Squares",
  "ConsistencyInfo": "N4_VE11C_LATEST_20160120",
  "ConversionSoftware": "dcm2niix",
  "ConversionSoftwareVersion": "v1.0.20211006",
  "DerivedVendorReportedEchoSpacing": 0.000560011,
  "DeviceSerialNumber": "167006",
  "DwellTime": 2.1e-06,
  "EchoTime": 0.037,
  "EchoTrainLength": 104,
  "EffectiveEchoSpacing": 0.000560011,
  "FlipAngle": 52,
  "HeudiconvVersion": "0.11.3.post9+gc939bf8",
  "ImageComments": "Unaliased MB4/PE3/LB",
  "ImageOrientationPatientDICOM": [0.998165, -0.0601263, -0.00722367, 0.0552818, 0.953381, -0.296661],
  "ImageOrientationText": "Tra>Cor(-17.2)>Sag(-1.4)",
  "ImageType": [
    "ORIGINAL",
    "PRIMARY",
    "M",
    "MB",
    "ND",
    "MOSAIC"
],
  "ImagingFrequency": 123.259,
  "InPlanePhaseEncodingDirectionDICOM": "COL",
  "InstitutionAddress": "Chemin Queen-Mary 4565,Montreal,District,CA,H3W 1W5",
  "InstitutionName": "IUGM",
  "InstitutionalDepartmentName": "Department",
  "MRAcquisitionType": "2D",
  "MagneticFieldStrength": 3,
  "Manufacturer": "Siemens",
  "ManufacturersModelName": "Prisma_fit",
  "MatrixCoilMode": "SENSE",
  "Modality": "MR",
  "MultibandAccelerationFactor": 4,
  "PartialFourier": 1,
  "PatientPosition": "HFS",
  "PercentPhaseFOV": 100,
  "PercentSampling": 100,
  "PhaseEncodingDirection": "j",
  "PhaseEncodingSteps": 104,
  "PhaseResolution": 1,
  "PixelBandwidth": 2290,
  "ProcedureStepDescription": "video^friends",
  "ProtocolName": "func_task-friends-s06e19a",
  "PulseSequenceDetails": "%CustomerSeq%\\cmrr_mbep2d_bold",
  "ReceiveCoilActiveElements": "HC1-7;NC1,2",
  "ReceiveCoilName": "HeadNeck_64",
  "ReconMatrixPE": 104,
  "RepetitionTime": 1.49,
  "SAR": 0.0582028,
  "ScanOptions": "FS",
  "ScanningSequence": "EP",
  "SequenceName": "epfid2d1_104",
  "SequenceVariant": "SK\\SS",
  "SeriesDescription": "func_task-friends-s06e19a",
  "SeriesNumber": 10,
  "ShimSetting": [617, -7258, -8817, 591, -15, -217, -51, -26],
  "SliceThickness": 2,
  "SliceTiming": [0, 0.7825, 0.0975, 0.8825, 0.195, 0.98, 0.2925, 1.0775, 0.3925, 1.175, 0.49, 1.2725, 0.5875, 1.3725, 0.685, 0, 0.7825, 0.0975, 0.8825, 0.195, 0.98, 0.2925, 1.0775, 0.3925, 1.175, 0.49, 1.2725, 0.5875, 1.3725, 0.685, 0, 0.7825, 0.0975, 0.8825, 0.195, 0.98, 0.2925, 1.0775, 0.3925, 1.175, 0.49, 1.2725, 0.5875, 1.3725, 0.685, 0, 0.7825, 0.0975, 0.8825, 0.195, 0.98, 0.2925, 1.0775, 0.3925, 1.175, 0.49, 1.2725, 0.5875, 1.3725, 0.685],
  "SoftwareVersions": "syngo MR E11",
  "SpacingBetweenSlices": 2,
  "StationName": "MRC35049",
  "TaskName": "s06e19a",
  "TotalReadoutTime": 0.0576811,
  "TxRefAmp": 277.378,
  "WipMemBlock": "d1376b4a-e8ce-4eba-b4b8-ccc08573c543||Sequence: R016 ve11c/master r/e634e98; Dec 19 2017 11:00:25 by eja",
  "dcmmeta_affine": [
    [-1.9963293075561523, 0.11056353151798248, -0.049448125064373016, 97.95260620117188],
    [0.1202525943517685, 1.9067625999450684, -0.5914351940155029, -83.1767578125],
    [-0.014447337947785854, 0.5933228135108948, 1.909910798072815, -60.693153381347656],
    [0.0, 0.0, 0.0, 1.0]
],
  "dcmmeta_reorient_transform": [
    [0.0, -1.0, 0.0, 103.0],
    [1.0, 0.0, 0.0, 0.0],
    [0.0, 0.0, 1.0, 0.0],
    [0.0, 0.0, 0.0, 1.0]
],
  "dcmmeta_shape": [104, 104, 60, 434],
  "dcmmeta_slice_dim": 2,
  "dcmmeta_version": 0.6,
  "global": {
    "const": {
      "AcquisitionMatrix": [104, 0, 0, 104],
      "AngioFlag": "N",
      "BitsAllocated": 16,
      "BitsStored": 16,
      "BodyPartExamined": "BRAIN",
      "Columns": 832,
      "EchoNumbers": 1,
      "EchoTime": 37.0,
      "EchoTrainLength": 104,
      "FlipAngle": 52.0,
      "HighBit": 15,
      "ImageOrientationPatient": [0.99816463924732, -0.0601262967641, -0.0072236689921, 0.05528176629319, 0.95338131849199, -0.2966614027237],
      "ImagePositionPatient": [-876.24963004154, -763.50944997396, 221.6474278853],
      "ImageType": [
        "ORIGINAL",
        "PRIMARY",
        "M",
        "MB",
        "ND",
        "MOSAIC"
],
      "ImagedNucleus": "1H",
      "ImagingFrequency": 123.258769,
      "InPlanePhaseEncodingDirection": "COL",
      "MRAcquisitionType": "2D",
      "MagneticFieldStrength": 3.0,
      "Manufacturer": "SIEMENS",
      "ManufacturerModelName": "Prisma_fit",
      "Modality": "MR",
      "NumberOfAverages": 1.0,
      "NumberOfPhaseEncodingSteps": 104,
      "PercentPhaseFieldOfView": 100.0,
      "PercentSampling": 100.0,
      "PerformedProcedureStepStartTime": "141339.647000",
      "PhotometricInterpretation": "MONOCHROME2",
      "PixelBandwidth": 2290.0,
      "PixelRepresentation": 0,
      "PixelSpacing": [2.0, 2.0],
      "ProtocolName": "func_task-friends-s06e19a",
      "RepetitionTime": 1490.0,
      "Rows": 832,
      "SAR": 0.05820279927757,
      "SamplesPerPixel": 1,
      "ScanOptions": "FS",
      "ScanningSequence": "EP",
      "SequenceName": "epfid2d1_104",
      "SequenceVariant": [
        "SK",
        "SS"
],
      "SeriesDescription": "func_task-friends-s06e19a",
      "SeriesNumber": 10,
      "SeriesTime": "160121.236000",
      "SliceLocation": -35.784211399517,
      "SliceThickness": 2.0,
      "SmallestImagePixelValue": 0,
      "SoftwareVersions": "syngo MR E11",
      "SpacingBetweenSlices": 2.0000000023339,
      "SpecificCharacterSet": "ISO_IR 100",
      "StudyID": "1",
      "StudyTime": "141339.562000",
      "TransmitCoilName": "Body",
      "VariableFlipAngleFlag": "N",
      "WindowCenterWidthExplanation": "Algo1",
      "dBdt": 0.0},
    "slices": {}
  },
  "time": {
    "samples": {
      "AcquisitionNumber": [1, 2, 3, 4, 5, 6, 7, 8, 9, 10, 11, 12, 13, 14, 15, 16, 17, 18, 19, 20, 21, 22, 23, 24, 25, 26, 27, 28, 29, 30, 31, 32, 33, 34, 35, 36, 37, 38, 39, 40, 41, 42, 43, 44, 45, 46, 47, 48, 49, 50, 51, 52, 53, 54, 55, 56, 57, 58, 59, 60, 61, 62, 63, 64, 65, 66, 67, 68, 69, 70, 71, 72, 73, 74, 75, 76, 77, 78, 79, 80, 81, 82, 83, 84, 85, 86, 87, 88, 89, 90, 91, 92, 93, 94, 95, 96, 97, 98, 99, 100, 101, 102, 103, 104, 105, 106, 107, 108, 109, 110, 111, 112, 113, 114, 115, 116, 117, 118, 119, 120, 121, 122, 123, 124, 125, 126, 127, 128, 129, 130, 131, 132, 133, 134, 135, 136, 137, 138, 139, 140, 141, 142, 143, 144, 145, 146, 147, 148, 149, 150, 151, 152, 153, 154, 155, 156, 157, 158, 159, 160, 161, 162, 163, 164, 165, 166, 167, 168, 169, 170, 171, 172, 173, 174, 175, 176, 177, 178, 179, 180, 181, 182, 183, 184, 185, 186, 187, 188, 189, 190, 191, 192, 193, 194, 195, 196, 197, 198, 199, 200, 201, 202, 203, 204, 205, 206, 207, 208, 209, 210, 211, 212, 213, 214, 215, 216, 217, 218, 219, 220, 221, 222, 223, 224, 225, 226, 227, 228, 229, 230, 231, 232, 233, 234, 235, 236, 237, 238, 239, 240, 241, 242, 243, 244, 245, 246, 247, 248, 249, 250, 251, 252, 253, 254, 255, 256, 257, 258, 259, 260, 261, 262, 263, 264, 265, 266, 267, 268, 269, 270, 271, 272, 273, 274, 275, 276, 277, 278, 279, 280, 281, 282, 283, 284, 285, 286, 287, 288, 289, 290, 291, 292, 293, 294, 295, 296, 297, 298, 299, 300, 301, 302, 303, 304, 305, 306, 307, 308, 309, 310, 311, 312, 313, 314, 315, 316, 317, 318, 319, 320, 321, 322, 323, 324, 325, 326, 327, 328, 329, 330, 331, 332, 333, 334, 335, 336, 337, 338, 339, 340, 341, 342, 343, 344, 345, 346, 347, 348, 349, 350, 351, 352, 353, 354, 355, 356, 357, 358, 359, 360, 361, 362, 363, 364, 365, 366, 367, 368, 369, 370, 371, 372, 373, 374, 375, 376, 377, 378, 379, 380, 381, 382, 383, 384, 385, 386, 387, 388, 389, 390, 391, 392, 393, 394, 395, 396, 397, 398, 399, 400, 401, 402, 403, 404, 405, 406, 407, 408, 409, 410, 411, 412, 413, 414, 415, 416, 417, 418, 419, 420, 421, 422, 423, 424, 425, 426, 427, 428, 429, 430, 431, 432, 433, 434],
      "AcquisitionTime": ["160003.465000", "160004.955000", "160006.445000", "160007.935000", "160009.425000", "160010.915000", "160012.405000", "160013.895000", "160015.385000", "160016.875000", "160018.365000", "160019.855000", "160021.345000", "160022.835000", "160024.325000", "160025.815000", "160027.305000", "160028.795000", "160030.285000", "160031.775000", "160033.265000", "160034.755000", "160036.245000", "160037.735000", "160039.225000", "160040.715000", "160042.205000", "160043.695000", "160045.185000", "160046.675000", "160048.165000", "160049.655000", "160051.145000", "160052.635000", "160054.125000", "160055.615000", "160057.105000", "160058.595000", "160100.085000", "160101.575000", "160103.065000", "160104.555000", "160106.045000", "160107.535000", "160109.025000", "160110.515000", "160112.005000", "160113.495000", "160114.985000", "160116.475000", "160117.965000", "160119.455000", "160120.945000", "160122.435000", "160123.925000", "160125.415000", "160126.905000", "160128.395000", "160129.885000", "160131.375000", "160132.865000", "160134.355000", "160135.845000", "160137.335000", "160138.825000", "160140.315000", "160141.805000", "160143.295000", "160144.785000", "160146.275000", "160147.765000", "160149.255000", "160150.745000", "160152.235000", "160153.725000", "160155.215000", "160156.705000", "160158.195000", "160159.685000", "160201.175000", "160202.665000", "160204.155000", "160205.645000", "160207.135000", "160208.625000", "160210.115000", "160211.605000", "160213.095000", "160214.585000", "160216.075000", "160217.565000", "160219.055000", "160220.545000", "160222.035000", "160223.525000", "160225.015000", "160226.505000", "160227.995000", "160229.485000", "160230.975000", "160232.465000", "160233.955000", "160235.445000", "160236.935000", "160238.425000", "160239.915000", "160241.405000", "160242.895000", "160244.385000", "160245.875000", "160247.365000", "160248.855000", "160250.345000", "160251.835000", "160253.325000", "160254.815000", "160256.305000", "160257.795000", "160259.285000", "160300.775000", "160302.265000", "160303.755000", "160305.245000", "160306.735000", "160308.225000", "160309.715000", "160311.205000", "160312.695000", "160314.185000", "160315.675000", "160317.165000", "160318.655000", "160320.145000", "160321.635000", "160323.125000", "160324.615000", "160326.105000", "160327.595000", "160329.085000", "160330.575000", "160332.065000", "160333.555000", "160335.045000", "160336.535000", "160338.025000", "160339.515000", "160341.005000", "160342.495000", "160343.985000", "160345.475000", "160346.965000", "160348.455000", "160349.945000", "160351.435000", "160352.925000", "160354.415000", "160355.905000", "160357.395000", "160358.885000", "160400.375000", "160401.865000", "160403.355000", "160404.845000", "160406.335000", "160407.825000", "160409.315000", "160410.805000", "160412.295000", "160413.785000", "160415.275000", "160416.765000", "160418.255000", "160419.745000", "160421.235000", "160422.725000", "160424.215000", "160425.705000", "160427.195000", "160428.685000", "160430.175000", "160431.665000", "160433.155000", "160434.645000", "160436.135000", "160437.625000", "160439.115000", "160440.605000", "160442.095000", "160443.585000", "160445.075000", "160446.565000", "160448.055000", "160449.545000", "160451.035000", "160452.525000", "160454.015000", "160455.505000", "160456.995000", "160458.485000", "160459.975000", "160501.465000", "160502.955000", "160504.445000", "160505.935000", "160507.425000", "160508.915000", "160510.405000", "160511.895000", "160513.385000", "160514.875000", "160516.365000", "160517.855000", "160519.345000", "160520.835000", "160522.325000", "160523.815000", "160525.305000", "160526.795000", "160528.285000", "160529.775000", "160531.265000", "160532.755000", "160534.245000", "160535.735000", "160537.225000", "160538.715000", "160540.205000", "160541.695000", "160543.185000", "160544.675000", "160546.165000", "160547.655000", "160549.145000", "160550.635000", "160552.125000", "160553.615000", "160555.105000", "160556.595000", "160558.085000", "160559.575000", "160601.065000", "160602.555000", "160604.045000", "160605.535000", "160607.025000", "160608.515000", "160610.005000", "160611.495000", "160612.985000", "160614.475000", "160615.965000", "160617.455000", "160618.945000", "160620.435000", "160621.925000", "160623.415000", "160624.905000", "160626.395000", "160627.885000", "160629.375000", "160630.865000", "160632.355000", "160633.845000", "160635.335000", "160636.825000", "160638.315000", "160639.805000", "160641.295000", "160642.785000", "160644.275000", "160645.765000", "160647.255000", "160648.745000", "160650.235000", "160651.725000", "160653.215000", "160654.705000", "160656.195000", "160657.685000", "160659.175000", "160700.665000", "160702.155000", "160703.645000", "160705.135000", "160706.625000", "160708.115000", "160709.605000", "160711.095000", "160712.585000", "160714.075000", "160715.565000", "160717.055000", "160718.545000", "160720.035000", "160721.525000", "160723.015000", "160724.505000", "160725.995000", "160727.485000", "160728.975000", "160730.465000", "160731.955000", "160733.445000", "160734.935000", "160736.425000", "160737.915000", "160739.405000", "160740.895000", "160742.385000", "160743.875000", "160745.365000", "160746.855000", "160748.345000", "160749.835000", "160751.325000", "160752.815000", "160754.305000", "160755.795000", "160757.285000", "160758.775000", "160800.265000", "160801.755000", "160803.245000", "160804.735000", "160806.225000", "160807.715000", "160809.205000", "160810.695000", "160812.185000", "160813.675000", "160815.165000", "160816.655000", "160818.145000", "160819.635000", "160821.125000", "160822.615000", "160824.105000", "160825.595000", "160827.085000", "160828.575000", "160830.065000", "160831.555000", "160833.045000", "160834.535000", "160836.025000", "160837.515000", "160839.005000", "160840.495000", "160841.985000", "160843.475000", "160844.965000", "160846.455000", "160847.945000", "160849.435000", "160850.925000", "160852.415000", "160853.905000", "160855.395000", "160856.885000", "160858.375000", "160859.865000", "160901.355000", "160902.845000", "160904.335000", "160905.825000", "160907.315000", "160908.805000", "160910.295000", "160911.785000", "160913.275000", "160914.765000", "160916.255000", "160917.745000", "160919.235000", "160920.725000", "160922.215000", "160923.705000", "160925.195000", "160926.685000", "160928.175000", "160929.665000", "160931.155000", "160932.645000", "160934.135000", "160935.625000", "160937.115000", "160938.605000", "160940.095000", "160941.585000", "160943.075000", "160944.565000", "160946.055000", "160947.545000", "160949.035000", "160950.525000", "160952.015000", "160953.505000", "160954.995000", "160956.485000", "160957.975000", "160959.465000", "161000.955000", "161002.445000", "161003.935000", "161005.425000", "161006.915000", "161008.405000", "161009.895000", "161011.385000", "161012.875000", "161014.365000", "161015.855000", "161017.345000", "161018.835000", "161020.325000", "161021.815000", "161023.305000", "161024.795000", "161026.285000", "161027.775000", "161029.265000", "161030.755000", "161032.245000", "161033.735000", "161035.225000", "161036.715000", "161038.205000", "161039.695000", "161041.185000", "161042.675000", "161044.165000", "161045.655000", "161047.145000", "161048.635000"],
      "ContentTime": ["160121.238000", "160121.242000", "160121.244000", "160121.247000", "160121.250000", "160121.253000", "160121.256000", "160121.259000", "160121.261000", "160121.264000", "160121.267000", "160121.270000", "160121.283000", "160121.286000", "160121.289000", "160121.296000", "160121.299000", "160121.301000", "160121.304000", "160121.307000", "160121.310000", "160121.312000", "160121.315000", "160121.318000", "160141.213000", "160141.216000", "160141.219000", "160141.221000", "160141.224000", "160141.227000", "160141.230000", "160141.233000", "160141.236000", "160141.239000", "160141.241000", "160141.244000", "160141.247000", "160141.250000", "160141.253000", "160141.255000", "160141.258000", "160141.261000", "160141.264000", "160141.267000", "160201.213000", "160201.216000", "160201.219000", "160201.221000", "160201.224000", "160201.227000", "160201.230000", "160201.240000", "160201.243000", "160201.246000", "160201.248000", "160201.251000", "160201.254000", "160201.257000", "160201.260000", "160201.262000", "160201.265000", "160201.272000", "160201.275000", "160201.278000", "160221.213000", "160221.216000", "160221.219000", "160221.222000", "160221.224000", "160221.227000", "160221.230000", "160221.233000", "160221.236000", "160221.238000", "160221.241000", "160221.244000", "160221.253000", "160221.256000", "160221.259000", "160221.262000", "160221.265000", "160221.267000", "160221.270000", "160221.273000", "160241.214000", "160241.217000", "160241.219000", "160241.222000", "160241.225000", "160241.228000", "160241.231000", "160241.234000", "160241.236000", "160241.239000", "160241.242000", "160241.245000", "160241.248000", "160241.250000", "160241.253000", "160241.256000", "160241.259000", "160241.262000", "160241.264000", "160241.267000", "160241.270000", "160321.214000", "160321.217000", "160321.220000", "160321.222000", "160321.225000", "160321.228000", "160321.231000", "160321.234000", "160321.236000", "160321.239000", "160321.242000", "160321.245000", "160321.248000", "160321.251000", "160321.257000", "160321.260000", "160321.262000", "160321.265000", "160321.268000", "160321.271000", "160321.274000", "160321.276000", "160321.279000", "160321.282000", "160321.285000", "160321.288000", "160321.291000", "160401.213000", "160401.216000", "160401.219000", "160401.221000", "160401.224000", "160401.227000", "160401.230000", "160401.233000", "160401.236000", "160401.240000", "160401.256000", "160401.259000", "160401.262000", "160401.265000", "160401.268000", "160401.270000", "160401.273000", "160401.276000", "160401.279000", "160401.282000", "160401.285000", "160401.288000", "160401.291000", "160401.294000", "160401.297000", "160401.299000", "160441.213000", "160441.216000", "160441.219000", "160441.222000", "160441.225000", "160441.227000", "160441.230000", "160441.233000", "160441.236000", "160441.239000", "160441.241000", "160441.244000", "160441.247000", "160441.250000", "160441.253000", "160441.256000", "160441.258000", "160441.261000", "160441.264000", "160441.267000", "160441.349000", "160441.352000", "160441.355000", "160441.357000", "160441.360000", "160441.363000", "160441.366000", "160521.214000", "160521.217000", "160521.220000", "160521.222000", "160521.225000", "160521.228000", "160521.231000", "160521.234000", "160521.241000", "160521.244000", "160521.247000", "160521.250000", "160521.253000", "160521.256000", "160521.259000", "160521.262000", "160521.265000", "160521.267000", "160521.270000", "160521.273000", "160521.276000", "160521.278000", "160521.281000", "160521.284000", "160521.287000", "160521.290000", "160521.293000", "160601.213000", "160601.216000", "160601.219000", "160601.221000", "160601.224000", "160601.227000", "160601.230000", "160601.233000", "160601.236000", "160601.238000", "160601.241000", "160601.244000", "160601.247000", "160601.250000", "160601.252000", "160601.255000", "160601.258000", "160601.261000", "160601.264000", "160601.266000", "160601.269000", "160601.272000", "160601.275000", "160601.278000", "160601.281000", "160601.283000", "160601.286000", "160641.213000", "160641.216000", "160641.219000", "160641.222000", "160641.224000", "160641.227000", "160641.230000", "160641.233000", "160641.236000", "160641.239000", "160641.241000", "160641.244000", "160641.247000", "160641.250000", "160641.253000", "160641.256000", "160641.258000", "160641.261000", "160641.264000", "160641.267000", "160641.270000", "160641.273000", "160641.275000", "160641.278000", "160641.281000", "160641.285000", "160641.288000", "160721.214000", "160721.217000", "160721.220000", "160721.223000", "160721.225000", "160721.228000", "160721.231000", "160721.234000", "160721.237000", "160721.240000", "160721.243000", "160721.245000", "160721.248000", "160721.251000", "160721.254000", "160721.257000", "160721.259000", "160721.262000", "160721.265000", "160721.268000", "160721.271000", "160721.274000", "160721.276000", "160721.279000", "160721.282000", "160721.285000", "160721.288000", "160801.214000", "160801.217000", "160801.220000", "160801.222000", "160801.225000", "160801.228000", "160801.231000", "160801.234000", "160801.237000", "160801.240000", "160801.243000", "160801.246000", "160801.249000", "160801.252000", "160801.255000", "160801.258000", "160801.260000", "160801.263000", "160801.266000", "160801.269000", "160801.272000", "160801.275000", "160801.277000", "160801.280000", "160801.283000", "160801.286000", "160841.213000", "160841.216000", "160841.219000", "160841.221000", "160841.224000", "160841.227000", "160841.230000", "160841.233000", "160841.236000", "160841.238000", "160841.241000", "160841.244000", "160841.247000", "160841.250000", "160841.253000", "160841.255000", "160841.258000", "160841.261000", "160841.264000", "160841.267000", "160841.278000", "160841.281000", "160841.283000", "160841.286000", "160841.289000", "160841.292000", "160841.295000", "160921.213000", "160921.216000", "160921.219000", "160921.221000", "160921.224000", "160921.227000", "160921.230000", "160921.233000", "160921.236000", "160921.239000", "160921.242000", "160921.244000", "160921.247000", "160921.250000", "160921.253000", "160921.256000", "160921.258000", "160921.261000", "160921.264000", "160921.267000", "160921.270000", "160921.273000", "160921.275000", "160921.278000", "160921.281000", "160921.284000", "160921.287000", "161001.214000", "161001.217000", "161001.220000", "161001.222000", "161001.225000", "161001.228000", "161001.231000", "161001.234000", "161001.237000", "161001.239000", "161001.242000", "161001.245000", "161001.248000", "161001.251000", "161001.253000", "161001.256000", "161001.259000", "161001.262000", "161001.265000", "161001.268000", "161001.270000", "161001.273000", "161001.276000", "161001.279000", "161001.282000", "161001.284000", "161001.287000", "161041.213000", "161041.216000", "161041.219000", "161041.222000", "161041.224000", "161041.227000", "161041.230000", "161041.233000", "161041.236000", "161041.239000", "161041.242000", "161041.244000", "161041.247000", "161041.250000", "161041.253000", "161041.256000", "161041.259000", "161041.261000", "161041.264000", "161041.267000", "161041.270000", "161041.273000", "161041.276000", "161041.278000", "161041.281000", "161041.284000", "161041.287000", "161051.157000", "161051.160000", "161051.163000", "161051.166000", "161051.168000", "161051.171000", "161051.174000"],
