{
  "AcquisitionMatrixPE": 104,
  "AcquisitionNumber": 1,
  "AcquisitionTime": "16:25:16.922500",
  "BandwidthPerPixelPhaseEncode": 17.17,
  "BaseResolution": 104,
  "BodyPartExamined": "BRAIN",
  "CoilCombinationMethod": "Sum of Squares",
  "ConsistencyInfo": "N4_VE11C_LATEST_20160120",
  "ConversionSoftware": "dcm2niix",
  "ConversionSoftwareVersion": "v1.0.20211006",
  "DerivedVendorReportedEchoSpacing": 0.000560011,
  "DeviceSerialNumber": "167006",
  "DwellTime": 2.1e-06,
  "EchoTime": 0.037,
  "EchoTrainLength": 104,
  "EffectiveEchoSpacing": 0.000560011,
  "FlipAngle": 52,
  "HeudiconvVersion": "0.11.3.post9+gc939bf8",
  "ImageComments": "Unaliased MB4/PE3/LB",
  "ImageOrientationPatientDICOM": [0.998165, -0.0601263, -0.00722367, 0.0552818, 0.953381, -0.296661],
  "ImageOrientationText": "Tra>Cor(-17.2)>Sag(-1.4)",
  "ImageType": [
    "ORIGINAL",
    "PRIMARY",
    "M",
    "MB",
    "ND",
    "MOSAIC"
],
  "ImagingFrequency": 123.259,
  "InPlanePhaseEncodingDirectionDICOM": "COL",
  "InstitutionAddress": "Chemin Queen-Mary 4565,Montreal,District,CA,H3W 1W5",
  "InstitutionName": "IUGM",
  "InstitutionalDepartmentName": "Department",
  "MRAcquisitionType": "2D",
  "MagneticFieldStrength": 3,
  "Manufacturer": "Siemens",
  "ManufacturersModelName": "Prisma_fit",
  "MatrixCoilMode": "SENSE",
  "Modality": "MR",
  "MultibandAccelerationFactor": 4,
  "PartialFourier": 1,
  "PatientPosition": "HFS",
  "PercentPhaseFOV": 100,
  "PercentSampling": 100,
  "PhaseEncodingDirection": "j",
  "PhaseEncodingSteps": 104,
  "PhaseResolution": 1,
  "PixelBandwidth": 2290,
  "ProcedureStepDescription": "video^friends",
  "ProtocolName": "func_task-friends-s06e20a",
  "PulseSequenceDetails": "%CustomerSeq%\\cmrr_mbep2d_bold",
  "ReceiveCoilActiveElements": "HC1-7;NC1,2",
  "ReceiveCoilName": "HeadNeck_64",
  "ReconMatrixPE": 104,
  "RepetitionTime": 1.49,
  "SAR": 0.058201,
  "ScanOptions": "FS",
  "ScanningSequence": "EP",
  "SequenceName": "epfid2d1_104",
  "SequenceVariant": "SK\\SS",
  "SeriesDescription": "func_task-friends-s06e20a",
  "SeriesNumber": 14,
  "ShimSetting": [617, -7258, -8817, 591, -15, -217, -51, -26],
  "SliceThickness": 2,
  "SliceTiming": [0, 0.785, 0.1, 0.8825, 0.1975, 0.98, 0.295, 1.08, 0.3925, 1.1775, 0.49, 1.275, 0.59, 1.3725, 0.6875, 0, 0.785, 0.1, 0.8825, 0.1975, 0.98, 0.295, 1.08, 0.3925, 1.1775, 0.49, 1.275, 0.59, 1.3725, 0.6875, 0, 0.785, 0.1, 0.8825, 0.1975, 0.98, 0.295, 1.08, 0.3925, 1.1775, 0.49, 1.275, 0.59, 1.3725, 0.6875, 0, 0.785, 0.1, 0.8825, 0.1975, 0.98, 0.295, 1.08, 0.3925, 1.1775, 0.49, 1.275, 0.59, 1.3725, 0.6875],
  "SoftwareVersions": "syngo MR E11",
  "SpacingBetweenSlices": 2,
  "StationName": "MRC35049",
  "TaskName": "s06e20a",
  "TotalReadoutTime": 0.0576811,
  "TxRefAmp": 277.378,
  "WipMemBlock": "79c597f3-4095-4335-b141-16d01cffa27b||Sequence: R016 ve11c/master r/e634e98; Dec 19 2017 11:00:25 by eja",
  "dcmmeta_affine": [
    [-1.9963293075561523, 0.11056353151798248, -0.049448125064373016, 97.95260620117188],
    [0.1202525943517685, 1.9067625999450684, -0.5914351940155029, -83.1767578125],
    [-0.014447337947785854, 0.5933228135108948, 1.909910798072815, -60.693153381347656],
    [0.0, 0.0, 0.0, 1.0]
],
  "dcmmeta_reorient_transform": [
    [0.0, -1.0, 0.0, 103.0],
    [1.0, 0.0, 0.0, 0.0],
    [0.0, 0.0, 1.0, 0.0],
    [0.0, 0.0, 0.0, 1.0]
],
  "dcmmeta_shape": [104, 104, 60, 431],
  "dcmmeta_slice_dim": 2,
  "dcmmeta_version": 0.6,
  "global": {
    "const": {
      "AcquisitionMatrix": [104, 0, 0, 104],
      "AngioFlag": "N",
      "BitsAllocated": 16,
      "BitsStored": 16,
      "BodyPartExamined": "BRAIN",
      "Columns": 832,
      "EchoNumbers": 1,
      "EchoTime": 37.0,
      "EchoTrainLength": 104,
      "FlipAngle": 52.0,
      "HighBit": 15,
      "ImageOrientationPatient": [0.99816463924732, -0.0601262967641, -0.0072236689921, 0.05528176629319, 0.95338131849199, -0.2966614027237],
      "ImagePositionPatient": [-876.24963004154, -763.50944997396, 221.6474278853],
      "ImageType": [
        "ORIGINAL",
        "PRIMARY",
        "M",
        "MB",
        "ND",
        "MOSAIC"
],
      "ImagedNucleus": "1H",
      "ImagingFrequency": 123.258785,
      "InPlanePhaseEncodingDirection": "COL",
      "MRAcquisitionType": "2D",
      "MagneticFieldStrength": 3.0,
      "Manufacturer": "SIEMENS",
      "ManufacturerModelName": "Prisma_fit",
      "Modality": "MR",
      "NumberOfAverages": 1.0,
      "NumberOfPhaseEncodingSteps": 104,
      "PercentPhaseFieldOfView": 100.0,
      "PercentSampling": 100.0,
      "PerformedProcedureStepStartTime": "141339.647000",
      "PhotometricInterpretation": "MONOCHROME2",
      "PixelBandwidth": 2290.0,
      "PixelRepresentation": 0,
      "PixelSpacing": [2.0, 2.0],
      "ProtocolName": "func_task-friends-s06e20a",
      "RepetitionTime": 1490.0,
      "Rows": 832,
      "SAR": 0.05820096071502,
      "SamplesPerPixel": 1,
      "ScanOptions": "FS",
      "ScanningSequence": "EP",
      "SequenceName": "epfid2d1_104",
      "SequenceVariant": [
        "SK",
        "SS"
],
      "SeriesDescription": "func_task-friends-s06e20a",
      "SeriesNumber": 14,
      "SeriesTime": "162629.687000",
      "SliceLocation": -35.784211399517,
      "SliceThickness": 2.0,
      "SmallestImagePixelValue": 0,
      "SoftwareVersions": "syngo MR E11",
      "SpacingBetweenSlices": 2.0000000023339,
      "SpecificCharacterSet": "ISO_IR 100",
      "StudyID": "1",
      "StudyTime": "141339.562000",
      "TransmitCoilName": "Body",
      "VariableFlipAngleFlag": "N",
      "WindowCenterWidthExplanation": "Algo1",
      "dBdt": 0.0},
    "slices": {}
  },
  "time": {
    "samples": {
      "AcquisitionNumber": [1, 2, 3, 4, 5, 6, 7, 8, 9, 10, 11, 12, 13, 14, 15, 16, 17, 18, 19, 20, 21, 22, 23, 24, 25, 26, 27, 28, 29, 30, 31, 32, 33, 34, 35, 36, 37, 38, 39, 40, 41, 42, 43, 44, 45, 46, 47, 48, 49, 50, 51, 52, 53, 54, 55, 56, 57, 58, 59, 60, 61, 62, 63, 64, 65, 66, 67, 68, 69, 70, 71, 72, 73, 74, 75, 76, 77, 78, 79, 80, 81, 82, 83, 84, 85, 86, 87, 88, 89, 90, 91, 92, 93, 94, 95, 96, 97, 98, 99, 100, 101, 102, 103, 104, 105, 106, 107, 108, 109, 110, 111, 112, 113, 114, 115, 116, 117, 118, 119, 120, 121, 122, 123, 124, 125, 126, 127, 128, 129, 130, 131, 132, 133, 134, 135, 136, 137, 138, 139, 140, 141, 142, 143, 144, 145, 146, 147, 148, 149, 150, 151, 152, 153, 154, 155, 156, 157, 158, 159, 160, 161, 162, 163, 164, 165, 166, 167, 168, 169, 170, 171, 172, 173, 174, 175, 176, 177, 178, 179, 180, 181, 182, 183, 184, 185, 186, 187, 188, 189, 190, 191, 192, 193, 194, 195, 196, 197, 198, 199, 200, 201, 202, 203, 204, 205, 206, 207, 208, 209, 210, 211, 212, 213, 214, 215, 216, 217, 218, 219, 220, 221, 222, 223, 224, 225, 226, 227, 228, 229, 230, 231, 232, 233, 234, 235, 236, 237, 238, 239, 240, 241, 242, 243, 244, 245, 246, 247, 248, 249, 250, 251, 252, 253, 254, 255, 256, 257, 258, 259, 260, 261, 262, 263, 264, 265, 266, 267, 268, 269, 270, 271, 272, 273, 274, 275, 276, 277, 278, 279, 280, 281, 282, 283, 284, 285, 286, 287, 288, 289, 290, 291, 292, 293, 294, 295, 296, 297, 298, 299, 300, 301, 302, 303, 304, 305, 306, 307, 308, 309, 310, 311, 312, 313, 314, 315, 316, 317, 318, 319, 320, 321, 322, 323, 324, 325, 326, 327, 328, 329, 330, 331, 332, 333, 334, 335, 336, 337, 338, 339, 340, 341, 342, 343, 344, 345, 346, 347, 348, 349, 350, 351, 352, 353, 354, 355, 356, 357, 358, 359, 360, 361, 362, 363, 364, 365, 366, 367, 368, 369, 370, 371, 372, 373, 374, 375, 376, 377, 378, 379, 380, 381, 382, 383, 384, 385, 386, 387, 388, 389, 390, 391, 392, 393, 394, 395, 396, 397, 398, 399, 400, 401, 402, 403, 404, 405, 406, 407, 408, 409, 410, 411, 412, 413, 414, 415, 416, 417, 418, 419, 420, 421, 422, 423, 424, 425, 426, 427, 428, 429, 430, 431],
      "AcquisitionTime": ["162516.922500", "162518.412500", "162519.902500", "162521.392500", "162522.882500", "162524.372500", "162525.862500", "162527.352500", "162528.842500", "162530.332500", "162531.822500", "162533.312500", "162534.802500", "162536.292500", "162537.782500", "162539.272500", "162540.762500", "162542.252500", "162543.742500", "162545.232500", "162546.722500", "162548.212500", "162549.702500", "162551.192500", "162552.682500", "162554.172500", "162555.662500", "162557.152500", "162558.642500", "162600.132500", "162601.622500", "162603.112500", "162604.602500", "162606.092500", "162607.582500", "162609.072500", "162610.562500", "162612.052500", "162613.542500", "162615.032500", "162616.522500", "162618.012500", "162619.502500", "162620.992500", "162622.482500", "162623.972500", "162625.462500", "162626.952500", "162628.442500", "162629.932500", "162631.422500", "162632.912500", "162634.402500", "162635.892500", "162637.382500", "162638.872500", "162640.362500", "162641.852500", "162643.342500", "162644.832500", "162646.322500", "162647.812500", "162649.302500", "162650.792500", "162652.282500", "162653.772500", "162655.262500", "162656.752500", "162658.242500", "162659.732500", "162701.222500", "162702.712500", "162704.202500", "162705.692500", "162707.182500", "162708.672500", "162710.162500", "162711.652500", "162713.142500", "162714.632500", "162716.122500", "162717.612500", "162719.102500", "162720.592500", "162722.082500", "162723.572500", "162725.062500", "162726.552500", "162728.042500", "162729.532500", "162731.022500", "162732.512500", "162734.002500", "162735.492500", "162736.982500", "162738.472500", "162739.962500", "162741.452500", "162742.942500", "162744.432500", "162745.922500", "162747.412500", "162748.902500", "162750.392500", "162751.882500", "162753.372500", "162754.862500", "162756.352500", "162757.842500", "162759.332500", "162800.822500", "162802.312500", "162803.802500", "162805.292500", "162806.782500", "162808.272500", "162809.762500", "162811.252500", "162812.742500", "162814.232500", "162815.722500", "162817.212500", "162818.702500", "162820.192500", "162821.682500", "162823.172500", "162824.662500", "162826.152500", "162827.642500", "162829.132500", "162830.622500", "162832.112500", "162833.602500", "162835.092500", "162836.582500", "162838.072500", "162839.562500", "162841.052500", "162842.542500", "162844.032500", "162845.522500", "162847.012500", "162848.502500", "162849.992500", "162851.482500", "162852.972500", "162854.462500", "162855.952500", "162857.442500", "162858.932500", "162900.422500", "162901.912500", "162903.402500", "162904.892500", "162906.382500", "162907.872500", "162909.362500", "162910.852500", "162912.342500", "162913.832500", "162915.322500", "162916.812500", "162918.302500", "162919.792500", "162921.282500", "162922.772500", "162924.262500", "162925.752500", "162927.242500", "162928.732500", "162930.222500", "162931.712500", "162933.202500", "162934.692500", "162936.182500", "162937.672500", "162939.162500", "162940.652500", "162942.142500", "162943.632500", "162945.122500", "162946.612500", "162948.102500", "162949.592500", "162951.082500", "162952.572500", "162954.062500", "162955.552500", "162957.042500", "162958.532500", "163000.022500", "163001.512500", "163003.002500", "163004.492500", "163005.982500", "163007.472500", "163008.962500", "163010.452500", "163011.942500", "163013.432500", "163014.922500", "163016.412500", "163017.902500", "163019.392500", "163020.882500", "163022.372500", "163023.862500", "163025.352500", "163026.842500", "163028.332500", "163029.822500", "163031.312500", "163032.802500", "163034.292500", "163035.782500", "163037.272500", "163038.762500", "163040.252500", "163041.742500", "163043.232500", "163044.722500", "163046.212500", "163047.702500", "163049.192500", "163050.682500", "163052.172500", "163053.662500", "163055.152500", "163056.642500", "163058.132500", "163059.622500", "163101.112500", "163102.602500", "163104.092500", "163105.582500", "163107.072500", "163108.562500", "163110.052500", "163111.542500", "163113.032500", "163114.522500", "163116.012500", "163117.502500", "163118.992500", "163120.482500", "163121.972500", "163123.462500", "163124.952500", "163126.442500", "163127.932500", "163129.422500", "163130.912500", "163132.402500", "163133.892500", "163135.382500", "163136.872500", "163138.362500", "163139.852500", "163141.342500", "163142.832500", "163144.322500", "163145.812500", "163147.302500", "163148.792500", "163150.282500", "163151.772500", "163153.262500", "163154.752500", "163156.242500", "163157.732500", "163159.222500", "163200.712500", "163202.202500", "163203.692500", "163205.182500", "163206.672500", "163208.162500", "163209.652500", "163211.142500", "163212.632500", "163214.122500", "163215.612500", "163217.102500", "163218.592500", "163220.082500", "163221.572500", "163223.062500", "163224.552500", "163226.042500", "163227.532500", "163229.022500", "163230.512500", "163232.002500", "163233.492500", "163234.982500", "163236.472500", "163237.962500", "163239.452500", "163240.942500", "163242.432500", "163243.922500", "163245.412500", "163246.902500", "163248.392500", "163249.882500", "163251.372500", "163252.862500", "163254.352500", "163255.842500", "163257.332500", "163258.822500", "163300.312500", "163301.802500", "163303.292500", "163304.782500", "163306.272500", "163307.762500", "163309.252500", "163310.742500", "163312.232500", "163313.722500", "163315.212500", "163316.702500", "163318.192500", "163319.682500", "163321.172500", "163322.662500", "163324.152500", "163325.642500", "163327.132500", "163328.622500", "163330.112500", "163331.602500", "163333.092500", "163334.582500", "163336.072500", "163337.562500", "163339.052500", "163340.542500", "163342.032500", "163343.522500", "163345.012500", "163346.502500", "163347.992500", "163349.482500", "163350.972500", "163352.462500", "163353.952500", "163355.442500", "163356.932500", "163358.422500", "163359.912500", "163401.402500", "163402.892500", "163404.382500", "163405.872500", "163407.362500", "163408.852500", "163410.342500", "163411.832500", "163413.322500", "163414.812500", "163416.302500", "163417.792500", "163419.282500", "163420.772500", "163422.262500", "163423.752500", "163425.242500", "163426.732500", "163428.222500", "163429.712500", "163431.202500", "163432.692500", "163434.182500", "163435.672500", "163437.162500", "163438.652500", "163440.142500", "163441.632500", "163443.122500", "163444.612500", "163446.102500", "163447.592500", "163449.082500", "163450.572500", "163452.062500", "163453.552500", "163455.042500", "163456.532500", "163458.022500", "163459.512500", "163501.002500", "163502.492500", "163503.982500", "163505.472500", "163506.962500", "163508.452500", "163509.942500", "163511.432500", "163512.922500", "163514.412500", "163515.902500", "163517.392500", "163518.882500", "163520.372500", "163521.862500", "163523.352500", "163524.842500", "163526.332500", "163527.822500", "163529.312500", "163530.802500", "163532.292500", "163533.782500", "163535.272500", "163536.762500", "163538.252500", "163539.742500", "163541.232500", "163542.722500", "163544.212500", "163545.702500", "163547.192500", "163548.682500", "163550.172500", "163551.662500", "163553.152500", "163554.642500", "163556.132500", "163557.622500"],
      "ContentTime": ["162629.690000", "162629.693000", "162629.696000", "162629.699000", "162629.702000", "162629.704000", "162629.707000", "162629.710000", "162629.713000", "162629.716000", "162629.718000", "162629.721000", "162629.724000", "162629.727000", "162629.730000", "162629.732000", "162629.736000", "162629.739000", "162629.742000", "162629.745000", "162649.648000", "162649.651000", "162649.654000", "162649.656000", "162649.659000", "162649.662000", "162649.665000", "162649.668000", "162649.671000", "162649.674000", "162649.676000", "162649.679000", "162649.682000", "162649.685000", "162649.688000", "162649.690000", "162649.693000", "162649.696000", "162649.699000", "162649.702000", "162709.648000", "162709.651000", "162709.654000", "162709.656000", "162709.659000", "162709.662000", "162709.665000", "162709.668000", "162709.670000", "162709.673000", "162709.676000", "162709.679000", "162709.682000", "162709.685000", "162709.687000", "162709.690000", "162709.693000", "162709.696000", "162709.699000", "162709.701000", "162729.648000", "162729.651000", "162729.654000", "162729.657000", "162729.660000", "162729.662000", "162729.665000", "162729.668000", "162729.671000", "162729.673000", "162729.676000", "162729.679000", "162729.682000", "162729.685000", "162729.687000", "162729.690000", "162729.693000", "162729.697000", "162729.699000", "162729.702000", "162749.648000", "162749.651000", "162749.654000", "162749.656000", "162749.659000", "162749.662000", "162749.669000", "162749.671000", "162749.674000", "162749.677000", "162749.680000", "162749.683000", "162749.686000", "162749.689000", "162749.691000", "162749.694000", "162749.697000", "162749.700000", "162749.703000", "162749.705000", "162749.708000", "162829.648000", "162829.651000", "162829.654000", "162829.657000", "162829.659000", "162829.662000", "162829.665000", "162829.668000", "162829.671000", "162829.674000", "162829.677000", "162829.679000", "162829.682000", "162829.685000", "162829.688000", "162829.691000", "162829.694000", "162829.696000", "162829.699000", "162829.702000", "162829.705000", "162829.707000", "162829.710000", "162829.713000", "162829.716000", "162829.719000", "162829.722000", "162909.648000", "162909.651000", "162909.654000", "162909.656000", "162909.659000", "162909.662000", "162909.665000", "162909.668000", "162909.671000", "162909.673000", "162909.676000", "162909.679000", "162909.682000", "162909.685000", "162909.702000", "162909.705000", "162909.707000", "162909.710000", "162909.713000", "162909.716000", "162909.719000", "162909.721000", "162909.724000", "162909.727000", "162909.730000", "162909.733000", "162909.735000", "162949.648000", "162949.651000", "162949.654000", "162949.656000", "162949.659000", "162949.662000", "162949.665000", "162949.668000", "162949.670000", "162949.673000", "162949.676000", "162949.679000", "162949.682000", "162949.685000", "162949.687000", "162949.690000", "162949.693000", "162949.696000", "162949.699000", "162949.702000", "162949.704000", "162949.707000", "162949.710000", "162949.713000", "162949.716000", "162949.718000", "162949.721000", "163029.648000", "163029.651000", "163029.654000", "163029.657000", "163029.659000", "163029.662000", "163029.665000", "163029.668000", "163029.671000", "163029.673000", "163029.676000", "163029.679000", "163029.682000", "163029.685000", "163029.687000", "163029.690000", "163029.693000", "163029.696000", "163029.699000", "163029.701000", "163029.704000", "163029.707000", "163029.710000", "163029.713000", "163029.716000", "163029.719000", "163029.722000", "163109.648000", "163109.651000", "163109.654000", "163109.657000", "163109.659000", "163109.662000", "163109.665000", "163109.668000", "163109.671000", "163109.673000", "163109.676000", "163109.679000", "163109.682000", "163109.685000", "163109.688000", "163109.690000", "163109.693000", "163109.696000", "163109.699000", "163109.702000", "163109.704000", "163109.707000", "163109.710000", "163109.713000", "163109.716000", "163109.719000", "163109.721000", "163149.648000", "163149.651000", "163149.654000", "163149.656000", "163149.659000", "163149.662000", "163149.665000", "163149.668000", "163149.671000", "163149.673000", "163149.676000", "163149.679000", "163149.682000", "163149.685000", "163149.687000", "163149.690000", "163149.693000", "163149.696000", "163149.706000", "163149.708000", "163149.711000", "163149.714000", "163149.717000", "163149.720000", "163149.723000", "163149.726000", "163149.728000", "163209.648000", "163209.651000", "163209.654000", "163209.656000", "163209.659000", "163209.662000", "163209.665000", "163209.668000", "163209.670000", "163209.673000", "163209.676000", "163209.679000", "163209.682000", "163249.648000", "163249.651000", "163249.654000", "163249.657000", "163249.659000", "163249.662000", "163249.665000", "163249.668000", "163249.671000", "163249.673000", "163249.676000", "163249.679000", "163249.682000", "163249.685000", "163249.688000", "163249.690000", "163249.693000", "163249.696000", "163249.699000", "163249.702000", "163249.705000", "163249.707000", "163249.710000", "163249.713000", "163249.716000", "163249.719000", "163249.722000", "163329.648000", "163329.651000", "163329.654000", "163329.656000", "163329.659000", "163329.662000", "163329.665000", "163329.668000", "163329.670000", "163329.673000", "163329.676000", "163329.679000", "163329.682000", "163329.685000", "163329.687000", "163329.690000", "163329.693000", "163329.696000", "163329.705000", "163329.708000", "163329.711000", "163329.714000", "163329.717000", "163329.720000", "163329.722000", "163329.725000", "163329.728000", "163409.648000", "163409.651000", "163409.654000", "163409.656000", "163409.659000", "163409.662000", "163409.665000", "163409.668000", "163409.671000", "163409.674000", "163409.676000", "163409.679000", "163409.682000", "163409.685000", "163409.688000", "163409.691000", "163409.693000", "163409.696000", "163409.699000", "163409.702000", "163409.705000", "163409.707000", "163409.710000", "163409.713000", "163409.716000", "163409.719000", "163409.722000", "163449.648000", "163449.651000", "163449.654000", "163449.656000", "163449.659000", "163449.662000", "163449.665000", "163449.668000", "163449.671000", "163449.675000", "163449.678000", "163449.680000", "163449.683000", "163449.686000", "163449.689000", "163449.692000", "163449.694000", "163449.697000", "163449.700000", "163449.703000", "163449.706000", "163449.709000", "163449.711000", "163449.714000", "163449.717000", "163449.720000", "163529.648000", "163529.651000", "163529.654000", "163529.657000", "163529.659000", "163529.662000", "163529.665000", "163529.668000", "163529.671000", "163529.673000", "163529.676000", "163529.679000", "163529.682000", "163529.685000", "163529.688000", "163529.690000", "163529.693000", "163529.696000", "163529.699000", "163529.702000", "163529.704000", "163529.707000", "163529.710000", "163529.713000", "163529.716000", "163529.719000", "163529.721000", "163559.893000", "163559.896000", "163559.899000", "163559.902000", "163559.905000", "163559.908000", "163559.911000", "163559.914000", "163559.917000", "163559.920000", "163559.923000", "163559.926000", "163559.929000", "163559.932000", "163559.935000", "163559.938000", "163559.941000", "163559.943000", "163559.946000", "163559.949000", "163559.952000"],
      "InstanceCreationTime": ["162629.690000", "162629.693000", "162629.696000", "162629.699000", "162629.702000", "162629.704000", "162629.707000", "162629.710000", "162629.713000", "162629.716000", "162629.718000", "162629.721000", "162629.724000", "162629.727000", "162629.730000", "162629.732000", "162629.736000", "162629.739000", "162629.742000", "162629.745000", "162649.648000", "162649.651000", "162649.654000", "162649.656000", "162649.659000", "162649.662000", "162649.665000", "162649.668000", "162649.671000", "162649.674000", "162649.676000", "162649.679000", "162649.682000", "162649.685000", "162649.688000", "162649.690000", "162649.693000", "162649.696000", "162649.699000", "162649.702000", "162709.648000", "162709.651000", "162709.654000", "162709.656000", "162709.659000", "162709.662000", "162709.665000", "162709.668000", "162709.670000", "162709.673000", "162709.676000", "162709.679000", "162709.682000", "162709.685000", "162709.687000", "162709.690000", "162709.693000", "162709.696000", "162709.699000", "162709.701000", "162729.648000", "162729.651000", "162729.654000", "162729.657000", "162729.660000", "162729.662000", "162729.665000", "162729.668000", "162729.671000", "162729.673000", "162729.676000", "162729.679000", "162729.682000", "162729.685000", "162729.687000", "162729.690000", "162729.693000", "162729.697000", "162729.699000", "162729.702000", "162749.648000", "162749.651000", "162749.654000", "162749.656000", "162749.659000", "162749.662000", "162749.669000", "162749.671000", "162749.674000", "162749.677000", "162749.680000", "162749.683000", "162749.686000", "162749.689000", "162749.691000", "162749.694000", "162749.697000", "162749.700000", "162749.703000", "162749.705000", "162749.708000", "162829.648000", "162829.651000", "162829.654000", "162829.657000", "162829.659000", "162829.662000", "162829.665000", "162829.668000", "162829.671000", "162829.674000", "162829.677000", "162829.679000", "162829.682000", "162829.685000", "162829.688000", "162829.691000", "162829.694000", "162829.696000", "162829.699000", "162829.702000", "162829.705000", "162829.707000", "162829.710000", "162829.713000", "162829.716000", "162829.719000", "162829.722000", "162909.648000", "162909.651000", "162909.654000", "162909.656000", "162909.659000", "162909.662000", "162909.665000", "162909.668000", "162909.671000", "162909.673000", "162909.676000", "162909.679000", "162909.682000", "162909.685000", "162909.702000", "162909.705000", "162909.707000", "162909.710000", "162909.713000", "162909.716000", "162909.719000", "162909.721000", "162909.724000", "162909.727000", "162909.730000", "162909.733000", "162909.735000", "162949.648000", "162949.651000", "162949.654000", "162949.656000", "162949.659000", "162949.662000", "162949.665000", "162949.668000", "162949.670000", "162949.673000", "162949.676000", "162949.679000", "162949.682000", "162949.685000", "162949.687000", "162949.690000", "162949.693000", "162949.696000", "162949.699000", "162949.702000", "162949.704000", "162949.707000", "162949.710000", "162949.713000", "162949.716000", "162949.718000", "162949.721000", "163029.648000", "163029.651000", "163029.654000", "163029.657000", "163029.659000", "163029.662000", "163029.665000", "163029.668000", "163029.671000", "163029.673000", "163029.676000", "163029.679000", "163029.682000", "163029.685000", "163029.687000", "163029.690000", "163029.693000", "163029.696000", "163029.699000", "163029.701000", "163029.704000", "163029.707000", "163029.710000", "163029.713000", "163029.716000", "163029.719000", "163029.722000", "163109.648000", "163109.651000", "163109.654000", "163109.657000", "163109.659000", "163109.662000", "163109.665000", "163109.668000", "163109.671000", "163109.673000", "163109.676000", "163109.679000", "163109.682000", "163109.685000", "163109.688000", "163109.690000", "163109.693000", "163109.696000", "163109.699000", "163109.702000", "163109.704000", "163109.707000", "163109.710000", "163109.713000", "163109.716000", "163109.719000", "163109.721000", "163149.648000", "163149.651000", "163149.654000", "163149.656000", "163149.659000", "163149.662000", "163149.665000", "163149.668000", "163149.671000", "163149.673000", "163149.676000", "163149.679000", "163149.682000", "163149.685000", "163149.687000", "163149.690000", "163149.693000", "163149.696000", "163149.706000", "163149.708000", "163149.711000", "163149.714000", "163149.717000", "163149.720000", "163149.723000", "163149.726000", "163149.728000", "163209.648000", "163209.651000", "163209.654000", "163209.656000", "163209.659000", "163209.662000", "163209.665000", "163209.668000", "163209.670000", "163209.673000", "163209.676000", "163209.679000", "163209.682000", "163249.648000", "163249.651000", "163249.654000", "163249.657000", "163249.659000", "163249.662000", "163249.665000", "163249.668000", "163249.671000", "163249.673000", "163249.676000", "163249.679000", "163249.682000", "163249.685000", "163249.688000", "163249.690000", "163249.693000", "163249.696000", "163249.699000", "163249.702000", "163249.705000", "163249.707000", "163249.710000", "163249.713000", "163249.716000", "163249.719000", "163249.722000", "163329.648000", "163329.651000", "163329.654000", "163329.656000", "163329.659000", "163329.662000", "163329.665000", "163329.668000", "163329.670000", "163329.673000", "163329.676000", "163329.679000", "163329.682000", "163329.685000", "163329.687000", "163329.690000", "163329.693000", "163329.696000", "163329.705000", "163329.708000", "163329.711000", "163329.714000", "163329.717000", "163329.720000", "163329.722000", "163329.725000", "163329.728000", "163409.648000", "163409.651000", "163409.654000", "163409.656000", "163409.659000", "163409.662000", "163409.665000", "163409.668000", "163409.671000", "163409.674000", "163409.676000", "163409.679000", "163409.682000", "163409.685000", "163409.688000", "163409.691000", "163409.693000", "163409.696000", "163409.699000", "163409.702000", "163409.705000", "163409.707000", "163409.710000", "163409.713000", "163409.716000", "163409.719000", "163409.722000", "163449.648000", "163449.651000", "163449.654000", "163449.656000", "163449.659000", "163449.662000", "163449.665000", "163449.668000", "163449.671000", "163449.675000", "163449.678000", "163449.680000", "163449.683000", "163449.686000", "163449.689000", "163449.692000", "163449.694000", "163449.697000", "163449.700000", "163449.703000", "163449.706000", "163449.709000", "163449.711000", "163449.714000", "163449.717000", "163449.720000", "163529.648000", "163529.651000", "163529.654000", "163529.657000", "163529.659000", "163529.662000", "163529.665000", "163529.668000", "163529.671000", "163529.673000", "163529.676000", "163529.679000", "163529.682000", "163529.685000", "163529.688000", "163529.690000", "163529.693000", "163529.696000", "163529.699000", "163529.702000", "163529.704000", "163529.707000", "163529.710000", "163529.713000", "163529.716000", "163529.719000", "163529.721000", "163559.893000", "163559.896000", "163559.899000", "163559.902000", "163559.905000", "163559.908000", "163559.911000", "163559.914000", "163559.917000", "163559.920000", "163559.923000", "163559.926000", "163559.929000", "163559.932000", "163559.935000", "163559.938000", "163559.941000", "163559.943000", "163559.946000", "163559.949000", "163559.952000"],
