{
  "AcquisitionMatrixPE": 104,
  "AcquisitionNumber": 1,
  "AcquisitionTime": "17:49:33.572500",
  "BandwidthPerPixelPhaseEncode": 17.17,
  "BaseResolution": 104,
  "BodyPartExamined": "BRAIN",
  "CoilString": "HC1-7;NC1_2",
  "ConsistencyInfo": "N4_VE11C_LATEST_20160120",
  "ConversionSoftware": "dcm2niix",
  "ConversionSoftwareVersion": "v1.0.20190902",
  "DerivedVendorReportedEchoSpacing": 0.000560011,
  "DeviceSerialNumber": "167006",
  "DwellTime": 2.1e-06,
  "EchoTime": 0.037,
  "EchoTrainLength": 104,
  "EffectiveEchoSpacing": 0.000560011,
  "FlipAngle": 52,
  "ImageComments": "Unaliased_MB4_PE3_LB",
  "ImageOrientationPatientDICOM": [0.999928, 0.00812148, -0.00879811, -0.00994802, 0.972432, -0.232973],
  "ImageType": [
    "ORIGINAL",
    "PRIMARY",
    "M",
    "MB",
    "ND",
    "MOSAIC"
],
  "ImagingFrequency": 123.259,
  "InPlanePhaseEncodingDirectionDICOM": "COL",
  "InstitutionAddress": "Chemin_Queen-Mary_4565_Montreal_District_CA_H3W_1W5",
  "InstitutionName": "IUGM",
  "InstitutionalDepartmentName": "Department",
  "MRAcquisitionType": "2D",
  "MagneticFieldStrength": 3,
  "Manufacturer": "Siemens",
  "ManufacturersModelName": "Prisma_fit",
  "Modality": "MR",
  "MultibandAccelerationFactor": 4,
  "PartialFourier": 1,
  "PatientPosition": "HFS",
  "PercentPhaseFOV": 100,
  "PhaseEncodingDirection": "j",
  "PhaseEncodingSteps": 104,
  "PhaseResolution": 1,
  "PixelBandwidth": 2290,
  "ProcedureStepDescription": "video_friends",
  "ProtocolName": "func_task-friends-s04e11a",
  "PulseSequenceDetails": "%CustomerSeq%_cmrr_mbep2d_bold",
  "ReceiveCoilActiveElements": "HC1-7;NC1,2",
  "ReceiveCoilName": "HeadNeck_64",
  "ReconMatrixPE": 104,
  "RepetitionTime": 1.49,
  "SAR": 0.0286065,
  "ScanOptions": "FS",
  "ScanningSequence": "EP",
  "SequenceName": "epfid2d1_104",
  "SequenceVariant": "SK_SS",
  "SeriesDescription": "func_task-friends-s04e11a",
  "SeriesNumber": 13,
  "ShimSetting": [631, -7228, -8748, 716, 50, -22, 101, -1],
  "SliceThickness": 2,
  "SliceTiming": [0, 0.785, 0.0975, 0.8825, 0.1975, 0.98, 0.295, 1.0775, 0.3925, 1.1775, 0.49, 1.275, 0.5875, 1.3725, 0.6875, 0, 0.785, 0.0975, 0.8825, 0.1975, 0.98, 0.295, 1.0775, 0.3925, 1.1775, 0.49, 1.275, 0.5875, 1.3725, 0.6875, 0, 0.785, 0.0975, 0.8825, 0.1975, 0.98, 0.295, 1.0775, 0.3925, 1.1775, 0.49, 1.275, 0.5875, 1.3725, 0.6875, 0, 0.785, 0.0975, 0.8825, 0.1975, 0.98, 0.295, 1.0775, 0.3925, 1.1775, 0.49, 1.275, 0.5875, 1.3725, 0.6875],
  "SoftwareVersions": "syngo_MR_E11",
  "SpacingBetweenSlices": 2,
  "StationName": "MRC35049",
  "TaskName": "s04e11a",
  "TotalReadoutTime": 0.0576811,
  "TxRefAmp": 205.356,
  "WipMemBlock": "f19782b2-1aeb-4025-ab76-72fc4f9a372e||Sequence: R016 ve11c/master r/e634e98; Dec 19 2017 11:00:25 by eja",
  "dcmmeta_affine": [
    [-1.9998565912246704, -0.01989603601396084, -0.01332696434110403, 106.5234603881836],
    [-0.016242951154708862, 1.9448647499084473, -0.4660870432853699, -84.78700256347656],
    [-0.017596213147044182, 0.46594539284706116, 1.9448869228363037, -46.80524444580078],
    [0.0, 0.0, 0.0, 1.0]
],
  "dcmmeta_reorient_transform": [
    [0.0, -1.0, 0.0, 103.0],
    [1.0, 0.0, 0.0, 0.0],
    [0.0, 0.0, 1.0, 0.0],
    [0.0, 0.0, 0.0, 1.0]
],
  "dcmmeta_shape": [104, 104, 60, 483],
  "dcmmeta_slice_dim": 2,
  "dcmmeta_version": 0.6,
  "global": {
    "const": {
      "AcquisitionMatrix": [104, 0, 0, 104],
      "AngioFlag": "N",
      "BitsAllocated": 16,
      "BitsStored": 16,
      "BodyPartExamined": "BRAIN",
      "Columns": 832,
      "EchoNumbers": 1,
      "EchoTime": 37.0,
      "EchoTrainLength": 104,
      "FlipAngle": 52.0,
      "HighBit": 15,
      "ImageOrientationPatient": [0.99992831490415, 0.00812147559458, -0.0087981070184, -0.009948017827, 0.97243239207721, -0.2329727017921],
      "ImagePositionPatient": [-825.17982630731, -829.37728782023, 177.19627977294],
      "ImageType": [
        "ORIGINAL",
        "PRIMARY",
        "M",
        "MB",
        "ND",
        "MOSAIC"
],
      "ImagedNucleus": "1H",
      "ImagingFrequency": 123.259031,
      "InPlanePhaseEncodingDirection": "COL",
      "MRAcquisitionType": "2D",
      "MagneticFieldStrength": 3.0,
      "Manufacturer": "SIEMENS",
      "ManufacturerModelName": "Prisma_fit",
      "Modality": "MR",
      "NumberOfAverages": 1.0,
      "NumberOfPhaseEncodingSteps": 104,
      "PercentPhaseFieldOfView": 100.0,
      "PercentSampling": 100.0,
      "PerformedProcedureStepStartTime": "165809.826000",
      "PhotometricInterpretation": "MONOCHROME2",
      "PixelBandwidth": 2290.0,
      "PixelRepresentation": 0,
      "PixelSpacing": [2.0, 2.0],
      "ProtocolName": "func_task-friends-s04e11a",
      "RepetitionTime": 1490.0,
      "Rows": 832,
      "SAR": 0.02860645591623,
      "SamplesPerPixel": 1,
      "ScanOptions": "FS",
      "ScanningSequence": "EP",
      "SequenceName": "epfid2d1_104",
      "SequenceVariant": [
        "SK",
        "SS"
],
      "SeriesDescription": "func_task-friends-s04e11a",
      "SeriesNumber": 13,
      "SeriesTime": "175058.283000",
      "SliceLocation": -26.466211425404,
      "SliceThickness": 2.0,
      "SmallestImagePixelValue": 0,
      "SoftwareVersions": "syngo MR E11",
      "SpacingBetweenSlices": 2.0000000156297,
      "SpecificCharacterSet": "ISO_IR 100",
      "StudyID": "1",
      "StudyTime": "165809.758000",
      "TransmitCoilName": "Body",
      "VariableFlipAngleFlag": "N",
      "WindowCenterWidthExplanation": "Algo1",
      "dBdt": 0.0},
    "slices": {}
  },
  "time": {
    "samples": {
      "AcquisitionNumber": [1, 2, 3, 4, 5, 6, 7, 8, 9, 10, 11, 12, 13, 14, 15, 16, 17, 18, 19, 20, 21, 22, 23, 24, 25, 26, 27, 28, 29, 30, 31, 32, 33, 34, 35, 36, 37, 38, 39, 40, 41, 42, 43, 44, 45, 46, 47, 48, 49, 50, 51, 52, 53, 54, 55, 56, 57, 58, 59, 60, 61, 62, 63, 64, 65, 66, 67, 68, 69, 70, 71, 72, 73, 74, 75, 76, 77, 78, 79, 80, 81, 82, 83, 84, 85, 86, 87, 88, 89, 90, 91, 92, 93, 94, 95, 96, 97, 98, 99, 100, 101, 102, 103, 104, 105, 106, 107, 108, 109, 110, 111, 112, 113, 114, 115, 116, 117, 118, 119, 120, 121, 122, 123, 124, 125, 126, 127, 128, 129, 130, 131, 132, 133, 134, 135, 136, 137, 138, 139, 140, 141, 142, 143, 144, 145, 146, 147, 148, 149, 150, 151, 152, 153, 154, 155, 156, 157, 158, 159, 160, 161, 162, 163, 164, 165, 166, 167, 168, 169, 170, 171, 172, 173, 174, 175, 176, 177, 178, 179, 180, 181, 182, 183, 184, 185, 186, 187, 188, 189, 190, 191, 192, 193, 194, 195, 196, 197, 198, 199, 200, 201, 202, 203, 204, 205, 206, 207, 208, 209, 210, 211, 212, 213, 214, 215, 216, 217, 218, 219, 220, 221, 222, 223, 224, 225, 226, 227, 228, 229, 230, 231, 232, 233, 234, 235, 236, 237, 238, 239, 240, 241, 242, 243, 244, 245, 246, 247, 248, 249, 250, 251, 252, 253, 254, 255, 256, 257, 258, 259, 260, 261, 262, 263, 264, 265, 266, 267, 268, 269, 270, 271, 272, 273, 274, 275, 276, 277, 278, 279, 280, 281, 282, 283, 284, 285, 286, 287, 288, 289, 290, 291, 292, 293, 294, 295, 296, 297, 298, 299, 300, 301, 302, 303, 304, 305, 306, 307, 308, 309, 310, 311, 312, 313, 314, 315, 316, 317, 318, 319, 320, 321, 322, 323, 324, 325, 326, 327, 328, 329, 330, 331, 332, 333, 334, 335, 336, 337, 338, 339, 340, 341, 342, 343, 344, 345, 346, 347, 348, 349, 350, 351, 352, 353, 354, 355, 356, 357, 358, 359, 360, 361, 362, 363, 364, 365, 366, 367, 368, 369, 370, 371, 372, 373, 374, 375, 376, 377, 378, 379, 380, 381, 382, 383, 384, 385, 386, 387, 388, 389, 390, 391, 392, 393, 394, 395, 396, 397, 398, 399, 400, 401, 402, 403, 404, 405, 406, 407, 408, 409, 410, 411, 412, 413, 414, 415, 416, 417, 418, 419, 420, 421, 422, 423, 424, 425, 426, 427, 428, 429, 430, 431, 432, 433, 434, 435, 436, 437, 438, 439, 440, 441, 442, 443, 444, 445, 446, 447, 448, 449, 450, 451, 452, 453, 454, 455, 456, 457, 458, 459, 460, 461, 462, 463, 464, 465, 466, 467, 468, 469, 470, 471, 472, 473, 474, 475, 476, 477, 478, 479, 480, 481, 482, 483],
      "AcquisitionTime": ["174933.572500", "174935.062500", "174936.552500", "174938.042500", "174939.532500", "174941.022500", "174942.512500", "174944.002500", "174945.492500", "174946.982500", "174948.472500", "174949.962500", "174951.452500", "174952.942500", "174954.432500", "174955.922500", "174957.412500", "174958.902500", "175000.392500", "175001.882500", "175003.372500", "175004.862500", "175006.352500", "175007.842500", "175009.332500", "175010.822500", "175012.312500", "175013.802500", "175015.292500", "175016.782500", "175018.272500", "175019.762500", "175021.252500", "175022.742500", "175024.232500", "175025.722500", "175027.212500", "175028.702500", "175030.192500", "175031.682500", "175033.172500", "175034.662500", "175036.152500", "175037.642500", "175039.132500", "175040.622500", "175042.112500", "175043.602500", "175045.092500", "175046.582500", "175048.072500", "175049.562500", "175051.052500", "175052.542500", "175054.032500", "175055.522500", "175057.012500", "175058.502500", "175059.992500", "175101.482500", "175102.972500", "175104.462500", "175105.952500", "175107.442500", "175108.932500", "175110.422500", "175111.912500", "175113.402500", "175114.892500", "175116.382500", "175117.872500", "175119.362500", "175120.852500", "175122.342500", "175123.832500", "175125.322500", "175126.812500", "175128.302500", "175129.792500", "175131.282500", "175132.772500", "175134.262500", "175135.752500", "175137.242500", "175138.732500", "175140.222500", "175141.712500", "175143.202500", "175144.692500", "175146.182500", "175147.672500", "175149.162500", "175150.652500", "175152.142500", "175153.632500", "175155.122500", "175156.612500", "175158.102500", "175159.592500", "175201.082500", "175202.572500", "175204.062500", "175205.552500", "175207.042500", "175208.532500", "175210.022500", "175211.512500", "175213.002500", "175214.492500", "175215.982500", "175217.472500", "175218.962500", "175220.452500", "175221.942500", "175223.432500", "175224.922500", "175226.412500", "175227.902500", "175229.392500", "175230.882500", "175232.372500", "175233.862500", "175235.352500", "175236.842500", "175238.332500", "175239.822500", "175241.312500", "175242.802500", "175244.292500", "175245.782500", "175247.272500", "175248.762500", "175250.252500", "175251.742500", "175253.232500", "175254.722500", "175256.212500", "175257.702500", "175259.192500", "175300.682500", "175302.172500", "175303.662500", "175305.152500", "175306.642500", "175308.132500", "175309.622500", "175311.112500", "175312.602500", "175314.092500", "175315.582500", "175317.072500", "175318.562500", "175320.052500", "175321.542500", "175323.032500", "175324.522500", "175326.012500", "175327.502500", "175328.992500", "175330.482500", "175331.972500", "175333.462500", "175334.952500", "175336.442500", "175337.932500", "175339.422500", "175340.912500", "175342.402500", "175343.892500", "175345.382500", "175346.872500", "175348.362500", "175349.852500", "175351.342500", "175352.832500", "175354.322500", "175355.812500", "175357.302500", "175358.792500", "175400.282500", "175401.772500", "175403.262500", "175404.752500", "175406.242500", "175407.732500", "175409.222500", "175410.712500", "175412.202500", "175413.692500", "175415.182500", "175416.672500", "175418.162500", "175419.652500", "175421.142500", "175422.632500", "175424.122500", "175425.612500", "175427.102500", "175428.592500", "175430.082500", "175431.572500", "175433.062500", "175434.552500", "175436.042500", "175437.532500", "175439.022500", "175440.512500", "175442.002500", "175443.492500", "175444.982500", "175446.472500", "175447.962500", "175449.452500", "175450.942500", "175452.432500", "175453.922500", "175455.412500", "175456.902500", "175458.392500", "175459.882500", "175501.372500", "175502.862500", "175504.352500", "175505.842500", "175507.332500", "175508.822500", "175510.312500", "175511.802500", "175513.292500", "175514.782500", "175516.272500", "175517.762500", "175519.252500", "175520.742500", "175522.232500", "175523.722500", "175525.212500", "175526.702500", "175528.192500", "175529.682500", "175531.172500", "175532.662500", "175534.152500", "175535.642500", "175537.132500", "175538.622500", "175540.112500", "175541.602500", "175543.092500", "175544.582500", "175546.072500", "175547.562500", "175549.052500", "175550.542500", "175552.032500", "175553.522500", "175555.012500", "175556.502500", "175557.992500", "175559.482500", "175600.972500", "175602.462500", "175603.952500", "175605.442500", "175606.932500", "175608.422500", "175609.912500", "175611.402500", "175612.892500", "175614.382500", "175615.872500", "175617.362500", "175618.852500", "175620.342500", "175621.832500", "175623.322500", "175624.812500", "175626.302500", "175627.792500", "175629.282500", "175630.772500", "175632.262500", "175633.752500", "175635.242500", "175636.732500", "175638.222500", "175639.712500", "175641.202500", "175642.692500", "175644.182500", "175645.672500", "175647.162500", "175648.652500", "175650.142500", "175651.632500", "175653.122500", "175654.612500", "175656.102500", "175657.592500", "175659.082500", "175700.572500", "175702.062500", "175703.552500", "175705.042500", "175706.532500", "175708.022500", "175709.512500", "175711.002500", "175712.492500", "175713.982500", "175715.472500", "175716.962500", "175718.452500", "175719.942500", "175721.432500", "175722.922500", "175724.412500", "175725.902500", "175727.392500", "175728.882500", "175730.372500", "175731.862500", "175733.352500", "175734.842500", "175736.332500", "175737.822500", "175739.312500", "175740.802500", "175742.292500", "175743.782500", "175745.272500", "175746.762500", "175748.252500", "175749.742500", "175751.232500", "175752.722500", "175754.212500", "175755.702500", "175757.192500", "175758.682500", "175800.172500", "175801.662500", "175803.152500", "175804.642500", "175806.132500", "175807.622500", "175809.112500", "175810.602500", "175812.092500", "175813.582500", "175815.072500", "175816.562500", "175818.052500", "175819.542500", "175821.032500", "175822.522500", "175824.012500", "175825.502500", "175826.992500", "175828.482500", "175829.972500", "175831.462500", "175832.952500", "175834.442500", "175835.932500", "175837.422500", "175838.912500", "175840.402500", "175841.892500", "175843.382500", "175844.872500", "175846.362500", "175847.852500", "175849.342500", "175850.832500", "175852.322500", "175853.812500", "175855.302500", "175856.792500", "175858.282500", "175859.772500", "175901.262500", "175902.752500", "175904.242500", "175905.732500", "175907.222500", "175908.712500", "175910.202500", "175911.692500", "175913.182500", "175914.672500", "175916.162500", "175917.652500", "175919.142500", "175920.632500", "175922.122500", "175923.612500", "175925.102500", "175926.592500", "175928.082500", "175929.572500", "175931.062500", "175932.552500", "175934.042500", "175935.532500", "175937.022500", "175938.512500", "175940.002500", "175941.492500", "175942.982500", "175944.472500", "175945.962500", "175947.452500", "175948.942500", "175950.432500", "175951.922500", "175953.412500", "175954.902500", "175956.392500", "175957.882500", "175959.372500", "180000.862500", "180002.352500", "180003.842500", "180005.332500", "180006.822500", "180008.312500", "180009.802500", "180011.292500", "180012.782500", "180014.272500", "180015.762500", "180017.252500", "180018.742500", "180020.232500", "180021.722500", "180023.212500", "180024.702500", "180026.192500", "180027.682500", "180029.172500", "180030.662500", "180032.152500", "180033.642500", "180035.132500", "180036.622500", "180038.112500", "180039.602500", "180041.092500", "180042.582500", "180044.072500", "180045.562500", "180047.052500", "180048.542500", "180050.032500", "180051.522500", "180053.012500", "180054.502500", "180055.992500", "180057.482500", "180058.972500", "180100.462500", "180101.952500", "180103.442500", "180104.932500", "180106.422500", "180107.912500", "180109.402500", "180110.892500", "180112.382500", "180113.872500", "180115.362500", "180116.852500", "180118.342500", "180119.832500", "180121.322500", "180122.812500", "180124.302500", "180125.792500", "180127.282500", "180128.772500", "180130.262500", "180131.752500"],
      "ContentTime": ["175058.285000", "175058.289000", "175058.291000", "175058.294000", "175058.297000", "175058.300000", "175058.303000", "175058.306000", "175058.309000", "175058.317000", "175058.320000", "175058.323000", "175058.326000", "175058.329000", "175058.332000", "175058.335000", "175058.338000", "175058.341000", "175058.344000", "175058.347000", "175058.350000", "175058.353000", "175058.356000", "175058.359000", "175058.362000", "175058.365000", "175058.368000", "175058.371000", "175058.374000", "175058.376000", "175058.379000", "175058.382000", "175118.240000", "175118.243000", "175118.246000", "175118.249000", "175118.252000", "175118.254000", "175118.257000", "175118.260000", "175118.263000", "175118.266000", "175118.269000", "175118.271000", "175118.274000", "175118.277000", "175118.280000", "175118.283000", "175118.285000", "175118.288000", "175118.292000", "175118.295000", "175138.240000", "175138.243000", "175138.246000", "175138.249000", "175138.252000", "175138.254000", "175138.257000", "175138.260000", "175138.263000", "175138.266000", "175138.268000", "175138.271000", "175138.274000", "175138.277000", "175138.280000", "175138.283000", "175138.285000", "175138.288000", "175138.291000", "175138.294000", "175158.240000", "175158.243000", "175158.246000", "175158.249000", "175158.252000", "175158.254000", "175158.262000", "175158.265000", "175158.268000", "175158.271000", "175158.274000", "175158.277000", "175158.281000", "175158.285000", "175158.288000", "175158.290000", "175158.293000", "175158.296000", "175158.299000", "175158.302000", "175218.241000", "175218.244000", "175218.247000", "175218.250000", "175218.253000", "175218.256000", "175218.258000", "175218.261000", "175218.264000", "175218.267000", "175218.270000", "175218.273000", "175218.275000", "175218.278000", "175218.281000", "175218.284000", "175218.287000", "175258.240000", "175258.243000", "175258.246000", "175258.248000", "175258.251000", "175258.254000", "175258.257000", "175258.260000", "175258.263000", "175258.266000", "175258.268000", "175258.271000", "175258.274000", "175258.277000", "175258.280000", "175258.283000", "175258.285000", "175258.288000", "175258.291000", "175258.294000", "175258.304000", "175258.306000", "175258.309000", "175258.312000", "175258.315000", "175258.318000", "175258.321000", "175338.240000", "175338.243000", "175338.246000", "175338.249000", "175338.251000", "175338.254000", "175338.257000", "175338.260000", "175338.263000", "175338.266000", "175338.268000", "175338.271000", "175338.274000", "175338.277000", "175338.280000", "175338.283000", "175338.286000", "175338.288000", "175338.291000", "175338.294000", "175338.297000", "175338.300000", "175338.303000", "175338.306000", "175338.309000", "175338.311000", "175338.314000", "175418.240000", "175418.243000", "175418.246000", "175418.249000", "175418.251000", "175418.254000", "175418.257000", "175418.260000", "175418.263000", "175418.266000", "175418.269000", "175418.271000", "175418.274000", "175418.277000", "175418.280000", "175418.283000", "175418.286000", "175418.288000", "175418.291000", "175418.294000", "175418.297000", "175418.300000", "175418.303000", "175418.306000", "175418.309000", "175418.312000", "175418.315000", "175458.240000", "175458.243000", "175458.246000", "175458.249000", "175458.251000", "175458.254000", "175458.257000", "175458.260000", "175458.263000", "175458.265000", "175458.280000", "175458.283000", "175458.286000", "175458.289000", "175458.291000", "175458.294000", "175458.297000", "175458.300000", "175458.303000", "175458.305000", "175458.308000", "175458.311000", "175458.314000", "175458.317000", "175458.320000", "175458.323000", "175458.326000", "175538.240000", "175538.243000", "175538.246000", "175538.249000", "175538.251000", "175538.254000", "175538.257000", "175538.260000", "175538.263000", "175538.265000", "175538.268000", "175538.271000", "175538.274000", "175538.277000", "175538.280000", "175538.282000", "175538.285000", "175538.288000", "175538.291000", "175538.294000", "175538.297000", "175538.299000", "175538.302000", "175538.305000", "175538.308000", "175538.311000", "175538.314000", "175618.240000", "175618.243000", "175618.246000", "175618.249000", "175618.252000", "175618.263000", "175618.266000", "175618.268000", "175618.271000", "175618.274000", "175618.277000", "175618.280000", "175618.283000", "175618.286000", "175618.289000", "175618.291000", "175618.294000", "175618.297000", "175618.300000", "175618.303000", "175618.306000", "175618.308000", "175618.311000", "175618.314000", "175618.317000", "175618.320000", "175658.240000", "175658.243000", "175658.246000", "175658.249000", "175658.252000", "175658.254000", "175658.257000", "175658.260000", "175658.263000", "175658.266000", "175658.269000", "175658.271000", "175658.274000", "175658.277000", "175658.280000", "175658.283000", "175658.285000", "175658.288000", "175658.291000", "175658.294000", "175658.297000", "175658.299000", "175658.302000", "175658.305000", "175658.308000", "175658.311000", "175658.314000", "175738.240000", "175738.243000", "175738.246000", "175738.249000", "175738.252000", "175738.255000", "175738.258000", "175738.261000", "175738.263000", "175738.266000", "175738.269000", "175738.272000", "175738.275000", "175738.278000", "175738.281000", "175738.283000", "175738.286000", "175738.289000", "175738.292000", "175738.295000", "175738.297000", "175738.300000", "175738.303000", "175738.306000", "175738.309000", "175738.312000", "175738.314000", "175818.240000", "175818.243000", "175818.246000", "175818.249000", "175818.251000", "175818.254000", "175818.257000", "175818.260000", "175818.263000", "175818.266000", "175818.268000", "175818.271000", "175818.274000", "175818.277000", "175818.280000", "175818.283000", "175818.286000", "175818.289000", "175818.291000", "175818.294000", "175818.297000", "175818.300000", "175818.303000", "175818.306000", "175818.308000", "175818.311000", "175818.314000", "175858.240000", "175858.243000", "175858.246000", "175858.249000", "175858.252000", "175858.255000", "175858.257000", "175858.260000", "175858.263000", "175858.267000", "175858.270000", "175858.273000", "175858.276000", "175858.279000", "175858.282000", "175858.285000", "175858.288000", "175858.290000", "175858.293000", "175858.296000", "175858.299000", "175858.302000", "175858.305000", "175858.308000", "175858.310000", "175858.313000", "175858.316000", "175938.240000", "175938.243000", "175938.246000", "175938.249000", "175938.251000", "175938.260000", "175938.263000", "175938.266000", "175938.269000", "175938.272000", "175938.286000", "175938.289000", "175938.291000", "175938.294000", "175938.297000", "175938.300000", "175938.303000", "175938.306000", "175938.308000", "175938.311000", "175938.314000", "175938.317000", "175938.320000", "175938.322000", "175938.325000", "175938.328000", "175938.331000", "180018.240000", "180018.243000", "180018.246000", "180018.249000", "180018.252000", "180018.254000", "180018.257000", "180018.260000", "180018.263000", "180018.266000", "180018.269000", "180018.271000", "180018.274000", "180018.277000", "180018.280000", "180018.283000", "180018.286000", "180018.289000", "180018.291000", "180018.294000", "180018.297000", "180018.300000", "180018.303000", "180018.306000", "180018.309000", "180018.311000", "180018.314000", "180058.240000", "180058.243000", "180058.246000", "180058.249000", "180058.251000", "180058.254000", "180058.257000", "180058.260000", "180058.263000", "180058.266000", "180058.269000", "180058.271000", "180058.274000", "180058.277000", "180058.280000", "180058.283000", "180058.286000", "180058.289000", "180058.291000", "180058.294000", "180058.297000", "180058.300000", "180058.303000", "180058.305000", "180058.308000", "180058.311000", "180134.291000", "180134.294000", "180134.297000", "180134.300000", "180134.302000", "180134.305000", "180134.308000", "180134.311000", "180134.314000", "180134.317000", "180134.320000", "180134.323000", "180134.325000", "180134.328000", "180134.331000", "180134.334000", "180134.338000", "180134.341000", "180134.343000", "180134.346000", "180134.349000", "180134.352000", "180134.355000", "180134.358000", "180134.361000"],
