{
  "AcquisitionMatrixPE": 104,
  "AcquisitionNumber": 1,
  "AcquisitionTime": "11:19:55.960000",
  "BandwidthPerPixelPhaseEncode": 17.17,
  "BaseResolution": 104,
  "BodyPartExamined": "BRAIN",
  "CoilString": "HC1-7;NC1_2",
  "ConsistencyInfo": "N4_VE11C_LATEST_20160120",
  "ConversionSoftware": "dcm2niix",
  "ConversionSoftwareVersion": "v1.0.20190902",
  "DerivedVendorReportedEchoSpacing": 0.000560011,
  "DeviceSerialNumber": "167006",
  "DwellTime": 2.1e-06,
  "EchoTime": 0.037,
  "EchoTrainLength": 104,
  "EffectiveEchoSpacing": 0.000560011,
  "FlipAngle": 52,
  "HeudiconvVersion": "0.10.0",
  "ImageComments": "Unaliased_MB4_PE3_LB",
  "ImageOrientationPatientDICOM": [0.998988, -0.0053835, 0.0446593, 0.0273808, 0.860475, -0.508757],
  "ImageType": [
    "ORIGINAL",
    "PRIMARY",
    "M",
    "MB",
    "ND",
    "MOSAIC"
],
  "ImagingFrequency": 123.259,
  "InPlanePhaseEncodingDirectionDICOM": "COL",
  "InstitutionAddress": "Chemin_Queen-Mary_4565_Montreal_District_CA_H3W_1W5",
  "InstitutionName": "IUGM",
  "InstitutionalDepartmentName": "Department",
  "MRAcquisitionType": "2D",
  "MagneticFieldStrength": 3,
  "Manufacturer": "Siemens",
  "ManufacturersModelName": "Prisma_fit",
  "Modality": "MR",
  "MultibandAccelerationFactor": 4,
  "PartialFourier": 1,
  "PatientPosition": "HFS",
  "PercentPhaseFOV": 100,
  "PhaseEncodingDirection": "j",
  "PhaseEncodingSteps": 104,
  "PhaseResolution": 1,
  "PixelBandwidth": 2290,
  "ProcedureStepDescription": "video_friends",
  "ProtocolName": "func_task-friends-s06e06a",
  "PulseSequenceDetails": "%CustomerSeq%_cmrr_mbep2d_bold",
  "ReceiveCoilActiveElements": "HC1-7;NC1,2",
  "ReceiveCoilName": "HeadNeck_64",
  "ReconMatrixPE": 104,
  "RepetitionTime": 1.49,
  "SAR": 0.0457232,
  "ScanOptions": "FS",
  "ScanningSequence": "EP",
  "SequenceName": "epfid2d1_104",
  "SequenceVariant": "SK_SS",
  "SeriesDescription": "func_task-friends-s06e06a",
  "SeriesNumber": 15,
  "ShimSetting": [626, -7183, -8865, 311, -34, -167, 12, 0],
  "SliceThickness": 2,
  "SliceTiming": [0, 0.785, 0.1, 0.8825, 0.1975, 0.98, 0.295, 1.08, 0.3925, 1.1775, 0.49, 1.275, 0.59, 1.3725, 0.6875, 0, 0.785, 0.1, 0.8825, 0.1975, 0.98, 0.295, 1.08, 0.3925, 1.1775, 0.49, 1.275, 0.59, 1.3725, 0.6875, 0, 0.785, 0.1, 0.8825, 0.1975, 0.98, 0.295, 1.08, 0.3925, 1.1775, 0.49, 1.275, 0.59, 1.3725, 0.6875, 0, 0.785, 0.1, 0.8825, 0.1975, 0.98, 0.295, 1.08, 0.3925, 1.1775, 0.49, 1.275, 0.59, 1.3725, 0.6875],
  "SoftwareVersions": "syngo_MR_E11",
  "SpacingBetweenSlices": 2,
  "StationName": "MRC35049",
  "TaskName": "s06e06a",
  "TotalReadoutTime": 0.0576811,
  "TxRefAmp": 258.221,
  "WipMemBlock": "14444a0b-68d0-4dd8-9aea-c83af8e27f0c||Sequence: R016 ve11c/master r/e634e98; Dec 19 2017 11:00:25 by eja",
  "dcmmeta_affine": [
    [-1.9979755878448486, 0.05476166680455208, 0.0713786780834198, 98.13726043701172],
    [0.010766992345452309, 1.7209491729736328, -1.0189298391342163, -60.016029357910156],
    [0.08931868523359299, 1.0175141096115112, 1.7195019721984863, -104.15731811523438],
    [0.0, 0.0, 0.0, 1.0]
],
  "dcmmeta_reorient_transform": [
    [0.0, -1.0, 0.0, 103.0],
    [1.0, 0.0, 0.0, 0.0],
    [0.0, 0.0, 1.0, 0.0],
    [0.0, 0.0, 0.0, 1.0]
],
  "dcmmeta_shape": [104, 104, 60, 443],
  "dcmmeta_slice_dim": 2,
  "dcmmeta_version": 0.6,
  "global": {
    "const": {
      "AcquisitionMatrix": [104, 0, 0, 104],
      "AngioFlag": "N",
      "BitsAllocated": 16,
      "BitsStored": 16,
      "BodyPartExamined": "BRAIN",
      "Columns": 832,
      "EchoNumbers": 1,
      "EchoTime": 37.0,
      "EchoTrainLength": 104,
      "FlipAngle": 52.0,
      "HighBit": 15,
      "ImageOrientationPatient": [0.99898776826694, -0.0053834960585, 0.0446593419481, 0.02738083376176, 0.8604745915214, -0.508757080824],
      "ImagePositionPatient": [-850.97405558241, -739.74805300654, 338.50979665006],
      "ImageType": [
        "ORIGINAL",
        "PRIMARY",
        "M",
        "MB",
        "ND",
        "MOSAIC"
],
      "ImagedNucleus": "1H",
      "ImagingFrequency": 123.258865,
      "InPlanePhaseEncodingDirection": "COL",
      "MRAcquisitionType": "2D",
      "MagneticFieldStrength": 3.0,
      "Manufacturer": "SIEMENS",
      "ManufacturerModelName": "Prisma_fit",
      "Modality": "MR",
      "NumberOfAverages": 1.0,
      "NumberOfPhaseEncodingSteps": 104,
      "PercentPhaseFieldOfView": 100.0,
      "PercentSampling": 100.0,
      "PerformedProcedureStepStartTime": "093245.515000",
      "PhotometricInterpretation": "MONOCHROME2",
      "PixelBandwidth": 2290.0,
      "PixelRepresentation": 0,
      "PixelSpacing": [2.0, 2.0],
      "ProtocolName": "func_task-friends-s06e06a",
      "RepetitionTime": 1490.0,
      "Rows": 832,
      "SAR": 0.04572315228224,
      "SamplesPerPixel": 1,
      "ScanOptions": "FS",
      "ScanningSequence": "EP",
      "SequenceName": "epfid2d1_104",
      "SequenceVariant": [
        "SK",
        "SS"
],
      "SeriesDescription": "func_task-friends-s06e06a",
      "SeriesNumber": 15,
      "SeriesTime": "112114.202000",
      "SliceLocation": -55.470840761421,
      "SliceThickness": 2.0,
      "SmallestImagePixelValue": 0,
      "SoftwareVersions": "syngo MR E11",
      "SpacingBetweenSlices": 2.0000000178311,
      "SpecificCharacterSet": "ISO_IR 100",
      "StudyID": "1",
      "StudyTime": "093245.377000",
      "TransmitCoilName": "Body",
      "VariableFlipAngleFlag": "N",
      "WindowCenterWidthExplanation": "Algo1",
      "dBdt": 0.0},
    "slices": {}
  },
  "time": {
    "samples": {
      "AcquisitionNumber": [1, 2, 3, 4, 5, 6, 7, 8, 9, 10, 11, 12, 13, 14, 15, 16, 17, 18, 19, 20, 21, 22, 23, 24, 25, 26, 27, 28, 29, 30, 31, 32, 33, 34, 35, 36, 37, 38, 39, 40, 41, 42, 43, 44, 45, 46, 47, 48, 49, 50, 51, 52, 53, 54, 55, 56, 57, 58, 59, 60, 61, 62, 63, 64, 65, 66, 67, 68, 69, 70, 71, 72, 73, 74, 75, 76, 77, 78, 79, 80, 81, 82, 83, 84, 85, 86, 87, 88, 89, 90, 91, 92, 93, 94, 95, 96, 97, 98, 99, 100, 101, 102, 103, 104, 105, 106, 107, 108, 109, 110, 111, 112, 113, 114, 115, 116, 117, 118, 119, 120, 121, 122, 123, 124, 125, 126, 127, 128, 129, 130, 131, 132, 133, 134, 135, 136, 137, 138, 139, 140, 141, 142, 143, 144, 145, 146, 147, 148, 149, 150, 151, 152, 153, 154, 155, 156, 157, 158, 159, 160, 161, 162, 163, 164, 165, 166, 167, 168, 169, 170, 171, 172, 173, 174, 175, 176, 177, 178, 179, 180, 181, 182, 183, 184, 185, 186, 187, 188, 189, 190, 191, 192, 193, 194, 195, 196, 197, 198, 199, 200, 201, 202, 203, 204, 205, 206, 207, 208, 209, 210, 211, 212, 213, 214, 215, 216, 217, 218, 219, 220, 221, 222, 223, 224, 225, 226, 227, 228, 229, 230, 231, 232, 233, 234, 235, 236, 237, 238, 239, 240, 241, 242, 243, 244, 245, 246, 247, 248, 249, 250, 251, 252, 253, 254, 255, 256, 257, 258, 259, 260, 261, 262, 263, 264, 265, 266, 267, 268, 269, 270, 271, 272, 273, 274, 275, 276, 277, 278, 279, 280, 281, 282, 283, 284, 285, 286, 287, 288, 289, 290, 291, 292, 293, 294, 295, 296, 297, 298, 299, 300, 301, 302, 303, 304, 305, 306, 307, 308, 309, 310, 311, 312, 313, 314, 315, 316, 317, 318, 319, 320, 321, 322, 323, 324, 325, 326, 327, 328, 329, 330, 331, 332, 333, 334, 335, 336, 337, 338, 339, 340, 341, 342, 343, 344, 345, 346, 347, 348, 349, 350, 351, 352, 353, 354, 355, 356, 357, 358, 359, 360, 361, 362, 363, 364, 365, 366, 367, 368, 369, 370, 371, 372, 373, 374, 375, 376, 377, 378, 379, 380, 381, 382, 383, 384, 385, 386, 387, 388, 389, 390, 391, 392, 393, 394, 395, 396, 397, 398, 399, 400, 401, 402, 403, 404, 405, 406, 407, 408, 409, 410, 411, 412, 413, 414, 415, 416, 417, 418, 419, 420, 421, 422, 423, 424, 425, 426, 427, 428, 429, 430, 431, 432, 433, 434, 435, 436, 437, 438, 439, 440, 441, 442, 443],
      "AcquisitionTime": ["111955.960000", "111957.450000", "111958.940000", "112000.430000", "112001.920000", "112003.410000", "112004.900000", "112006.390000", "112007.880000", "112009.370000", "112010.860000", "112012.350000", "112013.840000", "112015.330000", "112016.820000", "112018.310000", "112019.800000", "112021.290000", "112022.780000", "112024.270000", "112025.760000", "112027.250000", "112028.740000", "112030.230000", "112031.720000", "112033.210000", "112034.700000", "112036.190000", "112037.680000", "112039.170000", "112040.660000", "112042.150000", "112043.640000", "112045.130000", "112046.620000", "112048.110000", "112049.600000", "112051.090000", "112052.580000", "112054.070000", "112055.560000", "112057.050000", "112058.540000", "112100.030000", "112101.520000", "112103.010000", "112104.500000", "112105.990000", "112107.480000", "112108.970000", "112110.460000", "112111.950000", "112113.440000", "112114.930000", "112116.420000", "112117.910000", "112119.400000", "112120.890000", "112122.380000", "112123.870000", "112125.360000", "112126.850000", "112128.340000", "112129.830000", "112131.320000", "112132.810000", "112134.300000", "112135.790000", "112137.280000", "112138.770000", "112140.260000", "112141.750000", "112143.240000", "112144.730000", "112146.220000", "112147.710000", "112149.200000", "112150.690000", "112152.180000", "112153.670000", "112155.160000", "112156.650000", "112158.140000", "112159.630000", "112201.120000", "112202.610000", "112204.100000", "112205.590000", "112207.080000", "112208.570000", "112210.060000", "112211.550000", "112213.040000", "112214.530000", "112216.020000", "112217.510000", "112219.000000", "112220.490000", "112221.980000", "112223.470000", "112224.960000", "112226.450000", "112227.940000", "112229.430000", "112230.920000", "112232.410000", "112233.900000", "112235.390000", "112236.880000", "112238.370000", "112239.860000", "112241.350000", "112242.840000", "112244.330000", "112245.820000", "112247.310000", "112248.800000", "112250.290000", "112251.780000", "112253.270000", "112254.760000", "112256.250000", "112257.740000", "112259.230000", "112300.720000", "112302.210000", "112303.700000", "112305.190000", "112306.680000", "112308.170000", "112309.660000", "112311.150000", "112312.640000", "112314.130000", "112315.620000", "112317.110000", "112318.600000", "112320.090000", "112321.580000", "112323.070000", "112324.560000", "112326.050000", "112327.540000", "112329.030000", "112330.520000", "112332.010000", "112333.500000", "112334.990000", "112336.480000", "112337.970000", "112339.460000", "112340.950000", "112342.440000", "112343.930000", "112345.420000", "112346.910000", "112348.400000", "112349.890000", "112351.380000", "112352.870000", "112354.360000", "112355.850000", "112357.340000", "112358.830000", "112400.320000", "112401.810000", "112403.300000", "112404.790000", "112406.280000", "112407.770000", "112409.260000", "112410.750000", "112412.240000", "112413.730000", "112415.220000", "112416.710000", "112418.200000", "112419.690000", "112421.180000", "112422.670000", "112424.160000", "112425.650000", "112427.140000", "112428.630000", "112430.120000", "112431.610000", "112433.100000", "112434.590000", "112436.080000", "112437.570000", "112439.060000", "112440.550000", "112442.040000", "112443.530000", "112445.020000", "112446.510000", "112448.000000", "112449.490000", "112450.980000", "112452.470000", "112453.960000", "112455.450000", "112456.940000", "112458.430000", "112459.920000", "112501.410000", "112502.900000", "112504.390000", "112505.880000", "112507.370000", "112508.860000", "112510.350000", "112511.840000", "112513.330000", "112514.820000", "112516.310000", "112517.800000", "112519.290000", "112520.780000", "112522.270000", "112523.760000", "112525.250000", "112526.740000", "112528.230000", "112529.720000", "112531.210000", "112532.700000", "112534.190000", "112535.680000", "112537.170000", "112538.660000", "112540.150000", "112541.640000", "112543.130000", "112544.620000", "112546.110000", "112547.600000", "112549.090000", "112550.580000", "112552.070000", "112553.560000", "112555.050000", "112556.540000", "112558.030000", "112559.520000", "112601.010000", "112602.500000", "112603.990000", "112605.480000", "112606.970000", "112608.460000", "112609.950000", "112611.440000", "112612.930000", "112614.420000", "112615.910000", "112617.400000", "112618.890000", "112620.380000", "112621.870000", "112623.360000", "112624.850000", "112626.340000", "112627.830000", "112629.320000", "112630.810000", "112632.300000", "112633.790000", "112635.280000", "112636.770000", "112638.260000", "112639.750000", "112641.240000", "112642.730000", "112644.220000", "112645.710000", "112647.200000", "112648.690000", "112650.180000", "112651.670000", "112653.160000", "112654.650000", "112656.140000", "112657.630000", "112659.120000", "112700.610000", "112702.100000", "112703.590000", "112705.080000", "112706.570000", "112708.060000", "112709.550000", "112711.040000", "112712.530000", "112714.020000", "112715.510000", "112717.000000", "112718.490000", "112719.980000", "112721.470000", "112722.960000", "112724.450000", "112725.940000", "112727.430000", "112728.920000", "112730.410000", "112731.900000", "112733.390000", "112734.880000", "112736.370000", "112737.860000", "112739.350000", "112740.840000", "112742.330000", "112743.820000", "112745.310000", "112746.800000", "112748.290000", "112749.780000", "112751.270000", "112752.760000", "112754.250000", "112755.740000", "112757.230000", "112758.720000", "112800.210000", "112801.700000", "112803.190000", "112804.680000", "112806.170000", "112807.660000", "112809.150000", "112810.640000", "112812.130000", "112813.620000", "112815.110000", "112816.600000", "112818.090000", "112819.580000", "112821.070000", "112822.560000", "112824.050000", "112825.540000", "112827.030000", "112828.520000", "112830.010000", "112831.500000", "112832.990000", "112834.480000", "112835.970000", "112837.460000", "112838.950000", "112840.440000", "112841.930000", "112843.420000", "112844.910000", "112846.400000", "112847.890000", "112849.380000", "112850.870000", "112852.360000", "112853.850000", "112855.340000", "112856.830000", "112858.320000", "112859.810000", "112901.300000", "112902.790000", "112904.280000", "112905.770000", "112907.260000", "112908.750000", "112910.240000", "112911.730000", "112913.220000", "112914.710000", "112916.200000", "112917.690000", "112919.180000", "112920.670000", "112922.160000", "112923.650000", "112925.140000", "112926.630000", "112928.120000", "112929.610000", "112931.100000", "112932.590000", "112934.080000", "112935.570000", "112937.060000", "112938.550000", "112940.040000", "112941.530000", "112943.020000", "112944.510000", "112946.000000", "112947.490000", "112948.980000", "112950.470000", "112951.960000", "112953.450000", "112954.940000", "112956.430000", "112957.920000", "112959.410000", "113000.900000", "113002.390000", "113003.880000", "113005.370000", "113006.860000", "113008.350000", "113009.840000", "113011.330000", "113012.820000", "113014.310000", "113015.800000", "113017.290000", "113018.780000", "113020.270000", "113021.760000", "113023.250000", "113024.740000", "113026.230000", "113027.720000", "113029.210000", "113030.700000", "113032.190000", "113033.680000", "113035.170000", "113036.660000", "113038.150000", "113039.640000", "113041.130000", "113042.620000", "113044.110000", "113045.600000", "113047.090000", "113048.580000", "113050.070000", "113051.560000", "113053.050000", "113054.540000"],
      "ContentTime": ["112114.204000", "112114.208000", "112114.217000", "112114.220000", "112114.222000", "112114.225000", "112114.228000", "112114.231000", "112114.234000", "112114.237000", "112114.240000", "112114.242000", "112114.245000", "112114.248000", "112114.257000", "112114.260000", "112114.263000", "112114.266000", "112114.269000", "112114.272000", "112114.274000", "112114.277000", "112114.280000", "112114.283000", "112114.286000", "112114.289000", "112134.177000", "112134.180000", "112134.183000", "112134.186000", "112134.188000", "112134.191000", "112134.194000", "112134.197000", "112134.200000", "112134.203000", "112134.206000", "112134.209000", "112134.217000", "112134.220000", "112134.223000", "112134.226000", "112134.229000", "112134.232000", "112134.234000", "112134.237000", "112154.177000", "112154.180000", "112154.183000", "112154.186000", "112154.188000", "112154.191000", "112154.194000", "112154.197000", "112154.200000", "112154.203000", "112154.206000", "112154.208000", "112154.211000", "112154.214000", "112154.223000", "112154.225000", "112154.228000", "112154.231000", "112154.234000", "112154.237000", "112214.178000", "112214.181000", "112214.184000", "112214.186000", "112214.189000", "112214.192000", "112214.195000", "112214.198000", "112214.201000", "112214.203000", "112214.206000", "112214.221000", "112214.224000", "112214.227000", "112214.230000", "112214.233000", "112214.236000", "112214.239000", "112214.241000", "112214.244000", "112254.178000", "112254.181000", "112254.184000", "112254.187000", "112254.190000", "112254.192000", "112254.195000", "112254.198000", "112254.201000", "112254.204000", "112254.207000", "112254.210000", "112254.213000", "112254.220000", "112254.223000", "112254.226000", "112254.229000", "112254.231000", "112254.234000", "112254.237000", "112254.248000", "112254.251000", "112254.254000", "112254.257000", "112254.260000", "112254.262000", "112254.265000", "112254.268000", "112254.271000", "112254.274000", "112254.277000", "112254.280000", "112254.283000", "112334.177000", "112334.180000", "112334.183000", "112334.186000", "112334.189000", "112334.191000", "112334.194000", "112334.197000", "112334.200000", "112334.203000", "112334.206000", "112334.209000", "112334.212000", "112334.214000", "112334.217000", "112334.220000", "112334.223000", "112334.226000", "112334.229000", "112334.232000", "112334.235000", "112334.238000", "112334.241000", "112334.243000", "112334.246000", "112334.249000", "112334.252000", "112414.177000", "112414.180000", "112414.183000", "112414.186000", "112414.189000", "112414.191000", "112414.194000", "112414.197000", "112414.200000", "112414.203000", "112414.206000", "112414.209000", "112414.219000", "112414.222000", "112414.225000", "112414.228000", "112414.231000", "112414.234000", "112414.237000", "112414.239000", "112414.242000", "112414.245000", "112414.248000", "112414.251000", "112414.254000", "112414.257000", "112414.259000", "112454.178000", "112454.181000", "112454.184000", "112454.187000", "112454.190000", "112454.193000", "112454.196000", "112454.198000", "112454.201000", "112454.204000", "112454.207000", "112454.210000", "112454.213000", "112454.216000", "112454.219000", "112454.222000", "112454.225000", "112454.228000", "112454.231000", "112454.233000", "112454.236000", "112454.240000", "112454.243000", "112454.246000", "112454.249000", "112454.252000", "112534.177000", "112534.180000", "112534.183000", "112534.186000", "112534.189000", "112534.192000", "112534.195000", "112534.197000", "112534.200000", "112534.203000", "112534.206000", "112534.209000", "112534.212000", "112534.215000", "112534.218000", "112534.221000", "112534.224000", "112534.227000", "112534.229000", "112534.232000", "112534.235000", "112534.238000", "112534.241000", "112534.244000", "112534.247000", "112534.250000", "112534.252000", "112614.177000", "112614.180000", "112614.183000", "112614.186000", "112614.189000", "112614.192000", "112614.194000", "112614.197000", "112614.206000", "112614.209000", "112614.212000", "112614.215000", "112614.218000", "112614.221000", "112614.224000", "112614.227000", "112614.230000", "112614.233000", "112614.236000", "112614.238000", "112614.241000", "112614.244000", "112614.247000", "112614.250000", "112614.253000", "112614.256000", "112614.259000", "112654.178000", "112654.181000", "112654.184000", "112654.187000", "112654.190000", "112654.192000", "112654.195000", "112654.198000", "112654.201000", "112654.204000", "112654.207000", "112654.210000", "112654.213000", "112654.216000", "112654.219000", "112654.222000", "112654.224000", "112654.227000", "112654.230000", "112654.233000", "112654.236000", "112654.239000", "112654.242000", "112654.244000", "112654.247000", "112654.250000", "112654.253000", "112734.178000", "112734.181000", "112734.184000", "112734.187000", "112734.190000", "112734.192000", "112734.195000", "112734.198000", "112734.201000", "112734.204000", "112734.207000", "112734.210000", "112734.233000", "112734.236000", "112734.259000", "112734.262000", "112734.264000", "112734.267000", "112734.270000", "112734.273000", "112734.276000", "112734.279000", "112734.282000", "112734.285000", "112734.288000", "112734.291000", "112734.294000", "112754.177000", "112754.180000", "112754.183000", "112754.186000", "112754.189000", "112754.191000", "112754.194000", "112754.197000", "112754.200000", "112754.203000", "112754.206000", "112754.209000", "112754.212000", "112834.177000", "112834.180000", "112834.183000", "112834.186000", "112834.189000", "112834.192000", "112834.201000", "112834.204000", "112834.207000", "112834.210000", "112834.212000", "112834.215000", "112834.218000", "112834.221000", "112834.224000", "112834.227000", "112834.230000", "112834.233000", "112834.236000", "112834.239000", "112834.242000", "112834.245000", "112834.247000", "112834.250000", "112834.253000", "112834.256000", "112834.259000", "112914.178000", "112914.181000", "112914.184000", "112914.187000", "112914.190000", "112914.192000", "112914.195000", "112914.198000", "112914.201000", "112914.204000", "112914.207000", "112914.210000", "112914.213000", "112914.216000", "112914.219000", "112914.222000", "112914.225000", "112914.227000", "112914.230000", "112914.233000", "112914.236000", "112914.239000", "112914.242000", "112914.245000", "112914.248000", "112914.251000", "112914.253000", "112954.177000", "112954.180000", "112954.183000", "112954.186000", "112954.189000", "112954.196000", "112954.199000", "112954.202000", "112954.204000", "112954.207000", "112954.210000", "112954.213000", "112954.216000", "112954.226000", "112954.229000", "112954.232000", "112954.235000", "112954.238000", "112954.241000", "112954.244000", "112954.247000", "112954.250000", "112954.253000", "112954.255000", "112954.258000", "112954.261000", "112954.264000", "113034.177000", "113034.180000", "113034.183000", "113034.186000", "113034.189000", "113034.192000", "113034.195000", "113034.197000", "113034.200000", "113034.203000", "113034.206000", "113034.209000", "113034.212000", "113034.215000", "113034.218000", "113034.221000", "113034.224000", "113034.227000", "113034.229000", "113034.232000", "113034.235000", "113034.246000", "113034.249000", "113034.252000", "113034.255000", "113034.257000", "113034.260000", "113056.357000", "113056.360000", "113056.363000", "113056.366000", "113056.369000", "113056.372000", "113056.374000", "113056.377000", "113056.380000", "113056.383000", "113056.386000", "113056.389000", "113056.392000", "113056.395000", "113056.398000"],
