{
  "AcquisitionMatrixPE": 104,
  "AcquisitionNumber": 1,
  "AcquisitionTime": "10:53:18.087500",
  "BandwidthPerPixelPhaseEncode": 17.17,
  "BaseResolution": 104,
  "BodyPartExamined": "BRAIN",
  "CoilString": "HC1-7;NC1_2",
  "ConsistencyInfo": "N4_VE11C_LATEST_20160120",
  "ConversionSoftware": "dcm2niix",
  "ConversionSoftwareVersion": "v1.0.20190902",
  "DerivedVendorReportedEchoSpacing": 0.000560011,
  "DeviceSerialNumber": "167006",
  "DwellTime": 2.1e-06,
  "EchoTime": 0.037,
  "EchoTrainLength": 104,
  "EffectiveEchoSpacing": 0.000560011,
  "FlipAngle": 52,
  "HeudiconvVersion": "0.10.0",
  "ImageComments": "Unaliased_MB4_PE3_LB",
  "ImageOrientationPatientDICOM": [0.998988, -0.0053835, 0.0446593, 0.0273808, 0.860475, -0.508757],
  "ImageType": [
    "ORIGINAL",
    "PRIMARY",
    "M",
    "MB",
    "ND",
    "MOSAIC"
],
  "ImagingFrequency": 123.259,
  "InPlanePhaseEncodingDirectionDICOM": "COL",
  "InstitutionAddress": "Chemin_Queen-Mary_4565_Montreal_District_CA_H3W_1W5",
  "InstitutionName": "IUGM",
  "InstitutionalDepartmentName": "Department",
  "MRAcquisitionType": "2D",
  "MagneticFieldStrength": 3,
  "Manufacturer": "Siemens",
  "ManufacturersModelName": "Prisma_fit",
  "Modality": "MR",
  "MultibandAccelerationFactor": 4,
  "PartialFourier": 1,
  "PatientPosition": "HFS",
  "PercentPhaseFOV": 100,
  "PhaseEncodingDirection": "j",
  "PhaseEncodingSteps": 104,
  "PhaseResolution": 1,
  "PixelBandwidth": 2290,
  "ProcedureStepDescription": "video_friends",
  "ProtocolName": "func_task-friends-s06e05a",
  "PulseSequenceDetails": "%CustomerSeq%_cmrr_mbep2d_bold",
  "ReceiveCoilActiveElements": "HC1-7;NC1,2",
  "ReceiveCoilName": "HeadNeck_64",
  "ReconMatrixPE": 104,
  "RepetitionTime": 1.49,
  "SAR": 0.0457272,
  "ScanOptions": "FS",
  "ScanningSequence": "EP",
  "SequenceName": "epfid2d1_104",
  "SequenceVariant": "SK_SS",
  "SeriesDescription": "func_task-friends-s06e05a",
  "SeriesNumber": 11,
  "ShimSetting": [626, -7183, -8865, 311, -34, -167, 12, 0],
  "SliceThickness": 2,
  "SliceTiming": [0, 0.785, 0.0975, 0.8825, 0.1975, 0.98, 0.295, 1.0775, 0.3925, 1.1775, 0.49, 1.275, 0.5875, 1.3725, 0.6875, 0, 0.785, 0.0975, 0.8825, 0.1975, 0.98, 0.295, 1.0775, 0.3925, 1.1775, 0.49, 1.275, 0.5875, 1.3725, 0.6875, 0, 0.785, 0.0975, 0.8825, 0.1975, 0.98, 0.295, 1.0775, 0.3925, 1.1775, 0.49, 1.275, 0.5875, 1.3725, 0.6875, 0, 0.785, 0.0975, 0.8825, 0.1975, 0.98, 0.295, 1.0775, 0.3925, 1.1775, 0.49, 1.275, 0.5875, 1.3725, 0.6875],
  "SoftwareVersions": "syngo_MR_E11",
  "SpacingBetweenSlices": 2,
  "StationName": "MRC35049",
  "TaskName": "s06e05a",
  "TotalReadoutTime": 0.0576811,
  "TxRefAmp": 258.221,
  "WipMemBlock": "4a8a04f1-0164-496c-ae82-88776c0a645c||Sequence: R016 ve11c/master r/e634e98; Dec 19 2017 11:00:25 by eja",
  "dcmmeta_affine": [
    [-1.9979755878448486, 0.05476166680455208, 0.0713786780834198, 98.13726043701172],
    [0.010766992345452309, 1.7209491729736328, -1.0189298391342163, -60.016029357910156],
    [0.08931868523359299, 1.0175141096115112, 1.7195019721984863, -104.15731811523438],
    [0.0, 0.0, 0.0, 1.0]
],
  "dcmmeta_reorient_transform": [
    [0.0, -1.0, 0.0, 103.0],
    [1.0, 0.0, 0.0, 0.0],
    [0.0, 0.0, 1.0, 0.0],
    [0.0, 0.0, 0.0, 1.0]
],
  "dcmmeta_shape": [104, 104, 60, 452],
  "dcmmeta_slice_dim": 2,
  "dcmmeta_version": 0.6,
  "global": {
    "const": {
      "AcquisitionMatrix": [104, 0, 0, 104],
      "AngioFlag": "N",
      "BitsAllocated": 16,
      "BitsStored": 16,
      "BodyPartExamined": "BRAIN",
      "Columns": 832,
      "EchoNumbers": 1,
      "EchoTime": 37.0,
      "EchoTrainLength": 104,
      "FlipAngle": 52.0,
      "HighBit": 15,
      "ImageOrientationPatient": [0.99898776826694, -0.0053834960585, 0.0446593419481, 0.02738083376176, 0.8604745915214, -0.508757080824],
      "ImagePositionPatient": [-850.97405558241, -739.74805300654, 338.50979665006],
      "ImageType": [
        "ORIGINAL",
        "PRIMARY",
        "M",
        "MB",
        "ND",
        "MOSAIC"
],
      "ImagedNucleus": "1H",
      "ImagingFrequency": 123.258846,
      "InPlanePhaseEncodingDirection": "COL",
      "MRAcquisitionType": "2D",
      "MagneticFieldStrength": 3.0,
      "Manufacturer": "SIEMENS",
      "ManufacturerModelName": "Prisma_fit",
      "Modality": "MR",
      "NumberOfAverages": 1.0,
      "NumberOfPhaseEncodingSteps": 104,
      "PercentPhaseFieldOfView": 100.0,
      "PercentSampling": 100.0,
      "PerformedProcedureStepStartTime": "093245.515000",
      "PhotometricInterpretation": "MONOCHROME2",
      "PixelBandwidth": 2290.0,
      "PixelRepresentation": 0,
      "PixelSpacing": [2.0, 2.0],
      "ProtocolName": "func_task-friends-s06e05a",
      "RepetitionTime": 1490.0,
      "Rows": 832,
      "SAR": 0.04572720768014,
      "SamplesPerPixel": 1,
      "ScanOptions": "FS",
      "ScanningSequence": "EP",
      "SequenceName": "epfid2d1_104",
      "SequenceVariant": [
        "SK",
        "SS"
],
      "SeriesDescription": "func_task-friends-s06e05a",
      "SeriesNumber": 11,
      "SeriesTime": "105438.332000",
      "SliceLocation": -55.470840761421,
      "SliceThickness": 2.0,
      "SmallestImagePixelValue": 0,
      "SoftwareVersions": "syngo MR E11",
      "SpacingBetweenSlices": 2.0000000178311,
      "SpecificCharacterSet": "ISO_IR 100",
      "StudyID": "1",
      "StudyTime": "093245.377000",
      "TransmitCoilName": "Body",
      "VariableFlipAngleFlag": "N",
      "WindowCenterWidthExplanation": "Algo1",
      "dBdt": 0.0},
    "slices": {}
  },
  "time": {
    "samples": {
      "AcquisitionNumber": [1, 2, 3, 4, 5, 6, 7, 8, 9, 10, 11, 12, 13, 14, 15, 16, 17, 18, 19, 20, 21, 22, 23, 24, 25, 26, 27, 28, 29, 30, 31, 32, 33, 34, 35, 36, 37, 38, 39, 40, 41, 42, 43, 44, 45, 46, 47, 48, 49, 50, 51, 52, 53, 54, 55, 56, 57, 58, 59, 60, 61, 62, 63, 64, 65, 66, 67, 68, 69, 70, 71, 72, 73, 74, 75, 76, 77, 78, 79, 80, 81, 82, 83, 84, 85, 86, 87, 88, 89, 90, 91, 92, 93, 94, 95, 96, 97, 98, 99, 100, 101, 102, 103, 104, 105, 106, 107, 108, 109, 110, 111, 112, 113, 114, 115, 116, 117, 118, 119, 120, 121, 122, 123, 124, 125, 126, 127, 128, 129, 130, 131, 132, 133, 134, 135, 136, 137, 138, 139, 140, 141, 142, 143, 144, 145, 146, 147, 148, 149, 150, 151, 152, 153, 154, 155, 156, 157, 158, 159, 160, 161, 162, 163, 164, 165, 166, 167, 168, 169, 170, 171, 172, 173, 174, 175, 176, 177, 178, 179, 180, 181, 182, 183, 184, 185, 186, 187, 188, 189, 190, 191, 192, 193, 194, 195, 196, 197, 198, 199, 200, 201, 202, 203, 204, 205, 206, 207, 208, 209, 210, 211, 212, 213, 214, 215, 216, 217, 218, 219, 220, 221, 222, 223, 224, 225, 226, 227, 228, 229, 230, 231, 232, 233, 234, 235, 236, 237, 238, 239, 240, 241, 242, 243, 244, 245, 246, 247, 248, 249, 250, 251, 252, 253, 254, 255, 256, 257, 258, 259, 260, 261, 262, 263, 264, 265, 266, 267, 268, 269, 270, 271, 272, 273, 274, 275, 276, 277, 278, 279, 280, 281, 282, 283, 284, 285, 286, 287, 288, 289, 290, 291, 292, 293, 294, 295, 296, 297, 298, 299, 300, 301, 302, 303, 304, 305, 306, 307, 308, 309, 310, 311, 312, 313, 314, 315, 316, 317, 318, 319, 320, 321, 322, 323, 324, 325, 326, 327, 328, 329, 330, 331, 332, 333, 334, 335, 336, 337, 338, 339, 340, 341, 342, 343, 344, 345, 346, 347, 348, 349, 350, 351, 352, 353, 354, 355, 356, 357, 358, 359, 360, 361, 362, 363, 364, 365, 366, 367, 368, 369, 370, 371, 372, 373, 374, 375, 376, 377, 378, 379, 380, 381, 382, 383, 384, 385, 386, 387, 388, 389, 390, 391, 392, 393, 394, 395, 396, 397, 398, 399, 400, 401, 402, 403, 404, 405, 406, 407, 408, 409, 410, 411, 412, 413, 414, 415, 416, 417, 418, 419, 420, 421, 422, 423, 424, 425, 426, 427, 428, 429, 430, 431, 432, 433, 434, 435, 436, 437, 438, 439, 440, 441, 442, 443, 444, 445, 446, 447, 448, 449, 450, 451, 452],
      "AcquisitionTime": ["105318.087500", "105319.577500", "105321.067500", "105322.557500", "105324.047500", "105325.537500", "105327.027500", "105328.517500", "105330.007500", "105331.497500", "105332.987500", "105334.477500", "105335.967500", "105337.457500", "105338.947500", "105340.437500", "105341.927500", "105343.417500", "105344.907500", "105346.397500", "105347.887500", "105349.377500", "105350.867500", "105352.357500", "105353.847500", "105355.337500", "105356.827500", "105358.317500", "105359.807500", "105401.297500", "105402.787500", "105404.277500", "105405.767500", "105407.257500", "105408.747500", "105410.237500", "105411.727500", "105413.217500", "105414.707500", "105416.197500", "105417.687500", "105419.177500", "105420.667500", "105422.157500", "105423.647500", "105425.137500", "105426.627500", "105428.117500", "105429.607500", "105431.097500", "105432.587500", "105434.077500", "105435.567500", "105437.057500", "105438.547500", "105440.037500", "105441.527500", "105443.017500", "105444.507500", "105445.997500", "105447.487500", "105448.977500", "105450.467500", "105451.957500", "105453.447500", "105454.937500", "105456.427500", "105457.917500", "105459.407500", "105500.897500", "105502.387500", "105503.877500", "105505.367500", "105506.857500", "105508.347500", "105509.837500", "105511.327500", "105512.817500", "105514.307500", "105515.797500", "105517.287500", "105518.777500", "105520.267500", "105521.757500", "105523.247500", "105524.737500", "105526.227500", "105527.717500", "105529.207500", "105530.697500", "105532.187500", "105533.677500", "105535.167500", "105536.657500", "105538.147500", "105539.637500", "105541.127500", "105542.617500", "105544.107500", "105545.597500", "105547.087500", "105548.577500", "105550.067500", "105551.557500", "105553.047500", "105554.537500", "105556.027500", "105557.517500", "105559.007500", "105600.497500", "105601.987500", "105603.477500", "105604.967500", "105606.457500", "105607.947500", "105609.437500", "105610.927500", "105612.417500", "105613.907500", "105615.397500", "105616.887500", "105618.377500", "105619.867500", "105621.357500", "105622.847500", "105624.337500", "105625.827500", "105627.317500", "105628.807500", "105630.297500", "105631.787500", "105633.277500", "105634.767500", "105636.257500", "105637.747500", "105639.237500", "105640.727500", "105642.217500", "105643.707500", "105645.197500", "105646.687500", "105648.177500", "105649.667500", "105651.157500", "105652.647500", "105654.137500", "105655.627500", "105657.117500", "105658.607500", "105700.097500", "105701.587500", "105703.077500", "105704.567500", "105706.057500", "105707.547500", "105709.037500", "105710.527500", "105712.017500", "105713.507500", "105714.997500", "105716.487500", "105717.977500", "105719.467500", "105720.957500", "105722.447500", "105723.937500", "105725.427500", "105726.917500", "105728.407500", "105729.897500", "105731.387500", "105732.877500", "105734.367500", "105735.857500", "105737.347500", "105738.837500", "105740.327500", "105741.817500", "105743.307500", "105744.797500", "105746.287500", "105747.777500", "105749.267500", "105750.757500", "105752.247500", "105753.737500", "105755.227500", "105756.717500", "105758.207500", "105759.697500", "105801.187500", "105802.677500", "105804.167500", "105805.657500", "105807.147500", "105808.637500", "105810.127500", "105811.617500", "105813.107500", "105814.597500", "105816.087500", "105817.577500", "105819.067500", "105820.557500", "105822.047500", "105823.537500", "105825.027500", "105826.517500", "105828.007500", "105829.497500", "105830.987500", "105832.477500", "105833.967500", "105835.457500", "105836.947500", "105838.437500", "105839.927500", "105841.417500", "105842.907500", "105844.397500", "105845.887500", "105847.377500", "105848.867500", "105850.357500", "105851.847500", "105853.337500", "105854.827500", "105856.317500", "105857.807500", "105859.297500", "105900.787500", "105902.277500", "105903.767500", "105905.257500", "105906.747500", "105908.237500", "105909.727500", "105911.217500", "105912.707500", "105914.197500", "105915.687500", "105917.177500", "105918.667500", "105920.157500", "105921.647500", "105923.137500", "105924.627500", "105926.117500", "105927.607500", "105929.097500", "105930.587500", "105932.077500", "105933.567500", "105935.057500", "105936.547500", "105938.037500", "105939.527500", "105941.017500", "105942.507500", "105943.997500", "105945.487500", "105946.977500", "105948.467500", "105949.957500", "105951.447500", "105952.937500", "105954.427500", "105955.917500", "105957.407500", "105958.897500", "110000.387500", "110001.877500", "110003.367500", "110004.857500", "110006.347500", "110007.837500", "110009.327500", "110010.817500", "110012.307500", "110013.797500", "110015.287500", "110016.777500", "110018.267500", "110019.757500", "110021.247500", "110022.737500", "110024.227500", "110025.717500", "110027.207500", "110028.697500", "110030.187500", "110031.677500", "110033.167500", "110034.657500", "110036.147500", "110037.637500", "110039.127500", "110040.617500", "110042.107500", "110043.597500", "110045.087500", "110046.577500", "110048.067500", "110049.557500", "110051.047500", "110052.537500", "110054.027500", "110055.517500", "110057.007500", "110058.497500", "110059.987500", "110101.477500", "110102.967500", "110104.457500", "110105.947500", "110107.437500", "110108.927500", "110110.417500", "110111.907500", "110113.397500", "110114.887500", "110116.377500", "110117.867500", "110119.357500", "110120.847500", "110122.337500", "110123.827500", "110125.317500", "110126.807500", "110128.297500", "110129.787500", "110131.277500", "110132.767500", "110134.257500", "110135.747500", "110137.237500", "110138.727500", "110140.217500", "110141.707500", "110143.197500", "110144.687500", "110146.177500", "110147.667500", "110149.157500", "110150.647500", "110152.137500", "110153.627500", "110155.117500", "110156.607500", "110158.097500", "110159.587500", "110201.077500", "110202.567500", "110204.057500", "110205.547500", "110207.037500", "110208.527500", "110210.017500", "110211.507500", "110212.997500", "110214.487500", "110215.977500", "110217.467500", "110218.957500", "110220.447500", "110221.937500", "110223.427500", "110224.917500", "110226.407500", "110227.897500", "110229.387500", "110230.877500", "110232.367500", "110233.857500", "110235.347500", "110236.837500", "110238.327500", "110239.817500", "110241.307500", "110242.797500", "110244.287500", "110245.777500", "110247.267500", "110248.757500", "110250.247500", "110251.737500", "110253.227500", "110254.717500", "110256.207500", "110257.697500", "110259.187500", "110300.677500", "110302.167500", "110303.657500", "110305.147500", "110306.637500", "110308.127500", "110309.617500", "110311.107500", "110312.597500", "110314.087500", "110315.577500", "110317.067500", "110318.557500", "110320.047500", "110321.537500", "110323.027500", "110324.517500", "110326.007500", "110327.497500", "110328.987500", "110330.477500", "110331.967500", "110333.457500", "110334.947500", "110336.437500", "110337.927500", "110339.417500", "110340.907500", "110342.397500", "110343.887500", "110345.377500", "110346.867500", "110348.357500", "110349.847500", "110351.337500", "110352.827500", "110354.317500", "110355.807500", "110357.297500", "110358.787500", "110400.277500", "110401.767500", "110403.257500", "110404.747500", "110406.237500", "110407.727500", "110409.217500", "110410.707500", "110412.197500", "110413.687500", "110415.177500", "110416.667500", "110418.157500", "110419.647500", "110421.137500", "110422.627500", "110424.117500", "110425.607500", "110427.097500", "110428.587500", "110430.077500"],
      "ContentTime": ["105438.335000", "105438.338000", "105438.341000", "105438.344000", "105438.347000", "105438.349000", "105438.362000", "105438.365000", "105438.368000", "105438.371000", "105438.374000", "105438.376000", "105438.379000", "105438.382000", "105438.385000", "105438.388000", "105438.391000", "105438.399000", "105438.406000", "105438.409000", "105438.412000", "105438.415000", "105438.417000", "105438.420000", "105438.423000", "105518.300000", "105518.303000", "105518.306000", "105518.309000", "105518.312000", "105518.315000", "105518.318000", "105518.321000", "105518.323000", "105518.326000", "105518.329000", "105518.332000", "105518.335000", "105518.338000", "105518.341000", "105518.344000", "105518.347000", "105518.349000", "105518.353000", "105518.356000", "105518.358000", "105518.361000", "105518.364000", "105518.367000", "105518.370000", "105518.373000", "105518.376000", "105518.379000", "105518.382000", "105518.385000", "105518.387000", "105518.390000", "105518.393000", "105518.396000", "105518.406000", "105518.409000", "105518.412000", "105518.415000", "105518.418000", "105518.421000", "105538.300000", "105538.314000", "105538.317000", "105538.320000", "105538.322000", "105538.325000", "105538.328000", "105538.331000", "105538.334000", "105538.337000", "105538.340000", "105538.343000", "105538.346000", "105538.349000", "105538.352000", "105538.355000", "105538.358000", "105538.360000", "105538.363000", "105538.366000", "105558.300000", "105558.303000", "105558.306000", "105558.309000", "105558.312000", "105558.315000", "105558.318000", "105558.321000", "105558.324000", "105558.327000", "105558.330000", "105558.333000", "105558.336000", "105558.339000", "105558.342000", "105558.344000", "105558.347000", "105558.350000", "105558.353000", "105558.356000", "105638.301000", "105638.304000", "105638.307000", "105638.310000", "105638.313000", "105638.316000", "105638.319000", "105638.322000", "105638.324000", "105638.327000", "105638.330000", "105638.347000", "105638.350000", "105638.353000", "105638.356000", "105638.359000", "105638.362000", "105638.365000", "105638.368000", "105638.371000", "105638.373000", "105638.376000", "105638.379000", "105638.382000", "105638.385000", "105638.388000", "105638.396000", "105638.399000", "105718.300000", "105718.341000", "105718.344000", "105718.347000", "105718.350000", "105718.353000", "105718.356000", "105718.359000", "105718.362000", "105718.364000", "105718.367000", "105718.370000", "105718.373000", "105718.376000", "105718.379000", "105718.382000", "105718.385000", "105718.387000", "105718.390000", "105718.393000", "105718.396000", "105718.399000", "105718.402000", "105718.405000", "105718.415000", "105718.418000", "105718.421000", "105738.300000", "105738.303000", "105738.313000", "105738.316000", "105738.319000", "105738.322000", "105738.325000", "105738.328000", "105738.331000", "105738.334000", "105738.337000", "105738.341000", "105738.346000", "105818.300000", "105818.303000", "105818.306000", "105818.309000", "105818.312000", "105818.315000", "105818.318000", "105818.321000", "105818.324000", "105818.327000", "105818.330000", "105818.333000", "105818.335000", "105818.338000", "105818.341000", "105818.344000", "105818.347000", "105818.351000", "105818.354000", "105818.357000", "105818.359000", "105818.362000", "105818.365000", "105818.368000", "105818.371000", "105818.374000", "105818.377000", "105858.301000", "105858.304000", "105858.307000", "105858.310000", "105858.313000", "105858.316000", "105858.318000", "105858.321000", "105858.324000", "105858.327000", "105858.330000", "105858.333000", "105858.336000", "105858.339000", "105858.341000", "105858.344000", "105858.347000", "105858.350000", "105858.353000", "105858.356000", "105858.366000", "105858.369000", "105858.372000", "105858.375000", "105858.378000", "105858.381000", "105858.384000", "105938.300000", "105938.342000", "105938.344000", "105938.347000", "105938.350000", "105938.353000", "105938.356000", "105938.359000", "105938.362000", "105938.365000", "105938.368000", "105938.370000", "105938.373000", "105938.376000", "105938.379000", "105938.382000", "105938.385000", "105938.388000", "105938.391000", "105938.393000", "105938.396000", "105938.399000", "105938.402000", "105938.405000", "105938.408000", "105938.411000", "105938.414000", "110018.300000", "110018.303000", "110018.306000", "110018.309000", "110018.312000", "110018.315000", "110018.318000", "110018.321000", "110018.324000", "110018.326000", "110018.347000", "110018.350000", "110018.353000", "110018.356000", "110018.359000", "110018.362000", "110018.365000", "110018.367000", "110018.370000", "110018.373000", "110018.376000", "110018.379000", "110018.382000", "110018.385000", "110018.388000", "110018.391000", "110018.393000", "110058.301000", "110058.304000", "110058.307000", "110058.310000", "110058.313000", "110058.316000", "110058.319000", "110058.322000", "110058.324000", "110058.327000", "110058.330000", "110058.333000", "110058.336000", "110058.339000", "110058.342000", "110058.344000", "110058.347000", "110058.356000", "110058.359000", "110058.362000", "110058.365000", "110058.368000", "110058.371000", "110058.374000", "110058.377000", "110058.379000", "110058.382000", "110138.301000", "110138.304000", "110138.307000", "110138.310000", "110138.313000", "110138.327000", "110138.330000", "110138.333000", "110138.336000", "110138.339000", "110138.342000", "110138.344000", "110138.347000", "110138.350000", "110138.353000", "110138.356000", "110138.359000", "110138.362000", "110138.365000", "110138.368000", "110138.371000", "110138.373000", "110138.376000", "110138.379000", "110138.382000", "110138.385000", "110138.388000", "110218.300000", "110218.303000", "110218.306000", "110218.309000", "110218.312000", "110218.315000", "110218.318000", "110218.321000", "110218.324000", "110218.326000", "110218.329000", "110218.333000", "110218.337000", "110218.339000", "110218.342000", "110218.345000", "110218.348000", "110218.351000", "110218.354000", "110218.357000", "110218.360000", "110218.363000", "110218.366000", "110218.368000", "110218.371000", "110218.374000", "110258.301000", "110258.304000", "110258.307000", "110258.310000", "110258.313000", "110258.316000", "110258.319000", "110258.322000", "110258.327000", "110258.330000", "110258.333000", "110258.336000", "110258.339000", "110258.341000", "110258.344000", "110258.347000", "110258.350000", "110258.353000", "110258.356000", "110258.359000", "110258.362000", "110258.365000", "110258.367000", "110258.370000", "110258.373000", "110258.376000", "110258.379000", "110338.301000", "110338.304000", "110338.307000", "110338.310000", "110338.313000", "110338.316000", "110338.319000", "110338.322000", "110338.325000", "110338.327000", "110338.330000", "110338.333000", "110338.336000", "110338.339000", "110338.342000", "110338.345000", "110338.348000", "110338.351000", "110338.353000", "110338.356000", "110338.359000", "110338.362000", "110338.365000", "110338.368000", "110338.371000", "110338.374000", "110338.377000", "110418.300000", "110418.303000", "110418.306000", "110418.309000", "110418.312000", "110418.315000", "110418.318000", "110418.321000", "110418.323000", "110418.326000", "110418.329000", "110418.332000", "110418.335000", "110418.338000", "110418.347000", "110418.350000", "110418.353000", "110418.356000", "110418.359000", "110418.362000", "110418.364000", "110418.367000", "110418.370000", "110418.373000", "110418.376000", "110418.379000", "110418.382000", "110432.626000", "110432.629000", "110432.632000", "110432.635000", "110432.639000", "110432.642000", "110432.645000", "110432.648000", "110432.651000", "110432.654000"],
