{
  "AcquisitionMatrixPE": 104,
  "AcquisitionNumber": 1,
  "AcquisitionTime": "14:48:58.502500",
  "BandwidthPerPixelPhaseEncode": 17.17,
  "BaseResolution": 104,
  "BodyPartExamined": "BRAIN",
  "CoilString": "HC1-7;NC1_2",
  "ConsistencyInfo": "N4_VE11C_LATEST_20160120",
  "ConversionSoftware": "dcm2niix",
  "ConversionSoftwareVersion": "v1.0.20190720  (JP2:OpenJPEG) GCC7.3.0",
  "DerivedVendorReportedEchoSpacing": 0.000560011,
  "DeviceSerialNumber": "167006",
  "DwellTime": 2.1e-06,
  "EchoTime": 0.037,
  "EchoTrainLength": 104,
  "EffectiveEchoSpacing": 0.000560011,
  "FlipAngle": 52,
  "ImageComments": "Unaliased_MB4_PE3_LB",
  "ImageOrientationPatientDICOM": [0.998434, -0.010496, -0.0549523, -0.00209105, 0.974556, -0.224134],
  "ImageType": [
    "ORIGINAL",
    "PRIMARY",
    "M",
    "MB",
    "ND",
    "MOSAIC"
],
  "ImagingFrequency": 123.259,
  "InPlanePhaseEncodingDirectionDICOM": "COL",
  "InstitutionAddress": "Chemin_Queen-Mary_4565_Montreal_District_CA_H3W_1W5",
  "InstitutionName": "IUGM",
  "InstitutionalDepartmentName": "Department",
  "MRAcquisitionType": "2D",
  "MagneticFieldStrength": 3,
  "Manufacturer": "Siemens",
  "ManufacturersModelName": "Prisma_fit",
  "Modality": "MR",
  "MultibandAccelerationFactor": 4,
  "PartialFourier": 1,
  "PatientPosition": "HFS",
  "PercentPhaseFOV": 100,
  "PhaseEncodingDirection": "j",
  "PhaseEncodingSteps": 104,
  "PhaseResolution": 1,
  "PixelBandwidth": 2290,
  "ProcedureStepDescription": "video_friends",
  "ProtocolName": "func_task-s01e02b",
  "PulseSequenceDetails": "%CustomerSeq%_cmrr_mbep2d_bold",
  "ReceiveCoilActiveElements": "HC1-7;NC1,2",
  "ReceiveCoilName": "HeadNeck_64",
  "ReconMatrixPE": 104,
  "RepetitionTime": 1.49,
  "SAR": 0.0292639,
  "ScanOptions": "FS",
  "ScanningSequence": "EP",
  "SequenceName": "epfid2d1_104",
  "SequenceVariant": "SK_SS",
  "SeriesDescription": "func_task-s01e02b",
  "SeriesNumber": 12,
  "ShimSetting": [604, -7266, -8827, 585, -45, -350, 0, 57],
  "SliceThickness": 2,
  "SliceTiming": [0, 0.785, 0.0975, 0.8825, 0.1975, 0.98, 0.295, 1.0775, 0.3925, 1.1775, 0.49, 1.275, 0.5875, 1.3725, 0.6875, 0, 0.785, 0.0975, 0.8825, 0.1975, 0.98, 0.295, 1.0775, 0.3925, 1.1775, 0.49, 1.275, 0.5875, 1.3725, 0.6875, 0, 0.785, 0.0975, 0.8825, 0.1975, 0.98, 0.295, 1.0775, 0.3925, 1.1775, 0.49, 1.275, 0.5875, 1.3725, 0.6875, 0, 0.785, 0.0975, 0.8825, 0.1975, 0.98, 0.295, 1.0775, 0.3925, 1.1775, 0.49, 1.275, 0.5875, 1.3725, 0.6875],
  "SoftwareVersions": "syngo_MR_E11",
  "SpacingBetweenSlices": 2,
  "StationName": "MRC35049",
  "TaskName": "friends",
  "TotalReadoutTime": 0.0576811,
  "TxRefAmp": 217.311,
  "WipMemBlock": "dca82417-417b-4cd7-b495-6cd064faccf5||Sequence: R016 ve11c/master r/e634e98; Dec 19 2017 11:00:25 by eja",
  "dcmmeta_affine": [
    [-1.9968676567077637, -0.004182097967714071, -0.1118132695555687, 101.43782043457031],
    [0.02099195308983326, 1.9491121768951416, -0.44779595732688904, -82.9533920288086],
    [-0.10990466177463531, 0.44826820492744446, 1.9460155963897705, -46.46493911743164],
    [0.0, 0.0, 0.0, 1.0]
],
  "dcmmeta_reorient_transform": [
    [0.0, -1.0, 0.0, 103.0],
    [1.0, 0.0, 0.0, 0.0],
    [0.0, 0.0, 1.0, 0.0],
    [0.0, 0.0, 0.0, 1.0]
],
  "dcmmeta_shape": [104, 104, 60, 472],
  "dcmmeta_slice_dim": 2,
  "dcmmeta_version": 0.6,
  "global": {
    "const": {
      "AcquisitionMatrix": [104, 0, 0, 104],
      "AngioFlag": "N",
      "BitsAllocated": 16,
      "BitsStored": 16,
      "BodyPartExamined": "BRAIN",
      "Columns": 832,
      "EchoNumbers": 1,
      "EchoTime": 37.0,
      "EchoTrainLength": 104,
      "FlipAngle": 52.0,
      "HighBit": 15,
      "ImageOrientationPatient": [0.99843381141626, -0.010495976482, -0.0549523311469, -0.0020910490054, 0.97455606824319, -0.2241341057591],
      "ImagePositionPatient": [-826.34459778805, -819.64090596748, 202.8816133513],
      "ImageType": [
        "ORIGINAL",
        "PRIMARY",
        "M",
        "MB",
        "ND",
        "MOSAIC"
],
      "ImagedNucleus": "1H",
      "ImagingFrequency": 123.259135,
      "InPlanePhaseEncodingDirection": "COL",
      "MRAcquisitionType": "2D",
      "MagneticFieldStrength": 3.0,
      "Manufacturer": "SIEMENS",
      "ManufacturerModelName": "Prisma_fit",
      "Modality": "MR",
      "NumberOfAverages": 1.0,
      "NumberOfPhaseEncodingSteps": 104,
      "PercentPhaseFieldOfView": 100.0,
      "PercentSampling": 100.0,
      "PerformedProcedureStepStartTime": "141100.045000",
      "PhotometricInterpretation": "MONOCHROME2",
      "PixelBandwidth": 2290.0,
      "PixelRepresentation": 0,
      "PixelSpacing": [2.0, 2.0],
      "ProtocolName": "func_task-s01e02b",
      "RepetitionTime": 1490.0,
      "Rows": 832,
      "SAR": 0.02926393704185,
      "SamplesPerPixel": 1,
      "ScanOptions": "FS",
      "ScanningSequence": "EP",
      "SequenceName": "epfid2d1_104",
      "SequenceVariant": [
        "SK",
        "SS"
],
      "SeriesDescription": "func_task-s01e02b",
      "SeriesNumber": 12,
      "SeriesTime": "145029.689000",
      "SliceLocation": -32.308697552677,
      "SliceThickness": 2.0,
      "SmallestImagePixelValue": 0,
      "SoftwareVersions": "syngo MR E11",
      "SpacingBetweenSlices": 2.0000000643943,
      "SpecificCharacterSet": "ISO_IR 100",
      "StudyID": "1",
      "StudyTime": "141059.961000",
      "TransmitCoilName": "Body",
      "VariableFlipAngleFlag": "N",
      "WindowCenterWidthExplanation": "Algo1",
      "dBdt": 0.0},
    "slices": {}
  },
  "time": {
    "samples": {
      "AcquisitionNumber": [1, 2, 3, 4, 5, 6, 7, 8, 9, 10, 11, 12, 13, 14, 15, 16, 17, 18, 19, 20, 21, 22, 23, 24, 25, 26, 27, 28, 29, 30, 31, 32, 33, 34, 35, 36, 37, 38, 39, 40, 41, 42, 43, 44, 45, 46, 47, 48, 49, 50, 51, 52, 53, 54, 55, 56, 57, 58, 59, 60, 61, 62, 63, 64, 65, 66, 67, 68, 69, 70, 71, 72, 73, 74, 75, 76, 77, 78, 79, 80, 81, 82, 83, 84, 85, 86, 87, 88, 89, 90, 91, 92, 93, 94, 95, 96, 97, 98, 99, 100, 101, 102, 103, 104, 105, 106, 107, 108, 109, 110, 111, 112, 113, 114, 115, 116, 117, 118, 119, 120, 121, 122, 123, 124, 125, 126, 127, 128, 129, 130, 131, 132, 133, 134, 135, 136, 137, 138, 139, 140, 141, 142, 143, 144, 145, 146, 147, 148, 149, 150, 151, 152, 153, 154, 155, 156, 157, 158, 159, 160, 161, 162, 163, 164, 165, 166, 167, 168, 169, 170, 171, 172, 173, 174, 175, 176, 177, 178, 179, 180, 181, 182, 183, 184, 185, 186, 187, 188, 189, 190, 191, 192, 193, 194, 195, 196, 197, 198, 199, 200, 201, 202, 203, 204, 205, 206, 207, 208, 209, 210, 211, 212, 213, 214, 215, 216, 217, 218, 219, 220, 221, 222, 223, 224, 225, 226, 227, 228, 229, 230, 231, 232, 233, 234, 235, 236, 237, 238, 239, 240, 241, 242, 243, 244, 245, 246, 247, 248, 249, 250, 251, 252, 253, 254, 255, 256, 257, 258, 259, 260, 261, 262, 263, 264, 265, 266, 267, 268, 269, 270, 271, 272, 273, 274, 275, 276, 277, 278, 279, 280, 281, 282, 283, 284, 285, 286, 287, 288, 289, 290, 291, 292, 293, 294, 295, 296, 297, 298, 299, 300, 301, 302, 303, 304, 305, 306, 307, 308, 309, 310, 311, 312, 313, 314, 315, 316, 317, 318, 319, 320, 321, 322, 323, 324, 325, 326, 327, 328, 329, 330, 331, 332, 333, 334, 335, 336, 337, 338, 339, 340, 341, 342, 343, 344, 345, 346, 347, 348, 349, 350, 351, 352, 353, 354, 355, 356, 357, 358, 359, 360, 361, 362, 363, 364, 365, 366, 367, 368, 369, 370, 371, 372, 373, 374, 375, 376, 377, 378, 379, 380, 381, 382, 383, 384, 385, 386, 387, 388, 389, 390, 391, 392, 393, 394, 395, 396, 397, 398, 399, 400, 401, 402, 403, 404, 405, 406, 407, 408, 409, 410, 411, 412, 413, 414, 415, 416, 417, 418, 419, 420, 421, 422, 423, 424, 425, 426, 427, 428, 429, 430, 431, 432, 433, 434, 435, 436, 437, 438, 439, 440, 441, 442, 443, 444, 445, 446, 447, 448, 449, 450, 451, 452, 453, 454, 455, 456, 457, 458, 459, 460, 461, 462, 463, 464, 465, 466, 467, 468, 469, 470, 471, 472],
      "AcquisitionTime": ["144858.502500", "144859.992500", "144901.482500", "144902.972500", "144904.462500", "144905.952500", "144907.442500", "144908.932500", "144910.422500", "144911.912500", "144913.402500", "144914.892500", "144916.382500", "144917.872500", "144919.362500", "144920.852500", "144922.342500", "144923.832500", "144925.322500", "144926.812500", "144928.302500", "144929.792500", "144931.282500", "144932.772500", "144934.262500", "144935.752500", "144937.242500", "144938.732500", "144940.222500", "144941.712500", "144943.202500", "144944.692500", "144946.182500", "144947.672500", "144949.162500", "144950.652500", "144952.142500", "144953.632500", "144955.122500", "144956.612500", "144958.102500", "144959.592500", "145001.082500", "145002.572500", "145004.062500", "145005.552500", "145007.042500", "145008.532500", "145010.022500", "145011.512500", "145013.002500", "145014.492500", "145015.982500", "145017.472500", "145018.962500", "145020.452500", "145021.942500", "145023.432500", "145024.922500", "145026.412500", "145027.902500", "145029.392500", "145030.882500", "145032.372500", "145033.862500", "145035.352500", "145036.842500", "145038.332500", "145039.822500", "145041.312500", "145042.802500", "145044.292500", "145045.782500", "145047.272500", "145048.762500", "145050.252500", "145051.742500", "145053.232500", "145054.722500", "145056.212500", "145057.702500", "145059.192500", "145100.682500", "145102.172500", "145103.662500", "145105.152500", "145106.642500", "145108.132500", "145109.622500", "145111.112500", "145112.602500", "145114.092500", "145115.582500", "145117.072500", "145118.562500", "145120.052500", "145121.542500", "145123.032500", "145124.522500", "145126.012500", "145127.502500", "145128.992500", "145130.482500", "145131.972500", "145133.462500", "145134.952500", "145136.442500", "145137.932500", "145139.422500", "145140.912500", "145142.402500", "145143.892500", "145145.382500", "145146.872500", "145148.362500", "145149.852500", "145151.342500", "145152.832500", "145154.322500", "145155.812500", "145157.302500", "145158.792500", "145200.282500", "145201.772500", "145203.262500", "145204.752500", "145206.242500", "145207.732500", "145209.222500", "145210.712500", "145212.202500", "145213.692500", "145215.182500", "145216.672500", "145218.162500", "145219.652500", "145221.142500", "145222.632500", "145224.122500", "145225.612500", "145227.102500", "145228.592500", "145230.082500", "145231.572500", "145233.062500", "145234.552500", "145236.042500", "145237.532500", "145239.022500", "145240.512500", "145242.002500", "145243.492500", "145244.982500", "145246.472500", "145247.962500", "145249.452500", "145250.942500", "145252.432500", "145253.922500", "145255.412500", "145256.902500", "145258.392500", "145259.882500", "145301.372500", "145302.862500", "145304.352500", "145305.842500", "145307.332500", "145308.822500", "145310.312500", "145311.802500", "145313.292500", "145314.782500", "145316.272500", "145317.762500", "145319.252500", "145320.742500", "145322.232500", "145323.722500", "145325.212500", "145326.702500", "145328.192500", "145329.682500", "145331.172500", "145332.662500", "145334.152500", "145335.642500", "145337.132500", "145338.622500", "145340.112500", "145341.602500", "145343.092500", "145344.582500", "145346.072500", "145347.562500", "145349.052500", "145350.542500", "145352.032500", "145353.522500", "145355.012500", "145356.502500", "145357.992500", "145359.482500", "145400.972500", "145402.462500", "145403.952500", "145405.442500", "145406.932500", "145408.422500", "145409.912500", "145411.402500", "145412.892500", "145414.382500", "145415.872500", "145417.362500", "145418.852500", "145420.342500", "145421.832500", "145423.322500", "145424.812500", "145426.302500", "145427.792500", "145429.282500", "145430.772500", "145432.262500", "145433.752500", "145435.242500", "145436.732500", "145438.222500", "145439.712500", "145441.202500", "145442.692500", "145444.182500", "145445.672500", "145447.162500", "145448.652500", "145450.142500", "145451.632500", "145453.122500", "145454.612500", "145456.102500", "145457.592500", "145459.082500", "145500.572500", "145502.062500", "145503.552500", "145505.042500", "145506.532500", "145508.022500", "145509.512500", "145511.002500", "145512.492500", "145513.982500", "145515.472500", "145516.962500", "145518.452500", "145519.942500", "145521.432500", "145522.922500", "145524.412500", "145525.902500", "145527.392500", "145528.882500", "145530.372500", "145531.862500", "145533.352500", "145534.842500", "145536.332500", "145537.822500", "145539.312500", "145540.802500", "145542.292500", "145543.782500", "145545.272500", "145546.762500", "145548.252500", "145549.742500", "145551.232500", "145552.722500", "145554.212500", "145555.702500", "145557.192500", "145558.682500", "145600.172500", "145601.662500", "145603.152500", "145604.642500", "145606.132500", "145607.622500", "145609.112500", "145610.602500", "145612.092500", "145613.582500", "145615.072500", "145616.562500", "145618.052500", "145619.542500", "145621.032500", "145622.522500", "145624.012500", "145625.502500", "145626.992500", "145628.482500", "145629.972500", "145631.462500", "145632.952500", "145634.442500", "145635.932500", "145637.422500", "145638.912500", "145640.402500", "145641.892500", "145643.382500", "145644.872500", "145646.362500", "145647.852500", "145649.342500", "145650.832500", "145652.322500", "145653.812500", "145655.302500", "145656.792500", "145658.282500", "145659.772500", "145701.262500", "145702.752500", "145704.242500", "145705.732500", "145707.222500", "145708.712500", "145710.202500", "145711.692500", "145713.182500", "145714.672500", "145716.162500", "145717.652500", "145719.142500", "145720.632500", "145722.122500", "145723.612500", "145725.102500", "145726.592500", "145728.082500", "145729.572500", "145731.062500", "145732.552500", "145734.042500", "145735.532500", "145737.022500", "145738.512500", "145740.002500", "145741.492500", "145742.982500", "145744.472500", "145745.962500", "145747.452500", "145748.942500", "145750.432500", "145751.922500", "145753.412500", "145754.902500", "145756.392500", "145757.882500", "145759.372500", "145800.862500", "145802.352500", "145803.842500", "145805.332500", "145806.822500", "145808.312500", "145809.802500", "145811.292500", "145812.782500", "145814.272500", "145815.762500", "145817.252500", "145818.742500", "145820.232500", "145821.722500", "145823.212500", "145824.702500", "145826.192500", "145827.682500", "145829.172500", "145830.662500", "145832.152500", "145833.642500", "145835.132500", "145836.622500", "145838.112500", "145839.602500", "145841.092500", "145842.582500", "145844.072500", "145845.562500", "145847.052500", "145848.542500", "145850.032500", "145851.522500", "145853.012500", "145854.502500", "145855.992500", "145857.482500", "145858.972500", "145900.462500", "145901.952500", "145903.442500", "145904.932500", "145906.422500", "145907.912500", "145909.402500", "145910.892500", "145912.382500", "145913.872500", "145915.362500", "145916.852500", "145918.342500", "145919.832500", "145921.322500", "145922.812500", "145924.302500", "145925.792500", "145927.282500", "145928.772500", "145930.262500", "145931.752500", "145933.242500", "145934.732500", "145936.222500", "145937.712500", "145939.202500", "145940.692500", "145942.182500", "145943.672500", "145945.162500", "145946.652500", "145948.142500", "145949.632500", "145951.122500", "145952.612500", "145954.102500", "145955.592500", "145957.082500", "145958.572500", "150000.062500", "150001.552500", "150003.042500", "150004.532500", "150006.022500", "150007.512500", "150009.002500", "150010.492500", "150011.982500", "150013.472500", "150014.962500", "150016.452500", "150017.942500", "150019.432500", "150020.922500", "150022.412500", "150023.902500", "150025.392500", "150026.882500", "150028.372500", "150029.862500", "150031.352500", "150032.842500", "150034.332500", "150035.822500", "150037.312500", "150038.802500", "150040.292500"],
      "ContentTime": ["145029.691000", "145029.695000", "145029.699000", "145029.702000", "145029.704000", "145029.707000", "145029.710000", "145029.713000", "145029.716000", "145029.718000", "145029.726000", "145029.729000", "145029.731000", "145029.734000", "145029.737000", "145029.740000", "145029.743000", "145029.746000", "145029.748000", "145029.751000", "145029.754000", "145029.757000", "145029.760000", "145029.771000", "145029.774000", "145029.777000", "145029.780000", "145029.782000", "145029.785000", "145029.788000", "145029.792000", "145029.795000", "145029.798000", "145029.802000", "145029.805000", "145029.808000", "145029.811000", "145049.659000", "145049.662000", "145049.674000", "145049.677000", "145049.680000", "145049.683000", "145049.685000", "145049.688000", "145049.691000", "145049.694000", "145049.697000", "145049.700000", "145049.703000", "145049.712000", "145049.715000", "145049.718000", "145049.721000", "145049.723000", "145049.726000", "145049.729000", "145049.732000", "145109.660000", "145109.663000", "145109.666000", "145109.668000", "145109.671000", "145109.674000", "145109.677000", "145109.680000", "145109.683000", "145109.685000", "145109.688000", "145109.691000", "145109.694000", "145109.696000", "145109.699000", "145109.702000", "145109.705000", "145109.708000", "145109.710000", "145109.713000", "145129.660000", "145129.663000", "145129.666000", "145129.669000", "145129.671000", "145129.674000", "145129.677000", "145129.680000", "145129.683000", "145129.685000", "145129.688000", "145129.691000", "145129.694000", "145129.696000", "145129.699000", "145129.702000", "145129.705000", "145129.708000", "145129.710000", "145129.713000", "145209.660000", "145209.663000", "145209.666000", "145209.669000", "145209.672000", "145209.675000", "145209.677000", "145209.680000", "145209.683000", "145209.686000", "145209.689000", "145209.692000", "145209.694000", "145209.697000", "145209.700000", "145209.703000", "145209.705000", "145209.708000", "145209.711000", "145209.714000", "145209.717000", "145209.719000", "145209.722000", "145209.725000", "145209.728000", "145209.731000", "145209.734000", "145209.736000", "145209.739000", "145249.659000", "145249.662000", "145249.665000", "145249.667000", "145249.670000", "145249.673000", "145249.676000", "145249.679000", "145249.682000", "145249.684000", "145249.687000", "145249.690000", "145249.693000", "145249.696000", "145249.698000", "145249.701000", "145249.704000", "145249.707000", "145249.710000", "145249.713000", "145249.715000", "145249.718000", "145249.721000", "145249.724000", "145249.727000", "145249.729000", "145249.732000", "145329.660000", "145329.663000", "145329.666000", "145329.669000", "145329.671000", "145329.674000", "145329.677000", "145329.680000", "145329.683000", "145329.686000", "145329.689000", "145329.691000", "145329.694000", "145329.697000", "145329.700000", "145329.703000", "145329.706000", "145329.708000", "145329.711000", "145329.714000", "145329.717000", "145329.720000", "145329.722000", "145329.725000", "145329.728000", "145329.731000", "145329.734000", "145409.660000", "145409.663000", "145409.666000", "145409.668000", "145409.671000", "145409.674000", "145409.677000", "145409.680000", "145409.683000", "145409.686000", "145409.688000", "145409.691000", "145409.694000", "145409.697000", "145409.700000", "145409.702000", "145409.705000", "145409.708000", "145409.711000", "145409.714000", "145409.716000", "145409.719000", "145409.722000", "145409.725000", "145409.728000", "145409.730000", "145409.733000", "145449.660000", "145449.664000", "145449.667000", "145449.670000", "145449.673000", "145449.676000", "145449.679000", "145449.682000", "145449.685000", "145449.687000", "145449.690000", "145449.693000", "145449.696000", "145449.699000", "145449.701000", "145449.704000", "145449.707000", "145449.710000", "145449.713000", "145449.715000", "145449.718000", "145449.721000", "145449.724000", "145449.727000", "145449.730000", "145449.732000", "145529.659000", "145529.662000", "145529.665000", "145529.668000", "145529.670000", "145529.673000", "145529.689000", "145529.692000", "145529.695000", "145529.697000", "145529.700000", "145529.703000", "145529.706000", "145529.709000", "145529.716000", "145529.719000", "145529.722000", "145529.724000", "145529.727000", "145529.730000", "145529.733000", "145529.736000", "145529.738000", "145529.741000", "145529.744000", "145529.747000", "145529.750000", "145609.660000", "145609.663000", "145609.666000", "145609.669000", "145609.671000", "145609.674000", "145609.677000", "145609.680000", "145609.683000", "145609.686000", "145609.688000", "145609.691000", "145609.694000", "145609.697000", "145609.699000", "145609.702000", "145609.705000", "145609.708000", "145609.711000", "145609.714000", "145609.717000", "145609.719000", "145609.722000", "145609.725000", "145609.728000", "145609.731000", "145609.734000", "145649.660000", "145649.663000", "145649.666000", "145649.669000", "145649.672000", "145649.675000", "145649.677000", "145649.680000", "145649.683000", "145649.686000", "145649.689000", "145649.692000", "145649.694000", "145649.697000", "145649.700000", "145649.703000", "145649.706000", "145649.708000", "145649.711000", "145649.714000", "145649.717000", "145649.720000", "145649.723000", "145649.725000", "145649.728000", "145649.731000", "145649.734000", "145729.659000", "145729.662000", "145729.665000", "145729.668000", "145729.671000", "145729.673000", "145729.676000", "145729.679000", "145729.682000", "145729.685000", "145729.688000", "145729.690000", "145729.693000", "145729.696000", "145729.699000", "145729.702000", "145729.705000", "145729.707000", "145729.710000", "145729.713000", "145729.716000", "145729.719000", "145729.721000", "145729.724000", "145729.727000", "145729.730000", "145729.733000", "145809.660000", "145809.663000", "145809.666000", "145809.669000", "145809.672000", "145809.674000", "145809.677000", "145809.680000", "145809.683000", "145809.686000", "145809.689000", "145809.691000", "145809.694000", "145809.697000", "145809.700000", "145809.703000", "145809.706000", "145809.708000", "145809.711000", "145809.714000", "145809.717000", "145809.720000", "145809.723000", "145809.725000", "145809.728000", "145809.731000", "145809.734000", "145849.660000", "145849.663000", "145849.666000", "145849.669000", "145849.671000", "145849.674000", "145849.677000", "145849.680000", "145849.683000", "145849.686000", "145849.688000", "145849.691000", "145849.694000", "145849.697000", "145849.700000", "145849.702000", "145849.705000", "145849.708000", "145849.711000", "145849.714000", "145849.717000", "145849.720000", "145849.722000", "145849.725000", "145849.728000", "145849.731000", "145849.734000", "145929.660000", "145929.663000", "145929.666000", "145929.669000", "145929.671000", "145929.674000", "145929.677000", "145929.680000", "145929.683000", "145929.686000", "145929.688000", "145929.691000", "145929.694000", "145929.697000", "145929.700000", "145929.703000", "145929.706000", "145929.709000", "145929.711000", "145929.728000", "145929.731000", "145929.734000", "145929.737000", "145929.740000", "145929.743000", "145929.745000", "150009.659000", "150009.662000", "150009.669000", "150009.672000", "150009.675000", "150009.678000", "150009.681000", "150009.684000", "150009.687000", "150009.689000", "150009.692000", "150009.695000", "150009.698000", "150009.701000", "150009.703000", "150009.706000", "150009.709000", "150009.712000", "150009.715000", "150009.718000", "150009.720000", "150009.723000", "150009.726000", "150009.729000", "150009.732000", "150009.735000", "150009.737000", "150042.825000", "150042.828000", "150042.831000", "150042.834000", "150042.837000", "150042.845000", "150042.848000", "150042.851000", "150042.854000", "150042.857000", "150042.860000", "150042.863000", "150042.866000", "150042.869000", "150042.872000", "150042.875000", "150042.878000", "150042.886000", "150042.889000", "150042.892000", "150042.895000", "150042.898000", "150042.901000"],
