{
  "AcquisitionMatrixPE": 104,
  "AcquisitionNumber": 1,
  "AcquisitionTime": "14:36:44.437500",
  "BandwidthPerPixelPhaseEncode": 17.17,
  "BaseResolution": 104,
  "BodyPartExamined": "BRAIN",
  "CoilString": "HC1-7;NC1_2",
  "ConsistencyInfo": "N4_VE11C_LATEST_20160120",
  "ConversionSoftware": "dcm2niix",
  "ConversionSoftwareVersion": "v1.0.20190720  (JP2:OpenJPEG) GCC7.3.0",
  "DerivedVendorReportedEchoSpacing": 0.000560011,
  "DeviceSerialNumber": "167006",
  "DwellTime": 2.1e-06,
  "EchoTime": 0.037,
  "EchoTrainLength": 104,
  "EffectiveEchoSpacing": 0.000560011,
  "FlipAngle": 52,
  "ImageComments": "Unaliased_MB4_PE3_LB",
  "ImageOrientationPatientDICOM": [0.998434, -0.010496, -0.0549523, -0.00209105, 0.974556, -0.224134],
  "ImageType": [
    "ORIGINAL",
    "PRIMARY",
    "M",
    "MB",
    "ND",
    "MOSAIC"
],
  "ImagingFrequency": 123.259,
  "InPlanePhaseEncodingDirectionDICOM": "COL",
  "InstitutionAddress": "Chemin_Queen-Mary_4565_Montreal_District_CA_H3W_1W5",
  "InstitutionName": "IUGM",
  "InstitutionalDepartmentName": "Department",
  "MRAcquisitionType": "2D",
  "MagneticFieldStrength": 3,
  "Manufacturer": "Siemens",
  "ManufacturersModelName": "Prisma_fit",
  "Modality": "MR",
  "MultibandAccelerationFactor": 4,
  "PartialFourier": 1,
  "PatientPosition": "HFS",
  "PercentPhaseFOV": 100,
  "PhaseEncodingDirection": "j",
  "PhaseEncodingSteps": 104,
  "PhaseResolution": 1,
  "PixelBandwidth": 2290,
  "ProcedureStepDescription": "video_friends",
  "ProtocolName": "func_task-s01e02a",
  "PulseSequenceDetails": "%CustomerSeq%_cmrr_mbep2d_bold",
  "ReceiveCoilActiveElements": "HC1-7;NC1,2",
  "ReceiveCoilName": "HeadNeck_64",
  "ReconMatrixPE": 104,
  "RepetitionTime": 1.49,
  "SAR": 0.0292639,
  "ScanOptions": "FS",
  "ScanningSequence": "EP",
  "SequenceName": "epfid2d1_104",
  "SequenceVariant": "SK_SS",
  "SeriesDescription": "func_task-s01e02a",
  "SeriesNumber": 10,
  "ShimSetting": [604, -7266, -8827, 585, -45, -350, 0, 57],
  "SliceThickness": 2,
  "SliceTiming": [0, 0.785, 0.0975, 0.8825, 0.195, 0.98, 0.295, 1.0775, 0.3925, 1.175, 0.49, 1.275, 0.5875, 1.3725, 0.685, 0, 0.785, 0.0975, 0.8825, 0.195, 0.98, 0.295, 1.0775, 0.3925, 1.175, 0.49, 1.275, 0.5875, 1.3725, 0.685, 0, 0.785, 0.0975, 0.8825, 0.195, 0.98, 0.295, 1.0775, 0.3925, 1.175, 0.49, 1.275, 0.5875, 1.3725, 0.685, 0, 0.785, 0.0975, 0.8825, 0.195, 0.98, 0.295, 1.0775, 0.3925, 1.175, 0.49, 1.275, 0.5875, 1.3725, 0.685],
  "SoftwareVersions": "syngo_MR_E11",
  "SpacingBetweenSlices": 2,
  "StationName": "MRC35049",
  "TaskName": "friends",
  "TotalReadoutTime": 0.0576811,
  "TxRefAmp": 217.311,
  "WipMemBlock": "559c425a-13b0-45be-8fd5-e671f1dd24b9||Sequence: R016 ve11c/master r/e634e98; Dec 19 2017 11:00:25 by eja",
  "dcmmeta_affine": [
    [-1.9968676567077637, -0.004182097967714071, -0.1118132695555687, 101.43782043457031],
    [0.02099195308983326, 1.9491121768951416, -0.44779595732688904, -82.9533920288086],
    [-0.10990466177463531, 0.44826820492744446, 1.9460155963897705, -46.46493911743164],
    [0.0, 0.0, 0.0, 1.0]
],
  "dcmmeta_reorient_transform": [
    [0.0, -1.0, 0.0, 103.0],
    [1.0, 0.0, 0.0, 0.0],
    [0.0, 0.0, 1.0, 0.0],
    [0.0, 0.0, 0.0, 1.0]
],
  "dcmmeta_shape": [104, 104, 60, 472],
  "dcmmeta_slice_dim": 2,
  "dcmmeta_version": 0.6,
  "global": {
    "const": {
      "AcquisitionMatrix": [104, 0, 0, 104],
      "AngioFlag": "N",
      "BitsAllocated": 16,
      "BitsStored": 16,
      "BodyPartExamined": "BRAIN",
      "Columns": 832,
      "EchoNumbers": 1,
      "EchoTime": 37.0,
      "EchoTrainLength": 104,
      "FlipAngle": 52.0,
      "HighBit": 15,
      "ImageOrientationPatient": [0.99843381141626, -0.010495976482, -0.0549523311469, -0.0020910490054, 0.97455606824319, -0.2241341057591],
      "ImagePositionPatient": [-826.34459778805, -819.64090596748, 202.8816133513],
      "ImageType": [
        "ORIGINAL",
        "PRIMARY",
        "M",
        "MB",
        "ND",
        "MOSAIC"
],
      "ImagedNucleus": "1H",
      "ImagingFrequency": 123.259126,
      "InPlanePhaseEncodingDirection": "COL",
      "MRAcquisitionType": "2D",
      "MagneticFieldStrength": 3.0,
      "Manufacturer": "SIEMENS",
      "ManufacturerModelName": "Prisma_fit",
      "Modality": "MR",
      "NumberOfAverages": 1.0,
      "NumberOfPhaseEncodingSteps": 104,
      "PercentPhaseFieldOfView": 100.0,
      "PercentSampling": 100.0,
      "PerformedProcedureStepStartTime": "141100.045000",
      "PhotometricInterpretation": "MONOCHROME2",
      "PixelBandwidth": 2290.0,
      "PixelRepresentation": 0,
      "PixelSpacing": [2.0, 2.0],
      "ProtocolName": "func_task-s01e02a",
      "RepetitionTime": 1490.0,
      "Rows": 832,
      "SAR": 0.02926393704185,
      "SamplesPerPixel": 1,
      "ScanOptions": "FS",
      "ScanningSequence": "EP",
      "SequenceName": "epfid2d1_104",
      "SequenceVariant": [
        "SK",
        "SS"
],
      "SeriesDescription": "func_task-s01e02a",
      "SeriesNumber": 10,
      "SeriesTime": "143804.979000",
      "SliceLocation": -32.308697552677,
      "SliceThickness": 2.0,
      "SmallestImagePixelValue": 0,
      "SoftwareVersions": "syngo MR E11",
      "SpacingBetweenSlices": 2.0000000643943,
      "SpecificCharacterSet": "ISO_IR 100",
      "StudyID": "1",
      "StudyTime": "141059.961000",
      "TransmitCoilName": "Body",
      "VariableFlipAngleFlag": "N",
      "WindowCenterWidthExplanation": "Algo1",
      "dBdt": 0.0},
    "slices": {}
  },
  "time": {
    "samples": {
      "AcquisitionNumber": [1, 2, 3, 4, 5, 6, 7, 8, 9, 10, 11, 12, 13, 14, 15, 16, 17, 18, 19, 20, 21, 22, 23, 24, 25, 26, 27, 28, 29, 30, 31, 32, 33, 34, 35, 36, 37, 38, 39, 40, 41, 42, 43, 44, 45, 46, 47, 48, 49, 50, 51, 52, 53, 54, 55, 56, 57, 58, 59, 60, 61, 62, 63, 64, 65, 66, 67, 68, 69, 70, 71, 72, 73, 74, 75, 76, 77, 78, 79, 80, 81, 82, 83, 84, 85, 86, 87, 88, 89, 90, 91, 92, 93, 94, 95, 96, 97, 98, 99, 100, 101, 102, 103, 104, 105, 106, 107, 108, 109, 110, 111, 112, 113, 114, 115, 116, 117, 118, 119, 120, 121, 122, 123, 124, 125, 126, 127, 128, 129, 130, 131, 132, 133, 134, 135, 136, 137, 138, 139, 140, 141, 142, 143, 144, 145, 146, 147, 148, 149, 150, 151, 152, 153, 154, 155, 156, 157, 158, 159, 160, 161, 162, 163, 164, 165, 166, 167, 168, 169, 170, 171, 172, 173, 174, 175, 176, 177, 178, 179, 180, 181, 182, 183, 184, 185, 186, 187, 188, 189, 190, 191, 192, 193, 194, 195, 196, 197, 198, 199, 200, 201, 202, 203, 204, 205, 206, 207, 208, 209, 210, 211, 212, 213, 214, 215, 216, 217, 218, 219, 220, 221, 222, 223, 224, 225, 226, 227, 228, 229, 230, 231, 232, 233, 234, 235, 236, 237, 238, 239, 240, 241, 242, 243, 244, 245, 246, 247, 248, 249, 250, 251, 252, 253, 254, 255, 256, 257, 258, 259, 260, 261, 262, 263, 264, 265, 266, 267, 268, 269, 270, 271, 272, 273, 274, 275, 276, 277, 278, 279, 280, 281, 282, 283, 284, 285, 286, 287, 288, 289, 290, 291, 292, 293, 294, 295, 296, 297, 298, 299, 300, 301, 302, 303, 304, 305, 306, 307, 308, 309, 310, 311, 312, 313, 314, 315, 316, 317, 318, 319, 320, 321, 322, 323, 324, 325, 326, 327, 328, 329, 330, 331, 332, 333, 334, 335, 336, 337, 338, 339, 340, 341, 342, 343, 344, 345, 346, 347, 348, 349, 350, 351, 352, 353, 354, 355, 356, 357, 358, 359, 360, 361, 362, 363, 364, 365, 366, 367, 368, 369, 370, 371, 372, 373, 374, 375, 376, 377, 378, 379, 380, 381, 382, 383, 384, 385, 386, 387, 388, 389, 390, 391, 392, 393, 394, 395, 396, 397, 398, 399, 400, 401, 402, 403, 404, 405, 406, 407, 408, 409, 410, 411, 412, 413, 414, 415, 416, 417, 418, 419, 420, 421, 422, 423, 424, 425, 426, 427, 428, 429, 430, 431, 432, 433, 434, 435, 436, 437, 438, 439, 440, 441, 442, 443, 444, 445, 446, 447, 448, 449, 450, 451, 452, 453, 454, 455, 456, 457, 458, 459, 460, 461, 462, 463, 464, 465, 466, 467, 468, 469, 470, 471, 472],
      "AcquisitionTime": ["143644.437500", "143645.927500", "143647.417500", "143648.907500", "143650.397500", "143651.887500", "143653.377500", "143654.867500", "143656.357500", "143657.847500", "143659.337500", "143700.827500", "143702.317500", "143703.807500", "143705.297500", "143706.787500", "143708.277500", "143709.767500", "143711.257500", "143712.747500", "143714.237500", "143715.727500", "143717.217500", "143718.707500", "143720.197500", "143721.687500", "143723.177500", "143724.667500", "143726.157500", "143727.647500", "143729.137500", "143730.627500", "143732.117500", "143733.607500", "143735.097500", "143736.587500", "143738.077500", "143739.567500", "143741.057500", "143742.547500", "143744.037500", "143745.527500", "143747.017500", "143748.507500", "143749.997500", "143751.487500", "143752.977500", "143754.467500", "143755.957500", "143757.447500", "143758.937500", "143800.427500", "143801.917500", "143803.407500", "143804.897500", "143806.387500", "143807.877500", "143809.367500", "143810.857500", "143812.347500", "143813.837500", "143815.327500", "143816.817500", "143818.307500", "143819.797500", "143821.287500", "143822.777500", "143824.267500", "143825.757500", "143827.247500", "143828.737500", "143830.227500", "143831.717500", "143833.207500", "143834.697500", "143836.187500", "143837.677500", "143839.167500", "143840.657500", "143842.147500", "143843.637500", "143845.127500", "143846.617500", "143848.107500", "143849.597500", "143851.087500", "143852.577500", "143854.067500", "143855.557500", "143857.047500", "143858.537500", "143900.027500", "143901.517500", "143903.007500", "143904.497500", "143905.987500", "143907.477500", "143908.967500", "143910.457500", "143911.947500", "143913.437500", "143914.927500", "143916.417500", "143917.907500", "143919.397500", "143920.887500", "143922.377500", "143923.867500", "143925.357500", "143926.847500", "143928.337500", "143929.827500", "143931.317500", "143932.807500", "143934.297500", "143935.787500", "143937.277500", "143938.767500", "143940.257500", "143941.747500", "143943.237500", "143944.727500", "143946.217500", "143947.707500", "143949.197500", "143950.687500", "143952.177500", "143953.667500", "143955.157500", "143956.647500", "143958.137500", "143959.627500", "144001.117500", "144002.607500", "144004.097500", "144005.587500", "144007.077500", "144008.567500", "144010.057500", "144011.547500", "144013.037500", "144014.527500", "144016.017500", "144017.507500", "144018.997500", "144020.487500", "144021.977500", "144023.467500", "144024.957500", "144026.447500", "144027.937500", "144029.427500", "144030.917500", "144032.407500", "144033.897500", "144035.387500", "144036.877500", "144038.367500", "144039.857500", "144041.347500", "144042.837500", "144044.327500", "144045.817500", "144047.307500", "144048.797500", "144050.287500", "144051.777500", "144053.267500", "144054.757500", "144056.247500", "144057.737500", "144059.227500", "144100.717500", "144102.207500", "144103.697500", "144105.187500", "144106.677500", "144108.167500", "144109.657500", "144111.147500", "144112.637500", "144114.127500", "144115.617500", "144117.107500", "144118.597500", "144120.087500", "144121.577500", "144123.067500", "144124.557500", "144126.047500", "144127.537500", "144129.027500", "144130.517500", "144132.007500", "144133.497500", "144134.987500", "144136.477500", "144137.967500", "144139.457500", "144140.947500", "144142.437500", "144143.927500", "144145.417500", "144146.907500", "144148.397500", "144149.887500", "144151.377500", "144152.867500", "144154.357500", "144155.847500", "144157.337500", "144158.827500", "144200.317500", "144201.807500", "144203.297500", "144204.787500", "144206.277500", "144207.767500", "144209.257500", "144210.747500", "144212.237500", "144213.727500", "144215.217500", "144216.707500", "144218.197500", "144219.687500", "144221.177500", "144222.667500", "144224.157500", "144225.647500", "144227.137500", "144228.627500", "144230.117500", "144231.607500", "144233.097500", "144234.587500", "144236.077500", "144237.567500", "144239.057500", "144240.547500", "144242.037500", "144243.527500", "144245.017500", "144246.507500", "144247.997500", "144249.487500", "144250.977500", "144252.467500", "144253.957500", "144255.447500", "144256.937500", "144258.427500", "144259.917500", "144301.407500", "144302.897500", "144304.387500", "144305.877500", "144307.367500", "144308.857500", "144310.347500", "144311.837500", "144313.327500", "144314.817500", "144316.307500", "144317.797500", "144319.287500", "144320.777500", "144322.267500", "144323.757500", "144325.247500", "144326.737500", "144328.227500", "144329.717500", "144331.207500", "144332.697500", "144334.187500", "144335.677500", "144337.167500", "144338.657500", "144340.147500", "144341.637500", "144343.127500", "144344.617500", "144346.107500", "144347.597500", "144349.087500", "144350.577500", "144352.067500", "144353.557500", "144355.047500", "144356.537500", "144358.027500", "144359.517500", "144401.007500", "144402.497500", "144403.987500", "144405.477500", "144406.967500", "144408.457500", "144409.947500", "144411.437500", "144412.927500", "144414.417500", "144415.907500", "144417.397500", "144418.887500", "144420.377500", "144421.867500", "144423.357500", "144424.847500", "144426.337500", "144427.827500", "144429.317500", "144430.807500", "144432.297500", "144433.787500", "144435.277500", "144436.767500", "144438.257500", "144439.747500", "144441.237500", "144442.727500", "144444.217500", "144445.707500", "144447.197500", "144448.687500", "144450.177500", "144451.667500", "144453.157500", "144454.647500", "144456.137500", "144457.627500", "144459.117500", "144500.607500", "144502.097500", "144503.587500", "144505.077500", "144506.567500", "144508.057500", "144509.547500", "144511.037500", "144512.527500", "144514.017500", "144515.507500", "144516.997500", "144518.487500", "144519.977500", "144521.467500", "144522.957500", "144524.447500", "144525.937500", "144527.427500", "144528.917500", "144530.407500", "144531.897500", "144533.387500", "144534.877500", "144536.367500", "144537.857500", "144539.347500", "144540.837500", "144542.327500", "144543.817500", "144545.307500", "144546.797500", "144548.287500", "144549.777500", "144551.267500", "144552.757500", "144554.247500", "144555.737500", "144557.227500", "144558.717500", "144600.207500", "144601.697500", "144603.187500", "144604.677500", "144606.167500", "144607.657500", "144609.147500", "144610.637500", "144612.127500", "144613.617500", "144615.107500", "144616.597500", "144618.087500", "144619.577500", "144621.067500", "144622.557500", "144624.047500", "144625.537500", "144627.027500", "144628.517500", "144630.007500", "144631.497500", "144632.987500", "144634.477500", "144635.967500", "144637.457500", "144638.947500", "144640.437500", "144641.927500", "144643.417500", "144644.907500", "144646.397500", "144647.887500", "144649.377500", "144650.867500", "144652.357500", "144653.847500", "144655.337500", "144656.827500", "144658.317500", "144659.807500", "144701.297500", "144702.787500", "144704.277500", "144705.767500", "144707.257500", "144708.747500", "144710.237500", "144711.727500", "144713.217500", "144714.707500", "144716.197500", "144717.687500", "144719.177500", "144720.667500", "144722.157500", "144723.647500", "144725.137500", "144726.627500", "144728.117500", "144729.607500", "144731.097500", "144732.587500", "144734.077500", "144735.567500", "144737.057500", "144738.547500", "144740.037500", "144741.527500", "144743.017500", "144744.507500", "144745.997500", "144747.487500", "144748.977500", "144750.467500", "144751.957500", "144753.447500", "144754.937500", "144756.427500", "144757.917500", "144759.407500", "144800.897500", "144802.387500", "144803.877500", "144805.367500", "144806.857500", "144808.347500", "144809.837500", "144811.327500", "144812.817500", "144814.307500", "144815.797500", "144817.287500", "144818.777500", "144820.267500", "144821.757500", "144823.247500", "144824.737500", "144826.227500"],
      "ContentTime": ["143804.981000", "143804.985000", "143804.988000", "143804.991000", "143804.993000", "143804.996000", "143805.000000", "143805.003000", "143805.006000", "143805.011000", "143805.014000", "143805.017000", "143805.020000", "143805.023000", "143805.025000", "143805.028000", "143805.031000", "143805.034000", "143805.037000", "143805.040000", "143805.042000", "143805.045000", "143805.048000", "143805.051000", "143805.054000", "143805.056000", "143824.936000", "143824.939000", "143824.942000", "143824.944000", "143824.947000", "143824.950000", "143824.953000", "143824.955000", "143824.958000", "143824.961000", "143824.964000", "143824.967000", "143824.969000", "143824.972000", "143824.975000", "143824.978000", "143824.981000", "143824.983000", "143824.986000", "143824.989000", "143844.936000", "143844.939000", "143844.941000", "143844.944000", "143844.947000", "143844.950000", "143844.953000", "143844.956000", "143844.958000", "143844.961000", "143844.964000", "143844.967000", "143844.969000", "143844.972000", "143844.975000", "143844.978000", "143844.980000", "143844.983000", "143844.986000", "143844.989000", "143904.936000", "143904.939000", "143904.941000", "143904.944000", "143904.947000", "143904.950000", "143904.953000", "143904.955000", "143904.958000", "143904.962000", "143904.965000", "143904.968000", "143904.981000", "143904.984000", "143904.987000", "143904.989000", "143904.992000", "143904.995000", "143904.998000", "143905.001000", "143924.936000", "143924.939000", "143924.942000", "143924.944000", "143924.947000", "143924.950000", "143924.953000", "143924.955000", "143924.958000", "143924.961000", "143924.964000", "143924.967000", "143924.969000", "143924.972000", "143924.980000", "143924.982000", "143924.985000", "143924.988000", "143924.991000", "143924.993000", "143924.996000", "144004.937000", "144004.940000", "144004.943000", "144004.946000", "144004.949000", "144004.952000", "144004.965000", "144004.969000", "144004.972000", "144004.975000", "144004.979000", "144004.982000", "144004.986000", "144004.989000", "144004.992000", "144004.995000", "144004.998000", "144005.001000", "144005.003000", "144005.007000", "144005.009000", "144005.012000", "144005.015000", "144005.018000", "144005.021000", "144005.023000", "144044.936000", "144044.939000", "144044.942000", "144044.944000", "144044.947000", "144044.950000", "144044.953000", "144044.956000", "144044.958000", "144044.961000", "144044.964000", "144044.967000", "144044.969000", "144044.972000", "144044.975000", "144044.978000", "144044.981000", "144044.983000", "144044.986000", "144044.989000", "144044.992000", "144044.995000", "144044.997000", "144045.001000", "144045.004000", "144045.007000", "144045.010000", "144124.936000", "144124.939000", "144124.942000", "144124.945000", "144124.947000", "144124.950000", "144124.953000", "144124.956000", "144124.958000", "144124.961000", "144124.964000", "144124.967000", "144124.970000", "144124.973000", "144124.975000", "144124.978000", "144124.981000", "144124.984000", "144124.987000", "144124.989000", "144124.992000", "144124.995000", "144124.998000", "144125.001000", "144125.003000", "144125.006000", "144125.009000", "144204.936000", "144204.939000", "144204.942000", "144204.944000", "144204.947000", "144204.950000", "144204.953000", "144204.956000", "144204.958000", "144204.961000", "144204.964000", "144204.967000", "144204.969000", "144204.972000", "144204.975000", "144204.978000", "144204.981000", "144204.984000", "144204.986000", "144204.989000", "144204.992000", "144204.995000", "144204.998000", "144205.002000", "144205.005000", "144205.007000", "144205.010000", "144244.936000", "144244.939000", "144244.942000", "144244.944000", "144244.947000", "144244.950000", "144244.953000", "144244.956000", "144244.958000", "144244.961000", "144244.964000", "144244.967000", "144244.969000", "144244.972000", "144244.975000", "144244.978000", "144244.981000", "144244.984000", "144244.986000", "144244.989000", "144244.992000", "144244.995000", "144244.998000", "144245.001000", "144245.004000", "144245.007000", "144245.010000", "144324.936000", "144324.939000", "144324.942000", "144324.944000", "144324.947000", "144324.954000", "144324.957000", "144324.960000", "144324.963000", "144324.965000", "144324.968000", "144324.971000", "144324.974000", "144324.977000", "144324.979000", "144324.982000", "144324.985000", "144324.988000", "144324.991000", "144324.993000", "144324.996000", "144324.999000", "144325.002000", "144325.005000", "144325.008000", "144325.010000", "144325.013000", "144404.936000", "144404.939000", "144404.942000", "144404.945000", "144404.947000", "144404.950000", "144404.953000", "144404.956000", "144404.959000", "144404.962000", "144404.964000", "144404.967000", "144404.970000", "144404.973000", "144404.976000", "144404.978000", "144404.981000", "144404.984000", "144404.987000", "144404.990000", "144404.993000", "144404.995000", "144404.998000", "144405.002000", "144405.005000", "144405.007000", "144405.010000", "144444.937000", "144444.940000", "144444.943000", "144444.945000", "144444.948000", "144444.951000", "144444.954000", "144444.957000", "144444.959000", "144444.962000", "144444.965000", "144444.969000", "144444.972000", "144444.975000", "144444.978000", "144444.981000", "144444.984000", "144444.986000", "144444.989000", "144444.992000", "144444.995000", "144444.997000", "144445.000000", "144445.003000", "144445.006000", "144445.009000", "144524.936000", "144524.939000", "144524.942000", "144524.944000", "144524.947000", "144524.950000", "144524.953000", "144524.956000", "144524.958000", "144524.961000", "144524.964000", "144524.967000", "144524.969000", "144524.972000", "144524.975000", "144524.978000", "144524.981000", "144524.984000", "144524.986000", "144524.989000", "144524.992000", "144524.995000", "144524.998000", "144525.001000", "144525.004000", "144525.007000", "144525.010000", "144604.953000", "144604.956000", "144604.959000", "144604.961000", "144604.964000", "144604.967000", "144604.970000", "144604.973000", "144604.975000", "144604.978000", "144604.981000", "144604.984000", "144604.987000", "144604.990000", "144604.993000", "144604.996000", "144604.998000", "144605.002000", "144605.005000", "144605.008000", "144605.011000", "144605.013000", "144605.016000", "144605.019000", "144605.022000", "144605.024000", "144605.027000", "144644.936000", "144644.939000", "144644.949000", "144644.952000", "144644.955000", "144644.958000", "144644.961000", "144644.964000", "144644.966000", "144644.969000", "144644.972000", "144644.975000", "144644.978000", "144644.981000", "144644.983000", "144644.986000", "144644.989000", "144644.992000", "144644.995000", "144644.997000", "144645.001000", "144645.004000", "144645.007000", "144645.010000", "144645.012000", "144645.015000", "144645.018000", "144724.936000", "144724.939000", "144724.942000", "144724.944000", "144724.947000", "144724.950000", "144724.953000", "144724.956000", "144724.958000", "144724.961000", "144724.964000", "144724.967000", "144724.970000", "144724.973000", "144724.975000", "144724.978000", "144724.981000", "144724.984000", "144724.987000", "144724.989000", "144724.993000", "144724.995000", "144724.998000", "144725.002000", "144725.005000", "144725.008000", "144725.010000", "144804.936000", "144804.939000", "144804.942000", "144804.944000", "144804.947000", "144804.950000", "144804.953000", "144804.956000", "144804.959000", "144804.961000", "144804.964000", "144804.967000", "144804.970000", "144804.973000", "144804.975000", "144804.978000", "144804.981000", "144804.984000", "144804.987000", "144804.989000", "144804.992000", "144804.995000", "144804.998000", "144805.002000", "144805.004000", "144805.007000", "144805.010000", "144828.644000", "144828.648000", "144828.650000", "144828.653000", "144828.661000", "144828.664000", "144828.667000", "144828.670000", "144828.673000", "144828.676000", "144828.679000", "144828.682000", "144828.685000", "144828.688000", "144828.691000", "144828.693000"],
