{
  "AcquisitionMatrixPE": 104,
  "AcquisitionNumber": 1,
  "AcquisitionTime": "16:25:2.575000",
  "BandwidthPerPixelPhaseEncode": 17.17,
  "BaseResolution": 104,
  "BodyPartExamined": "BRAIN",
  "CoilString": "HC1-7;NC1_2",
  "ConsistencyInfo": "N4_VE11C_LATEST_20160120",
  "ConversionSoftware": "dcm2niix",
  "ConversionSoftwareVersion": "v1.0.20190720  (JP2:OpenJPEG) GCC7.3.0",
  "DerivedVendorReportedEchoSpacing": 0.000560011,
  "DeviceSerialNumber": "167006",
  "DwellTime": 2.1e-06,
  "EchoTime": 0.037,
  "EchoTrainLength": 104,
  "EffectiveEchoSpacing": 0.000560011,
  "FlipAngle": 52,
  "ImageComments": "Unaliased_MB4_PE3_LB",
  "ImageOrientationPatientDICOM": [0.999876, -0.0155874, -0.00203551, 0.0143109, 0.956179, -0.292434],
  "ImageType": [
    "ORIGINAL",
    "PRIMARY",
    "M",
    "MB",
    "ND",
    "MOSAIC"
],
  "ImagingFrequency": 123.259,
  "InPlanePhaseEncodingDirectionDICOM": "COL",
  "InstitutionAddress": "Chemin_Queen-Mary_4565_Montreal_District_CA_H3W_1W5",
  "InstitutionName": "IUGM",
  "InstitutionalDepartmentName": "Department",
  "MRAcquisitionType": "2D",
  "MagneticFieldStrength": 3,
  "Manufacturer": "Siemens",
  "ManufacturersModelName": "Prisma_fit",
  "Modality": "MR",
  "MultibandAccelerationFactor": 4,
  "PartialFourier": 1,
  "PatientPosition": "HFS",
  "PercentPhaseFOV": 100,
  "PhaseEncodingDirection": "j",
  "PhaseEncodingSteps": 104,
  "PhaseResolution": 1,
  "PixelBandwidth": 2290,
  "ProcedureStepDescription": "video_friends",
  "ProtocolName": "func_task-s01e15a",
  "PulseSequenceDetails": "%CustomerSeq%_cmrr_mbep2d_bold",
  "ReceiveCoilActiveElements": "HC1-7;NC1,2",
  "ReceiveCoilName": "HeadNeck_64",
  "ReconMatrixPE": 104,
  "RepetitionTime": 1.49,
  "SAR": 0.0310059,
  "ScanOptions": "FS",
  "ScanningSequence": "EP",
  "SequenceName": "epfid2d1_104",
  "SequenceVariant": "SK_SS",
  "SeriesDescription": "func_task-s01e15a",
  "SeriesNumber": 10,
  "ShimSetting": [622, -7216, -8820, 670, 22, -39, -23, -9],
  "SliceThickness": 2,
  "SliceTiming": [0, 0.785, 0.1, 0.8825, 0.1975, 0.98, 0.295, 1.08, 0.3925, 1.1775, 0.49, 1.275, 0.59, 1.3725, 0.6875, 0, 0.785, 0.1, 0.8825, 0.1975, 0.98, 0.295, 1.08, 0.3925, 1.1775, 0.49, 1.275, 0.59, 1.3725, 0.6875, 0, 0.785, 0.1, 0.8825, 0.1975, 0.98, 0.295, 1.08, 0.3925, 1.1775, 0.49, 1.275, 0.59, 1.3725, 0.6875, 0, 0.785, 0.1, 0.8825, 0.1975, 0.98, 0.295, 1.08, 0.3925, 1.1775, 0.49, 1.275, 0.59, 1.3725, 0.6875],
  "SoftwareVersions": "syngo_MR_E11",
  "SpacingBetweenSlices": 2,
  "StationName": "MRC35049",
  "TaskName": "friends",
  "TotalReadoutTime": 0.0576811,
  "TxRefAmp": 210.703,
  "WipMemBlock": "cd31bb32-ec01-4dc7-a650-cdd86d4743dd||Sequence: R016 ve11c/master r/e634e98; Dec 19 2017 11:00:25 by eja",
  "dcmmeta_affine": [
    [-1.9997528791427612, 0.028621776029467583, -0.013009232468903065, 103.48221588134766],
    [0.031174875795841217, 1.9123570919036865, -0.58473801612854, -82.1115493774414],
    [-0.004071029368788004, 0.5848685503005981, 1.912566900253296, -68.87474822998047],
    [0.0, 0.0, 0.0, 1.0]
],
  "dcmmeta_reorient_transform": [
    [0.0, -1.0, 0.0, 103.0],
    [1.0, 0.0, 0.0, 0.0],
    [0.0, 0.0, 1.0, 0.0],
    [0.0, 0.0, 0.0, 1.0]
],
  "dcmmeta_shape": [104, 104, 60, 477],
  "dcmmeta_slice_dim": 2,
  "dcmmeta_version": 0.6,
  "global": {
    "const": {
      "AcquisitionMatrix": [104, 0, 0, 104],
      "AngioFlag": "N",
      "BitsAllocated": 16,
      "BitsStored": 16,
      "BodyPartExamined": "BRAIN",
      "Columns": 832,
      "EchoNumbers": 1,
      "EchoTime": 37.0,
      "EchoTrainLength": 104,
      "FlipAngle": 52.0,
      "HighBit": 15,
      "ImageOrientationPatient": [0.99987643659015, -0.0155874382779, -0.0020355146082, 0.01431088803832, 0.95617853889134, -0.2924342665407],
      "ImagePositionPatient": [-844.75863192769, -799.61155248525, 205.74070972247],
      "ImageType": [
        "ORIGINAL",
        "PRIMARY",
        "M",
        "MB",
        "ND",
        "MOSAIC"
],
      "ImagedNucleus": "1H",
      "ImagingFrequency": 123.259171,
      "InPlanePhaseEncodingDirection": "COL",
      "MRAcquisitionType": "2D",
      "MagneticFieldStrength": 3.0,
      "Manufacturer": "SIEMENS",
      "ManufacturerModelName": "Prisma_fit",
      "Modality": "MR",
      "NumberOfAverages": 1.0,
      "NumberOfPhaseEncodingSteps": 104,
      "PercentPhaseFieldOfView": 100.0,
      "PercentSampling": 100.0,
      "PerformedProcedureStepStartTime": "160101.927000",
      "PhotometricInterpretation": "MONOCHROME2",
      "PixelBandwidth": 2290.0,
      "PixelRepresentation": 0,
      "PixelSpacing": [2.0, 2.0],
      "ProtocolName": "func_task-s01e15a",
      "RepetitionTime": 1490.0,
      "Rows": 832,
      "SAR": 0.03100584942519,
      "SamplesPerPixel": 1,
      "ScanOptions": "FS",
      "ScanningSequence": "EP",
      "SequenceName": "epfid2d1_104",
      "SequenceVariant": [
        "SK",
        "SS"
],
      "SeriesDescription": "func_task-s01e15a",
      "SeriesNumber": 10,
      "SeriesTime": "162641.796000",
      "SliceLocation": -42.530024951203,
      "SliceThickness": 2.0,
      "SmallestImagePixelValue": 0,
      "SoftwareVersions": "syngo MR E11",
      "SpacingBetweenSlices": 1.9999999610816,
      "SpecificCharacterSet": "ISO_IR 100",
      "StudyID": "1",
      "StudyTime": "160101.876000",
      "TransmitCoilName": "Body",
      "VariableFlipAngleFlag": "N",
      "WindowCenterWidthExplanation": "Algo1",
      "dBdt": 0.0},
    "slices": {}
  },
  "time": {
    "samples": {
      "AcquisitionNumber": [1, 2, 3, 4, 5, 6, 7, 8, 9, 10, 11, 12, 13, 14, 15, 16, 17, 18, 19, 20, 21, 22, 23, 24, 25, 26, 27, 28, 29, 30, 31, 32, 33, 34, 35, 36, 37, 38, 39, 40, 41, 42, 43, 44, 45, 46, 47, 48, 49, 50, 51, 52, 53, 54, 55, 56, 57, 58, 59, 60, 61, 62, 63, 64, 65, 66, 67, 68, 69, 70, 71, 72, 73, 74, 75, 76, 77, 78, 79, 80, 81, 82, 83, 84, 85, 86, 87, 88, 89, 90, 91, 92, 93, 94, 95, 96, 97, 98, 99, 100, 101, 102, 103, 104, 105, 106, 107, 108, 109, 110, 111, 112, 113, 114, 115, 116, 117, 118, 119, 120, 121, 122, 123, 124, 125, 126, 127, 128, 129, 130, 131, 132, 133, 134, 135, 136, 137, 138, 139, 140, 141, 142, 143, 144, 145, 146, 147, 148, 149, 150, 151, 152, 153, 154, 155, 156, 157, 158, 159, 160, 161, 162, 163, 164, 165, 166, 167, 168, 169, 170, 171, 172, 173, 174, 175, 176, 177, 178, 179, 180, 181, 182, 183, 184, 185, 186, 187, 188, 189, 190, 191, 192, 193, 194, 195, 196, 197, 198, 199, 200, 201, 202, 203, 204, 205, 206, 207, 208, 209, 210, 211, 212, 213, 214, 215, 216, 217, 218, 219, 220, 221, 222, 223, 224, 225, 226, 227, 228, 229, 230, 231, 232, 233, 234, 235, 236, 237, 238, 239, 240, 241, 242, 243, 244, 245, 246, 247, 248, 249, 250, 251, 252, 253, 254, 255, 256, 257, 258, 259, 260, 261, 262, 263, 264, 265, 266, 267, 268, 269, 270, 271, 272, 273, 274, 275, 276, 277, 278, 279, 280, 281, 282, 283, 284, 285, 286, 287, 288, 289, 290, 291, 292, 293, 294, 295, 296, 297, 298, 299, 300, 301, 302, 303, 304, 305, 306, 307, 308, 309, 310, 311, 312, 313, 314, 315, 316, 317, 318, 319, 320, 321, 322, 323, 324, 325, 326, 327, 328, 329, 330, 331, 332, 333, 334, 335, 336, 337, 338, 339, 340, 341, 342, 343, 344, 345, 346, 347, 348, 349, 350, 351, 352, 353, 354, 355, 356, 357, 358, 359, 360, 361, 362, 363, 364, 365, 366, 367, 368, 369, 370, 371, 372, 373, 374, 375, 376, 377, 378, 379, 380, 381, 382, 383, 384, 385, 386, 387, 388, 389, 390, 391, 392, 393, 394, 395, 396, 397, 398, 399, 400, 401, 402, 403, 404, 405, 406, 407, 408, 409, 410, 411, 412, 413, 414, 415, 416, 417, 418, 419, 420, 421, 422, 423, 424, 425, 426, 427, 428, 429, 430, 431, 432, 433, 434, 435, 436, 437, 438, 439, 440, 441, 442, 443, 444, 445, 446, 447, 448, 449, 450, 451, 452, 453, 454, 455, 456, 457, 458, 459, 460, 461, 462, 463, 464, 465, 466, 467, 468, 469, 470, 471, 472, 473, 474, 475, 476, 477],
      "AcquisitionTime": ["162502.575000", "162504.065000", "162505.555000", "162507.045000", "162508.535000", "162510.025000", "162511.515000", "162513.005000", "162514.495000", "162515.985000", "162517.475000", "162518.965000", "162520.455000", "162521.945000", "162523.435000", "162524.925000", "162526.415000", "162527.905000", "162529.395000", "162530.885000", "162532.375000", "162533.865000", "162535.355000", "162536.845000", "162538.335000", "162539.825000", "162541.315000", "162542.805000", "162544.295000", "162545.785000", "162547.275000", "162548.765000", "162550.255000", "162551.745000", "162553.235000", "162554.725000", "162556.215000", "162557.705000", "162559.195000", "162600.685000", "162602.175000", "162603.665000", "162605.155000", "162606.645000", "162608.135000", "162609.625000", "162611.115000", "162612.605000", "162614.095000", "162615.585000", "162617.075000", "162618.565000", "162620.055000", "162621.545000", "162623.035000", "162624.525000", "162626.015000", "162627.505000", "162628.995000", "162630.485000", "162631.975000", "162633.465000", "162634.955000", "162636.445000", "162637.935000", "162639.425000", "162640.915000", "162642.405000", "162643.895000", "162645.385000", "162646.875000", "162648.365000", "162649.855000", "162651.345000", "162652.835000", "162654.325000", "162655.815000", "162657.305000", "162658.795000", "162700.285000", "162701.775000", "162703.265000", "162704.755000", "162706.245000", "162707.735000", "162709.225000", "162710.715000", "162712.205000", "162713.695000", "162715.185000", "162716.675000", "162718.165000", "162719.655000", "162721.145000", "162722.635000", "162724.125000", "162725.615000", "162727.105000", "162728.595000", "162730.085000", "162731.575000", "162733.065000", "162734.555000", "162736.045000", "162737.535000", "162739.025000", "162740.515000", "162742.005000", "162743.495000", "162744.985000", "162746.475000", "162747.965000", "162749.455000", "162750.945000", "162752.435000", "162753.925000", "162755.415000", "162756.905000", "162758.395000", "162759.885000", "162801.375000", "162802.865000", "162804.355000", "162805.845000", "162807.335000", "162808.825000", "162810.315000", "162811.805000", "162813.295000", "162814.785000", "162816.275000", "162817.765000", "162819.255000", "162820.745000", "162822.235000", "162823.725000", "162825.215000", "162826.705000", "162828.195000", "162829.685000", "162831.175000", "162832.665000", "162834.155000", "162835.645000", "162837.135000", "162838.625000", "162840.115000", "162841.605000", "162843.095000", "162844.585000", "162846.075000", "162847.565000", "162849.055000", "162850.545000", "162852.035000", "162853.525000", "162855.015000", "162856.505000", "162857.995000", "162859.485000", "162900.975000", "162902.465000", "162903.955000", "162905.445000", "162906.935000", "162908.425000", "162909.915000", "162911.405000", "162912.895000", "162914.385000", "162915.875000", "162917.365000", "162918.855000", "162920.345000", "162921.835000", "162923.325000", "162924.815000", "162926.305000", "162927.795000", "162929.285000", "162930.775000", "162932.265000", "162933.755000", "162935.245000", "162936.735000", "162938.225000", "162939.715000", "162941.205000", "162942.695000", "162944.185000", "162945.675000", "162947.165000", "162948.655000", "162950.145000", "162951.635000", "162953.125000", "162954.615000", "162956.105000", "162957.595000", "162959.085000", "163000.575000", "163002.065000", "163003.555000", "163005.045000", "163006.535000", "163008.025000", "163009.515000", "163011.005000", "163012.495000", "163013.985000", "163015.475000", "163016.965000", "163018.455000", "163019.945000", "163021.435000", "163022.925000", "163024.415000", "163025.905000", "163027.395000", "163028.885000", "163030.375000", "163031.865000", "163033.355000", "163034.845000", "163036.335000", "163037.825000", "163039.315000", "163040.805000", "163042.295000", "163043.785000", "163045.275000", "163046.765000", "163048.255000", "163049.745000", "163051.235000", "163052.725000", "163054.215000", "163055.705000", "163057.195000", "163058.685000", "163100.175000", "163101.665000", "163103.155000", "163104.645000", "163106.135000", "163107.625000", "163109.115000", "163110.605000", "163112.095000", "163113.585000", "163115.075000", "163116.565000", "163118.055000", "163119.545000", "163121.035000", "163122.525000", "163124.015000", "163125.505000", "163126.995000", "163128.485000", "163129.975000", "163131.465000", "163132.955000", "163134.445000", "163135.935000", "163137.425000", "163138.915000", "163140.405000", "163141.895000", "163143.385000", "163144.875000", "163146.365000", "163147.855000", "163149.345000", "163150.835000", "163152.325000", "163153.815000", "163155.305000", "163156.795000", "163158.285000", "163159.775000", "163201.265000", "163202.755000", "163204.245000", "163205.735000", "163207.225000", "163208.715000", "163210.205000", "163211.695000", "163213.185000", "163214.675000", "163216.165000", "163217.655000", "163219.145000", "163220.635000", "163222.125000", "163223.615000", "163225.105000", "163226.595000", "163228.085000", "163229.575000", "163231.065000", "163232.555000", "163234.045000", "163235.535000", "163237.025000", "163238.515000", "163240.005000", "163241.495000", "163242.985000", "163244.475000", "163245.965000", "163247.455000", "163248.945000", "163250.435000", "163251.925000", "163253.415000", "163254.905000", "163256.395000", "163257.885000", "163259.375000", "163300.865000", "163302.355000", "163303.845000", "163305.335000", "163306.825000", "163308.315000", "163309.805000", "163311.295000", "163312.785000", "163314.275000", "163315.765000", "163317.255000", "163318.745000", "163320.235000", "163321.725000", "163323.215000", "163324.705000", "163326.195000", "163327.685000", "163329.175000", "163330.665000", "163332.155000", "163333.645000", "163335.135000", "163336.625000", "163338.115000", "163339.605000", "163341.095000", "163342.585000", "163344.075000", "163345.565000", "163347.055000", "163348.545000", "163350.035000", "163351.525000", "163353.015000", "163354.505000", "163355.995000", "163357.485000", "163358.975000", "163400.465000", "163401.955000", "163403.445000", "163404.935000", "163406.425000", "163407.915000", "163409.405000", "163410.895000", "163412.385000", "163413.875000", "163415.365000", "163416.855000", "163418.345000", "163419.835000", "163421.325000", "163422.815000", "163424.305000", "163425.795000", "163427.285000", "163428.775000", "163430.265000", "163431.755000", "163433.245000", "163434.735000", "163436.225000", "163437.715000", "163439.205000", "163440.695000", "163442.185000", "163443.675000", "163445.165000", "163446.655000", "163448.145000", "163449.635000", "163451.125000", "163452.615000", "163454.105000", "163455.595000", "163457.085000", "163458.575000", "163500.065000", "163501.555000", "163503.045000", "163504.535000", "163506.025000", "163507.515000", "163509.005000", "163510.495000", "163511.985000", "163513.475000", "163514.965000", "163516.455000", "163517.945000", "163519.435000", "163520.925000", "163522.415000", "163523.905000", "163525.395000", "163526.885000", "163528.375000", "163529.865000", "163531.355000", "163532.845000", "163534.335000", "163535.825000", "163537.315000", "163538.805000", "163540.295000", "163541.785000", "163543.275000", "163544.765000", "163546.255000", "163547.745000", "163549.235000", "163550.725000", "163552.215000", "163553.705000", "163555.195000", "163556.685000", "163558.175000", "163559.665000", "163601.155000", "163602.645000", "163604.135000", "163605.625000", "163607.115000", "163608.605000", "163610.095000", "163611.585000", "163613.075000", "163614.565000", "163616.055000", "163617.545000", "163619.035000", "163620.525000", "163622.015000", "163623.505000", "163624.995000", "163626.485000", "163627.975000", "163629.465000", "163630.955000", "163632.445000", "163633.935000", "163635.425000", "163636.915000", "163638.405000", "163639.895000", "163641.385000", "163642.875000", "163644.365000", "163645.855000", "163647.345000", "163648.835000", "163650.325000", "163651.815000"],
      "ContentTime": ["162641.799000", "162641.802000", "162641.811000", "162641.814000", "162641.817000", "162641.820000", "162641.823000", "162641.825000", "162641.828000", "162641.831000", "162641.834000", "162641.837000", "162641.840000", "162641.843000", "162641.846000", "162641.854000", "162641.857000", "162641.859000", "162641.862000", "162641.865000", "162641.868000", "162641.871000", "162641.874000", "162641.877000", "162641.880000", "162701.767000", "162701.770000", "162701.773000", "162701.776000", "162701.779000", "162701.781000", "162701.788000", "162701.791000", "162701.794000", "162701.797000", "162701.800000", "162701.803000", "162701.805000", "162701.808000", "162701.811000", "162701.814000", "162701.817000", "162701.820000", "162701.823000", "162701.826000", "162721.767000", "162721.770000", "162721.773000", "162721.776000", "162721.779000", "162721.781000", "162721.784000", "162721.787000", "162721.794000", "162721.796000", "162721.799000", "162721.802000", "162721.805000", "162721.808000", "162721.811000", "162721.814000", "162721.816000", "162721.819000", "162721.822000", "162721.825000", "162741.767000", "162741.770000", "162741.773000", "162741.776000", "162741.779000", "162741.782000", "162741.785000", "162741.788000", "162741.791000", "162741.794000", "162741.796000", "162741.799000", "162741.802000", "162741.805000", "162741.808000", "162741.811000", "162741.814000", "162741.816000", "162741.819000", "162741.831000", "162801.768000", "162801.771000", "162801.774000", "162801.777000", "162801.780000", "162801.783000", "162801.785000", "162801.788000", "162801.791000", "162801.794000", "162801.797000", "162801.800000", "162801.803000", "162801.806000", "162801.808000", "162801.811000", "162801.814000", "162801.817000", "162801.820000", "162801.823000", "162801.829000", "162821.768000", "162821.771000", "162821.774000", "162821.777000", "162821.780000", "162821.783000", "162821.786000", "162821.788000", "162821.791000", "162821.794000", "162821.797000", "162821.800000", "162821.803000", "162821.806000", "162821.809000", "162821.812000", "162821.815000", "162821.817000", "162821.820000", "162821.823000", "162841.767000", "162841.770000", "162841.773000", "162841.776000", "162841.779000", "162841.782000", "162841.785000", "162841.787000", "162841.790000", "162841.793000", "162841.796000", "162841.799000", "162841.802000", "162841.805000", "162841.808000", "162841.810000", "162841.813000", "162841.816000", "162841.819000", "162841.822000", "162921.783000", "162921.786000", "162921.789000", "162921.792000", "162921.795000", "162921.798000", "162921.801000", "162921.804000", "162921.807000", "162921.809000", "162921.812000", "162921.815000", "162921.818000", "162921.821000", "162921.824000", "162921.827000", "162921.830000", "162921.833000", "162921.836000", "162921.846000", "162921.849000", "162921.852000", "162921.855000", "162921.857000", "162921.860000", "162921.863000", "162921.866000", "163001.767000", "163001.770000", "163001.773000", "163001.776000", "163001.779000", "163001.782000", "163001.785000", "163001.788000", "163001.790000", "163001.793000", "163001.796000", "163001.799000", "163001.802000", "163001.805000", "163001.808000", "163001.811000", "163001.814000", "163001.816000", "163001.819000", "163001.822000", "163001.825000", "163001.828000", "163001.831000", "163001.834000", "163001.837000", "163001.840000", "163001.842000", "163041.768000", "163041.771000", "163041.774000", "163041.777000", "163041.780000", "163041.783000", "163041.786000", "163041.789000", "163041.791000", "163041.794000", "163041.797000", "163041.800000", "163041.803000", "163041.806000", "163041.809000", "163041.812000", "163041.815000", "163041.817000", "163041.820000", "163041.823000", "163041.826000", "163041.829000", "163041.832000", "163041.835000", "163041.838000", "163041.841000", "163041.844000", "163121.767000", "163121.770000", "163121.773000", "163121.776000", "163121.779000", "163121.782000", "163121.784000", "163121.787000", "163121.790000", "163121.793000", "163121.796000", "163121.799000", "163121.802000", "163121.806000", "163121.809000", "163121.812000", "163121.815000", "163121.818000", "163121.820000", "163121.823000", "163121.826000", "163121.829000", "163121.832000", "163121.835000", "163121.838000", "163121.841000", "163201.767000", "163201.770000", "163201.773000", "163201.776000", "163201.779000", "163201.782000", "163201.785000", "163201.787000", "163201.790000", "163201.793000", "163201.796000", "163201.799000", "163201.802000", "163201.805000", "163201.808000", "163201.811000", "163201.814000", "163201.816000", "163201.819000", "163201.822000", "163201.825000", "163201.828000", "163201.831000", "163201.834000", "163201.837000", "163201.840000", "163201.842000", "163241.768000", "163241.771000", "163241.774000", "163241.777000", "163241.780000", "163241.783000", "163241.786000", "163241.789000", "163241.791000", "163241.794000", "163241.797000", "163241.800000", "163241.803000", "163241.806000", "163241.809000", "163241.812000", "163241.815000", "163241.818000", "163241.820000", "163241.823000", "163241.826000", "163241.830000", "163241.833000", "163241.835000", "163241.838000", "163241.841000", "163241.844000", "163321.767000", "163321.770000", "163321.773000", "163321.776000", "163321.779000", "163321.782000", "163321.785000", "163321.788000", "163321.790000", "163321.793000", "163321.801000", "163321.804000", "163321.807000", "163321.810000", "163321.813000", "163321.816000", "163321.819000", "163321.821000", "163321.824000", "163321.827000", "163321.830000", "163321.833000", "163321.836000", "163321.839000", "163321.842000", "163321.845000", "163321.848000", "163401.767000", "163401.779000", "163401.782000", "163401.785000", "163401.788000", "163401.791000", "163401.794000", "163401.797000", "163401.800000", "163401.803000", "163401.806000", "163401.808000", "163401.811000", "163401.814000", "163401.817000", "163401.820000", "163401.823000", "163401.826000", "163401.829000", "163401.832000", "163401.834000", "163401.837000", "163401.840000", "163401.843000", "163401.846000", "163401.849000", "163401.852000", "163441.767000", "163441.770000", "163441.773000", "163441.776000", "163441.779000", "163441.782000", "163441.785000", "163441.788000", "163441.791000", "163441.794000", "163441.797000", "163441.799000", "163441.802000", "163441.805000", "163441.808000", "163441.811000", "163441.814000", "163441.817000", "163441.820000", "163441.823000", "163441.826000", "163441.829000", "163441.831000", "163441.834000", "163441.837000", "163441.840000", "163441.843000", "163521.768000", "163521.771000", "163521.774000", "163521.777000", "163521.780000", "163521.783000", "163521.786000", "163521.789000", "163521.792000", "163521.794000", "163521.797000", "163521.800000", "163521.803000", "163521.806000", "163521.809000", "163521.813000", "163521.816000", "163521.819000", "163521.822000", "163521.825000", "163521.828000", "163521.831000", "163521.833000", "163521.836000", "163521.839000", "163521.842000", "163601.767000", "163601.770000", "163601.773000", "163601.776000", "163601.779000", "163601.782000", "163601.785000", "163601.788000", "163601.791000", "163601.794000", "163601.797000", "163601.800000", "163601.803000", "163601.806000", "163601.809000", "163601.812000", "163601.815000", "163601.818000", "163601.821000", "163601.824000", "163601.827000", "163601.830000", "163601.833000", "163601.836000", "163601.839000", "163601.842000", "163601.845000", "163641.767000", "163641.770000", "163641.773000", "163641.776000", "163641.779000", "163641.782000", "163641.785000", "163641.788000", "163641.790000", "163641.793000", "163641.796000", "163641.799000", "163641.802000", "163641.805000", "163641.808000", "163641.811000", "163641.814000", "163641.817000", "163641.819000", "163641.822000", "163641.825000", "163641.828000", "163641.831000", "163641.834000", "163641.837000", "163641.840000", "163641.843000", "163654.250000", "163654.253000", "163654.256000", "163654.259000", "163654.262000", "163654.265000", "163654.268000", "163654.271000", "163654.274000"],
