{
  "AcquisitionMatrixPE": 104,
  "AcquisitionNumber": 1,
  "AcquisitionTime": "16:49:41.467500",
  "BandwidthPerPixelPhaseEncode": 17.17,
  "BaseResolution": 104,
  "BodyPartExamined": "BRAIN",
  "CoilString": "HC1-7;NC1_2",
  "ConsistencyInfo": "N4_VE11C_LATEST_20160120",
  "ConversionSoftware": "dcm2niix",
  "ConversionSoftwareVersion": "v1.0.20190720  (JP2:OpenJPEG) GCC7.3.0",
  "DerivedVendorReportedEchoSpacing": 0.000560011,
  "DeviceSerialNumber": "167006",
  "DwellTime": 2.1e-06,
  "EchoTime": 0.037,
  "EchoTrainLength": 104,
  "EffectiveEchoSpacing": 0.000560011,
  "FlipAngle": 52,
  "ImageComments": "Unaliased_MB4_PE3_LB",
  "ImageOrientationPatientDICOM": [0.999876, -0.0155874, -0.00203551, 0.0143109, 0.956179, -0.292434],
  "ImageType": [
    "ORIGINAL",
    "PRIMARY",
    "M",
    "MB",
    "ND",
    "MOSAIC"
],
  "ImagingFrequency": 123.259,
  "InPlanePhaseEncodingDirectionDICOM": "COL",
  "InstitutionAddress": "Chemin_Queen-Mary_4565_Montreal_District_CA_H3W_1W5",
  "InstitutionName": "IUGM",
  "InstitutionalDepartmentName": "Department",
  "MRAcquisitionType": "2D",
  "MagneticFieldStrength": 3,
  "Manufacturer": "Siemens",
  "ManufacturersModelName": "Prisma_fit",
  "Modality": "MR",
  "MultibandAccelerationFactor": 4,
  "PartialFourier": 1,
  "PatientPosition": "HFS",
  "PercentPhaseFOV": 100,
  "PhaseEncodingDirection": "j",
  "PhaseEncodingSteps": 104,
  "PhaseResolution": 1,
  "PixelBandwidth": 2290,
  "ProcedureStepDescription": "video_friends",
  "ProtocolName": "func_task-s01e16a",
  "PulseSequenceDetails": "%CustomerSeq%_cmrr_mbep2d_bold",
  "ReceiveCoilActiveElements": "HC1-7;NC1,2",
  "ReceiveCoilName": "HeadNeck_64",
  "ReconMatrixPE": 104,
  "RepetitionTime": 1.49,
  "SAR": 0.0310074,
  "ScanOptions": "FS",
  "ScanningSequence": "EP",
  "SequenceName": "epfid2d1_104",
  "SequenceVariant": "SK_SS",
  "SeriesDescription": "func_task-s01e16a",
  "SeriesNumber": 14,
  "ShimSetting": [622, -7216, -8820, 670, 22, -39, -23, -9],
  "SliceThickness": 2,
  "SliceTiming": [0, 0.7825, 0.0975, 0.88, 0.195, 0.98, 0.2925, 1.0775, 0.39, 1.175, 0.49, 1.2725, 0.5875, 1.37, 0.685, 0, 0.7825, 0.0975, 0.88, 0.195, 0.98, 0.2925, 1.0775, 0.39, 1.175, 0.49, 1.2725, 0.5875, 1.37, 0.685, 0, 0.7825, 0.0975, 0.88, 0.195, 0.98, 0.2925, 1.0775, 0.39, 1.175, 0.49, 1.2725, 0.5875, 1.37, 0.685, 0, 0.7825, 0.0975, 0.88, 0.195, 0.98, 0.2925, 1.0775, 0.39, 1.175, 0.49, 1.2725, 0.5875, 1.37, 0.685],
  "SoftwareVersions": "syngo_MR_E11",
  "SpacingBetweenSlices": 2,
  "StationName": "MRC35049",
  "TaskName": "friends",
  "TotalReadoutTime": 0.0576811,
  "TxRefAmp": 210.703,
  "WipMemBlock": "76b79552-06fb-488b-8f67-812366559b8c||Sequence: R016 ve11c/master r/e634e98; Dec 19 2017 11:00:25 by eja",
  "dcmmeta_affine": [
    [-1.9997528791427612, 0.028621776029467583, -0.013009232468903065, 103.48221588134766],
    [0.031174875795841217, 1.9123570919036865, -0.58473801612854, -82.1115493774414],
    [-0.004071029368788004, 0.5848685503005981, 1.912566900253296, -68.87474822998047],
    [0.0, 0.0, 0.0, 1.0]
],
  "dcmmeta_reorient_transform": [
    [0.0, -1.0, 0.0, 103.0],
    [1.0, 0.0, 0.0, 0.0],
    [0.0, 0.0, 1.0, 0.0],
    [0.0, 0.0, 0.0, 1.0]
],
  "dcmmeta_shape": [104, 104, 60, 483],
  "dcmmeta_slice_dim": 2,
  "dcmmeta_version": 0.6,
  "global": {
    "const": {
      "AcquisitionMatrix": [104, 0, 0, 104],
      "AngioFlag": "N",
      "BitsAllocated": 16,
      "BitsStored": 16,
      "BodyPartExamined": "BRAIN",
      "Columns": 832,
      "EchoNumbers": 1,
      "EchoTime": 37.0,
      "EchoTrainLength": 104,
      "FlipAngle": 52.0,
      "HighBit": 15,
      "ImageOrientationPatient": [0.99987643659015, -0.0155874382779, -0.0020355146082, 0.01431088803832, 0.95617853889134, -0.2924342665407],
      "ImagePositionPatient": [-844.75863192769, -799.61155248525, 205.74070972247],
      "ImageType": [
        "ORIGINAL",
        "PRIMARY",
        "M",
        "MB",
        "ND",
        "MOSAIC"
],
      "ImagedNucleus": "1H",
      "ImagingFrequency": 123.259185,
      "InPlanePhaseEncodingDirection": "COL",
      "MRAcquisitionType": "2D",
      "MagneticFieldStrength": 3.0,
      "Manufacturer": "SIEMENS",
      "ManufacturerModelName": "Prisma_fit",
      "Modality": "MR",
      "NumberOfAverages": 1.0,
      "NumberOfPhaseEncodingSteps": 104,
      "PercentPhaseFieldOfView": 100.0,
      "PercentSampling": 100.0,
      "PerformedProcedureStepStartTime": "160101.927000",
      "PhotometricInterpretation": "MONOCHROME2",
      "PixelBandwidth": 2290.0,
      "PixelRepresentation": 0,
      "PixelSpacing": [2.0, 2.0],
      "ProtocolName": "func_task-s01e16a",
      "RepetitionTime": 1490.0,
      "Rows": 832,
      "SAR": 0.03100744760259,
      "SamplesPerPixel": 1,
      "ScanOptions": "FS",
      "ScanningSequence": "EP",
      "SequenceName": "epfid2d1_104",
      "SequenceVariant": [
        "SK",
        "SS"
],
      "SeriesDescription": "func_task-s01e16a",
      "SeriesNumber": 14,
      "SeriesTime": "165110.042000",
      "SliceLocation": -42.530024951203,
      "SliceThickness": 2.0,
      "SmallestImagePixelValue": 0,
      "SoftwareVersions": "syngo MR E11",
      "SpacingBetweenSlices": 1.9999999610816,
      "SpecificCharacterSet": "ISO_IR 100",
      "StudyID": "1",
      "StudyTime": "160101.876000",
      "TransmitCoilName": "Body",
      "VariableFlipAngleFlag": "N",
      "WindowCenterWidthExplanation": "Algo1",
      "dBdt": 0.0},
    "slices": {}
  },
  "time": {
    "samples": {
      "AcquisitionNumber": [1, 2, 3, 4, 5, 6, 7, 8, 9, 10, 11, 12, 13, 14, 15, 16, 17, 18, 19, 20, 21, 22, 23, 24, 25, 26, 27, 28, 29, 30, 31, 32, 33, 34, 35, 36, 37, 38, 39, 40, 41, 42, 43, 44, 45, 46, 47, 48, 49, 50, 51, 52, 53, 54, 55, 56, 57, 58, 59, 60, 61, 62, 63, 64, 65, 66, 67, 68, 69, 70, 71, 72, 73, 74, 75, 76, 77, 78, 79, 80, 81, 82, 83, 84, 85, 86, 87, 88, 89, 90, 91, 92, 93, 94, 95, 96, 97, 98, 99, 100, 101, 102, 103, 104, 105, 106, 107, 108, 109, 110, 111, 112, 113, 114, 115, 116, 117, 118, 119, 120, 121, 122, 123, 124, 125, 126, 127, 128, 129, 130, 131, 132, 133, 134, 135, 136, 137, 138, 139, 140, 141, 142, 143, 144, 145, 146, 147, 148, 149, 150, 151, 152, 153, 154, 155, 156, 157, 158, 159, 160, 161, 162, 163, 164, 165, 166, 167, 168, 169, 170, 171, 172, 173, 174, 175, 176, 177, 178, 179, 180, 181, 182, 183, 184, 185, 186, 187, 188, 189, 190, 191, 192, 193, 194, 195, 196, 197, 198, 199, 200, 201, 202, 203, 204, 205, 206, 207, 208, 209, 210, 211, 212, 213, 214, 215, 216, 217, 218, 219, 220, 221, 222, 223, 224, 225, 226, 227, 228, 229, 230, 231, 232, 233, 234, 235, 236, 237, 238, 239, 240, 241, 242, 243, 244, 245, 246, 247, 248, 249, 250, 251, 252, 253, 254, 255, 256, 257, 258, 259, 260, 261, 262, 263, 264, 265, 266, 267, 268, 269, 270, 271, 272, 273, 274, 275, 276, 277, 278, 279, 280, 281, 282, 283, 284, 285, 286, 287, 288, 289, 290, 291, 292, 293, 294, 295, 296, 297, 298, 299, 300, 301, 302, 303, 304, 305, 306, 307, 308, 309, 310, 311, 312, 313, 314, 315, 316, 317, 318, 319, 320, 321, 322, 323, 324, 325, 326, 327, 328, 329, 330, 331, 332, 333, 334, 335, 336, 337, 338, 339, 340, 341, 342, 343, 344, 345, 346, 347, 348, 349, 350, 351, 352, 353, 354, 355, 356, 357, 358, 359, 360, 361, 362, 363, 364, 365, 366, 367, 368, 369, 370, 371, 372, 373, 374, 375, 376, 377, 378, 379, 380, 381, 382, 383, 384, 385, 386, 387, 388, 389, 390, 391, 392, 393, 394, 395, 396, 397, 398, 399, 400, 401, 402, 403, 404, 405, 406, 407, 408, 409, 410, 411, 412, 413, 414, 415, 416, 417, 418, 419, 420, 421, 422, 423, 424, 425, 426, 427, 428, 429, 430, 431, 432, 433, 434, 435, 436, 437, 438, 439, 440, 441, 442, 443, 444, 445, 446, 447, 448, 449, 450, 451, 452, 453, 454, 455, 456, 457, 458, 459, 460, 461, 462, 463, 464, 465, 466, 467, 468, 469, 470, 471, 472, 473, 474, 475, 476, 477, 478, 479, 480, 481, 482, 483],
      "AcquisitionTime": ["164941.467500", "164942.957500", "164944.447500", "164945.937500", "164947.427500", "164948.917500", "164950.407500", "164951.897500", "164953.387500", "164954.877500", "164956.367500", "164957.857500", "164959.347500", "165000.837500", "165002.327500", "165003.817500", "165005.307500", "165006.797500", "165008.287500", "165009.777500", "165011.267500", "165012.757500", "165014.247500", "165015.737500", "165017.227500", "165018.717500", "165020.207500", "165021.697500", "165023.187500", "165024.677500", "165026.167500", "165027.657500", "165029.147500", "165030.637500", "165032.127500", "165033.617500", "165035.107500", "165036.597500", "165038.087500", "165039.577500", "165041.067500", "165042.557500", "165044.047500", "165045.537500", "165047.027500", "165048.517500", "165050.007500", "165051.497500", "165052.987500", "165054.477500", "165055.967500", "165057.457500", "165058.947500", "165100.437500", "165101.927500", "165103.417500", "165104.907500", "165106.397500", "165107.887500", "165109.377500", "165110.867500", "165112.357500", "165113.847500", "165115.337500", "165116.827500", "165118.317500", "165119.807500", "165121.297500", "165122.787500", "165124.277500", "165125.767500", "165127.257500", "165128.747500", "165130.237500", "165131.727500", "165133.217500", "165134.707500", "165136.197500", "165137.687500", "165139.177500", "165140.667500", "165142.157500", "165143.647500", "165145.137500", "165146.627500", "165148.117500", "165149.607500", "165151.097500", "165152.587500", "165154.077500", "165155.567500", "165157.057500", "165158.547500", "165200.037500", "165201.527500", "165203.017500", "165204.507500", "165205.997500", "165207.487500", "165208.977500", "165210.467500", "165211.957500", "165213.447500", "165214.937500", "165216.427500", "165217.917500", "165219.407500", "165220.897500", "165222.387500", "165223.877500", "165225.367500", "165226.857500", "165228.347500", "165229.837500", "165231.327500", "165232.817500", "165234.307500", "165235.797500", "165237.287500", "165238.777500", "165240.267500", "165241.757500", "165243.247500", "165244.737500", "165246.227500", "165247.717500", "165249.207500", "165250.697500", "165252.187500", "165253.677500", "165255.167500", "165256.657500", "165258.147500", "165259.637500", "165301.127500", "165302.617500", "165304.107500", "165305.597500", "165307.087500", "165308.577500", "165310.067500", "165311.557500", "165313.047500", "165314.537500", "165316.027500", "165317.517500", "165319.007500", "165320.497500", "165321.987500", "165323.477500", "165324.967500", "165326.457500", "165327.947500", "165329.437500", "165330.927500", "165332.417500", "165333.907500", "165335.397500", "165336.887500", "165338.377500", "165339.867500", "165341.357500", "165342.847500", "165344.337500", "165345.827500", "165347.317500", "165348.807500", "165350.297500", "165351.787500", "165353.277500", "165354.767500", "165356.257500", "165357.747500", "165359.237500", "165400.727500", "165402.217500", "165403.707500", "165405.197500", "165406.687500", "165408.177500", "165409.667500", "165411.157500", "165412.647500", "165414.137500", "165415.627500", "165417.117500", "165418.607500", "165420.097500", "165421.587500", "165423.077500", "165424.567500", "165426.057500", "165427.547500", "165429.037500", "165430.527500", "165432.017500", "165433.507500", "165434.997500", "165436.487500", "165437.977500", "165439.467500", "165440.957500", "165442.447500", "165443.937500", "165445.427500", "165446.917500", "165448.407500", "165449.897500", "165451.387500", "165452.877500", "165454.367500", "165455.857500", "165457.347500", "165458.837500", "165500.327500", "165501.817500", "165503.307500", "165504.797500", "165506.287500", "165507.777500", "165509.267500", "165510.757500", "165512.247500", "165513.737500", "165515.227500", "165516.717500", "165518.207500", "165519.697500", "165521.187500", "165522.677500", "165524.167500", "165525.657500", "165527.147500", "165528.637500", "165530.127500", "165531.617500", "165533.107500", "165534.597500", "165536.087500", "165537.577500", "165539.067500", "165540.557500", "165542.047500", "165543.537500", "165545.027500", "165546.517500", "165548.007500", "165549.497500", "165550.987500", "165552.477500", "165553.967500", "165555.457500", "165556.947500", "165558.437500", "165559.927500", "165601.417500", "165602.907500", "165604.397500", "165605.887500", "165607.377500", "165608.867500", "165610.357500", "165611.847500", "165613.337500", "165614.827500", "165616.317500", "165617.807500", "165619.297500", "165620.787500", "165622.277500", "165623.767500", "165625.257500", "165626.747500", "165628.237500", "165629.727500", "165631.217500", "165632.707500", "165634.197500", "165635.687500", "165637.177500", "165638.667500", "165640.157500", "165641.647500", "165643.137500", "165644.627500", "165646.117500", "165647.607500", "165649.097500", "165650.587500", "165652.077500", "165653.567500", "165655.057500", "165656.547500", "165658.037500", "165659.527500", "165701.017500", "165702.507500", "165703.997500", "165705.487500", "165706.977500", "165708.467500", "165709.957500", "165711.447500", "165712.937500", "165714.427500", "165715.917500", "165717.407500", "165718.897500", "165720.387500", "165721.877500", "165723.367500", "165724.857500", "165726.347500", "165727.837500", "165729.327500", "165730.817500", "165732.307500", "165733.797500", "165735.287500", "165736.777500", "165738.267500", "165739.757500", "165741.247500", "165742.737500", "165744.227500", "165745.717500", "165747.207500", "165748.697500", "165750.187500", "165751.677500", "165753.167500", "165754.657500", "165756.147500", "165757.637500", "165759.127500", "165800.617500", "165802.107500", "165803.597500", "165805.087500", "165806.577500", "165808.067500", "165809.557500", "165811.047500", "165812.537500", "165814.027500", "165815.517500", "165817.007500", "165818.497500", "165819.987500", "165821.477500", "165822.967500", "165824.457500", "165825.947500", "165827.437500", "165828.927500", "165830.417500", "165831.907500", "165833.397500", "165834.887500", "165836.377500", "165837.867500", "165839.357500", "165840.847500", "165842.337500", "165843.827500", "165845.317500", "165846.807500", "165848.297500", "165849.787500", "165851.277500", "165852.767500", "165854.257500", "165855.747500", "165857.237500", "165858.727500", "165900.217500", "165901.707500", "165903.197500", "165904.687500", "165906.177500", "165907.667500", "165909.157500", "165910.647500", "165912.137500", "165913.627500", "165915.117500", "165916.607500", "165918.097500", "165919.587500", "165921.077500", "165922.567500", "165924.057500", "165925.547500", "165927.037500", "165928.527500", "165930.017500", "165931.507500", "165932.997500", "165934.487500", "165935.977500", "165937.467500", "165938.957500", "165940.447500", "165941.937500", "165943.427500", "165944.917500", "165946.407500", "165947.897500", "165949.387500", "165950.877500", "165952.367500", "165953.857500", "165955.347500", "165956.837500", "165958.327500", "165959.817500", "170001.307500", "170002.797500", "170004.287500", "170005.777500", "170007.267500", "170008.757500", "170010.247500", "170011.737500", "170013.227500", "170014.717500", "170016.207500", "170017.697500", "170019.187500", "170020.677500", "170022.167500", "170023.657500", "170025.147500", "170026.637500", "170028.127500", "170029.617500", "170031.107500", "170032.597500", "170034.087500", "170035.577500", "170037.067500", "170038.557500", "170040.047500", "170041.537500", "170043.027500", "170044.517500", "170046.007500", "170047.497500", "170048.987500", "170050.477500", "170051.967500", "170053.457500", "170054.947500", "170056.437500", "170057.927500", "170059.417500", "170100.907500", "170102.397500", "170103.887500", "170105.377500", "170106.867500", "170108.357500", "170109.847500", "170111.337500", "170112.827500", "170114.317500", "170115.807500", "170117.297500", "170118.787500", "170120.277500", "170121.767500", "170123.257500", "170124.747500", "170126.237500", "170127.727500", "170129.217500", "170130.707500", "170132.197500", "170133.687500", "170135.177500", "170136.667500", "170138.157500", "170139.647500"],
      "ContentTime": ["165110.044000", "165110.048000", "165110.051000", "165110.054000", "165110.057000", "165110.059000", "165110.062000", "165110.065000", "165110.068000", "165110.071000", "165110.075000", "165110.078000", "165110.091000", "165110.094000", "165110.097000", "165110.100000", "165110.102000", "165110.105000", "165110.108000", "165110.111000", "165110.114000", "165110.117000", "165110.120000", "165110.123000", "165110.126000", "165110.128000", "165110.131000", "165110.134000", "165110.137000", "165110.140000", "165110.143000", "165110.146000", "165110.149000", "165110.151000", "165110.154000", "165130.016000", "165130.019000", "165130.022000", "165130.025000", "165130.028000", "165130.031000", "165130.033000", "165130.036000", "165130.039000", "165130.042000", "165130.045000", "165130.048000", "165130.051000", "165130.053000", "165130.056000", "165130.059000", "165130.062000", "165130.065000", "165130.068000", "165130.071000", "165150.015000", "165150.018000", "165150.027000", "165150.029000", "165150.032000", "165150.035000", "165150.038000", "165150.041000", "165150.044000", "165150.047000", "165150.050000", "165150.053000", "165150.056000", "165150.059000", "165150.062000", "165150.065000", "165150.067000", "165150.070000", "165150.074000", "165150.077000", "165150.080000", "165210.015000", "165210.018000", "165210.021000", "165210.024000", "165210.027000", "165210.029000", "165210.032000", "165210.035000", "165210.038000", "165210.041000", "165210.044000", "165210.047000", "165210.050000", "165210.052000", "165210.055000", "165210.058000", "165210.061000", "165210.064000", "165210.067000", "165210.070000", "165250.016000", "165250.019000", "165250.022000", "165250.025000", "165250.028000", "165250.031000", "165250.033000", "165250.036000", "165250.039000", "165250.042000", "165250.045000", "165250.048000", "165250.051000", "165250.054000", "165250.056000", "165250.059000", "165250.062000", "165250.065000", "165250.068000", "165250.071000", "165250.074000", "165250.076000", "165250.079000", "165250.082000", "165250.085000", "165250.088000", "165250.091000", "165250.094000", "165250.097000", "165250.099000", "165330.016000", "165330.019000", "165330.022000", "165330.025000", "165330.027000", "165330.030000", "165330.033000", "165330.036000", "165330.039000", "165330.042000", "165330.045000", "165330.048000", "165330.051000", "165330.054000", "165330.056000", "165330.059000", "165330.062000", "165330.065000", "165330.068000", "165330.071000", "165330.074000", "165330.077000", "165330.079000", "165330.082000", "165330.085000", "165330.088000", "165330.091000", "165410.015000", "165410.018000", "165410.021000", "165410.024000", "165410.027000", "165410.030000", "165410.032000", "165410.054000", "165410.057000", "165410.060000", "165410.063000", "165410.066000", "165410.069000", "165410.072000", "165410.074000", "165410.077000", "165410.080000", "165410.083000", "165410.086000", "165410.089000", "165410.092000", "165410.095000", "165410.098000", "165410.100000", "165410.103000", "165410.106000", "165450.016000", "165450.019000", "165450.022000", "165450.025000", "165450.028000", "165450.031000", "165450.034000", "165450.037000", "165450.040000", "165450.043000", "165450.046000", "165450.049000", "165450.052000", "165450.054000", "165450.057000", "165450.060000", "165450.063000", "165450.066000", "165450.069000", "165450.072000", "165450.075000", "165450.078000", "165450.081000", "165450.084000", "165450.087000", "165450.090000", "165450.093000", "165530.016000", "165530.019000", "165530.022000", "165530.025000", "165530.028000", "165530.031000", "165530.034000", "165530.036000", "165530.039000", "165530.042000", "165530.045000", "165530.048000", "165530.051000", "165530.054000", "165530.057000", "165530.060000", "165530.063000", "165530.065000", "165530.068000", "165530.071000", "165530.074000", "165530.077000", "165530.080000", "165530.083000", "165530.086000", "165530.089000", "165530.092000", "165610.016000", "165610.019000", "165610.022000", "165610.025000", "165610.028000", "165610.031000", "165610.034000", "165610.037000", "165610.040000", "165610.043000", "165610.046000", "165610.049000", "165610.051000", "165610.054000", "165610.057000", "165610.060000", "165610.063000", "165610.066000", "165610.069000", "165610.071000", "165610.074000", "165610.077000", "165610.080000", "165610.083000", "165610.086000", "165610.089000", "165610.092000", "165650.015000", "165650.018000", "165650.021000", "165650.024000", "165650.027000", "165650.030000", "165650.032000", "165650.035000", "165650.038000", "165650.041000", "165650.044000", "165650.047000", "165650.050000", "165650.053000", "165650.056000", "165650.059000", "165650.061000", "165650.064000", "165650.067000", "165650.070000", "165650.073000", "165650.076000", "165650.079000", "165650.082000", "165650.085000", "165650.088000", "165650.091000", "165730.016000", "165730.019000", "165730.022000", "165730.025000", "165730.028000", "165730.031000", "165730.034000", "165730.036000", "165730.039000", "165730.042000", "165730.045000", "165730.048000", "165730.051000", "165730.054000", "165730.057000", "165730.060000", "165730.063000", "165730.065000", "165730.068000", "165730.071000", "165730.074000", "165730.077000", "165730.080000", "165730.083000", "165730.086000", "165730.089000", "165730.092000", "165810.016000", "165810.019000", "165810.022000", "165810.025000", "165810.028000", "165810.031000", "165810.034000", "165810.036000", "165810.039000", "165810.042000", "165810.045000", "165810.048000", "165810.051000", "165810.054000", "165810.057000", "165810.060000", "165810.063000", "165810.066000", "165810.069000", "165810.072000", "165810.075000", "165810.086000", "165810.089000", "165810.092000", "165810.095000", "165810.098000", "165850.015000", "165850.018000", "165850.021000", "165850.024000", "165850.027000", "165850.030000", "165850.033000", "165850.035000", "165850.038000", "165850.041000", "165850.044000", "165850.047000", "165850.050000", "165850.053000", "165850.056000", "165850.059000", "165850.061000", "165850.064000", "165850.067000", "165850.070000", "165850.073000", "165850.076000", "165850.079000", "165850.082000", "165850.085000", "165850.087000", "165850.090000", "165910.015000", "165910.018000", "165910.021000", "165910.024000", "165910.027000", "165910.030000", "165910.033000", "165910.035000", "165910.038000", "165910.041000", "165910.044000", "165910.047000", "165910.050000", "165910.053000", "165950.016000", "165950.019000", "165950.022000", "165950.025000", "165950.028000", "165950.031000", "165950.034000", "165950.037000", "165950.039000", "165950.042000", "165950.045000", "165950.048000", "165950.051000", "165950.054000", "165950.057000", "165950.060000", "165950.063000", "165950.065000", "165950.068000", "165950.071000", "165950.074000", "165950.077000", "165950.080000", "165950.083000", "165950.086000", "165950.089000", "165950.091000", "170030.016000", "170030.019000", "170030.022000", "170030.025000", "170030.028000", "170030.031000", "170030.034000", "170030.037000", "170030.040000", "170030.042000", "170030.045000", "170030.048000", "170030.051000", "170030.054000", "170030.057000", "170030.060000", "170030.063000", "170030.066000", "170030.069000", "170030.072000", "170030.075000", "170030.078000", "170030.080000", "170030.083000", "170030.086000", "170030.089000", "170110.015000", "170110.018000", "170110.021000", "170110.024000", "170110.027000", "170110.030000", "170110.033000", "170110.036000", "170110.039000", "170110.041000", "170110.044000", "170110.047000", "170110.050000", "170110.053000", "170110.056000", "170110.059000", "170110.062000", "170110.065000", "170110.068000", "170110.071000", "170110.073000", "170110.076000", "170110.079000", "170110.082000", "170110.085000", "170110.088000", "170110.091000", "170141.690000", "170141.693000", "170141.696000", "170141.699000", "170141.702000", "170141.705000", "170141.708000", "170141.711000", "170141.714000", "170141.718000", "170141.721000", "170141.724000", "170141.727000", "170141.730000", "170141.733000", "170141.735000", "170141.738000", "170141.741000", "170141.744000", "170141.747000", "170141.750000", "170141.753000"],
