{
  "AcquisitionMatrixPE": 104,
  "AcquisitionNumber": 1,
  "AcquisitionTime": "18:07:29.945000",
  "BandwidthPerPixelPhaseEncode": 17.17,
  "BaseResolution": 104,
  "BodyPartExamined": "BRAIN",
  "CoilString": "HC1-7;NC1_2",
  "ConsistencyInfo": "N4_VE11C_LATEST_20160120",
  "ConversionSoftware": "dcm2niix",
  "ConversionSoftwareVersion": "v1.0.20190902",
  "DerivedVendorReportedEchoSpacing": 0.000560011,
  "DeviceSerialNumber": "167006",
  "DwellTime": 2.1e-06,
  "EchoTime": 0.037,
  "EchoTrainLength": 104,
  "EffectiveEchoSpacing": 0.000560011,
  "FlipAngle": 52,
  "ImageComments": "Unaliased_MB4_PE3_LB",
  "ImageOrientationPatientDICOM": [0.999037, -0.04029, -0.0173654, 0.0310469, 0.9289, -0.369028],
  "ImageType": [
    "ORIGINAL",
    "PRIMARY",
    "M",
    "MB",
    "ND",
    "MOSAIC"
],
  "ImagingFrequency": 123.259,
  "InPlanePhaseEncodingDirectionDICOM": "COL",
  "InstitutionAddress": "Chemin_Queen-Mary_4565_Montreal_District_CA_H3W_1W5",
  "InstitutionName": "IUGM",
  "InstitutionalDepartmentName": "Department",
  "MRAcquisitionType": "2D",
  "MagneticFieldStrength": 3,
  "Manufacturer": "Siemens",
  "ManufacturersModelName": "Prisma_fit",
  "Modality": "MR",
  "MultibandAccelerationFactor": 4,
  "PartialFourier": 1,
  "PatientPosition": "HFS",
  "PercentPhaseFOV": 100,
  "PhaseEncodingDirection": "j",
  "PhaseEncodingSteps": 104,
  "PhaseResolution": 1,
  "PixelBandwidth": 2290,
  "ProcedureStepDescription": "video_friends",
  "ProtocolName": "func_task-friends-s02e23a",
  "PulseSequenceDetails": "%CustomerSeq%_cmrr_mbep2d_bold",
  "ReceiveCoilActiveElements": "HC1-7;NC1,2",
  "ReceiveCoilName": "HeadNeck_64",
  "ReconMatrixPE": 104,
  "RepetitionTime": 1.49,
  "SAR": 0.0347578,
  "ScanOptions": "FS",
  "ScanningSequence": "EP",
  "SequenceName": "epfid2d1_104",
  "SequenceVariant": "SK_SS",
  "SeriesDescription": "func_task-friends-s02e23a",
  "SeriesNumber": 17,
  "ShimSetting": [617, -7290, -8813, 445, 21, -434, 36, 27],
  "SliceThickness": 2,
  "SliceTiming": [0, 0.7825, 0.0975, 0.88, 0.195, 0.98, 0.2925, 1.0775, 0.39, 1.175, 0.49, 1.2725, 0.5875, 1.37, 0.685, 0, 0.7825, 0.0975, 0.88, 0.195, 0.98, 0.2925, 1.0775, 0.39, 1.175, 0.49, 1.2725, 0.5875, 1.37, 0.685, 0, 0.7825, 0.0975, 0.88, 0.195, 0.98, 0.2925, 1.0775, 0.39, 1.175, 0.49, 1.2725, 0.5875, 1.37, 0.685, 0, 0.7825, 0.0975, 0.88, 0.195, 0.98, 0.2925, 1.0775, 0.39, 1.175, 0.49, 1.2725, 0.5875, 1.37, 0.685],
  "SoftwareVersions": "syngo_MR_E11",
  "SpacingBetweenSlices": 2,
  "StationName": "MRC35049",
  "TaskName": "s02e23a",
  "TotalReadoutTime": 0.0576811,
  "TxRefAmp": 234.798,
  "WipMemBlock": "845c8417-6427-4240-a65e-c24a416758d4||Sequence: R016 ve11c/master r/e634e98; Dec 19 2017 11:00:25 by eja",
  "dcmmeta_affine": [
    [-1.9980742931365967, 0.06209387257695198, -0.06199764087796211, 97.84911346435547],
    [0.0805799588561058, 1.8577994108200073, -0.7362664937973022, -73.60453796386719],
    [-0.03473076969385147, 0.738055408000946, 1.858512282371521, -60.104393005371094],
    [0.0, 0.0, 0.0, 1.0]
],
  "dcmmeta_reorient_transform": [
    [0.0, -1.0, 0.0, 103.0],
    [1.0, 0.0, 0.0, 0.0],
    [0.0, 0.0, 1.0, 0.0],
    [0.0, 0.0, 0.0, 1.0]
],
  "dcmmeta_shape": [104, 104, 60, 456],
  "dcmmeta_slice_dim": 2,
  "dcmmeta_version": 0.6,
  "global": {
    "const": {
      "AcquisitionMatrix": [104, 0, 0, 104],
      "AngioFlag": "N",
      "BitsAllocated": 16,
      "BitsStored": 16,
      "BodyPartExamined": "BRAIN",
      "Columns": 832,
      "EchoNumbers": 1,
      "EchoTime": 37.0,
      "EchoTrainLength": 104,
      "FlipAngle": 52.0,
      "HighBit": 15,
      "ImageOrientationPatient": [0.99903711689711, -0.0402899799938, -0.017365384361, 0.03104693664135, 0.9288996928148, -0.3690277068375],
      "ImagePositionPatient": [-854.14596967436, -764.65667034931, 297.20948438753],
      "ImageType": [
        "ORIGINAL",
        "PRIMARY",
        "M",
        "MB",
        "ND",
        "MOSAIC"
],
      "ImagedNucleus": "1H",
      "ImagingFrequency": 123.258808,
      "InPlanePhaseEncodingDirection": "COL",
      "MRAcquisitionType": "2D",
      "MagneticFieldStrength": 3.0,
      "Manufacturer": "SIEMENS",
      "ManufacturerModelName": "Prisma_fit",
      "Modality": "MR",
      "NumberOfAverages": 1.0,
      "NumberOfPhaseEncodingSteps": 104,
      "PercentPhaseFieldOfView": 100.0,
      "PercentSampling": 100.0,
      "PerformedProcedureStepStartTime": "170828.711000",
      "PhotometricInterpretation": "MONOCHROME2",
      "PixelBandwidth": 2290.0,
      "PixelRepresentation": 0,
      "PixelSpacing": [2.0, 2.0],
      "ProtocolName": "func_task-friends-s02e23a",
      "RepetitionTime": 1490.0,
      "Rows": 832,
      "SAR": 0.03475779564378,
      "SamplesPerPixel": 1,
      "ScanOptions": "FS",
      "ScanningSequence": "EP",
      "SequenceName": "epfid2d1_104",
      "SequenceVariant": [
        "SK",
        "SS"
],
      "SeriesDescription": "func_task-friends-s02e23a",
      "SeriesNumber": 17,
      "SeriesTime": "180901.113000",
      "SliceLocation": -31.789307971869,
      "SliceThickness": 2.0,
      "SmallestImagePixelValue": 0,
      "SoftwareVersions": "syngo MR E11",
      "SpacingBetweenSlices": 2.0000000276092,
      "SpecificCharacterSet": "ISO_IR 100",
      "StudyID": "1",
      "StudyTime": "170828.624000",
      "TransmitCoilName": "Body",
      "VariableFlipAngleFlag": "N",
      "WindowCenterWidthExplanation": "Algo1",
      "dBdt": 0.0},
    "slices": {}
  },
  "time": {
    "samples": {
      "AcquisitionNumber": [1, 2, 3, 4, 5, 6, 7, 8, 9, 10, 11, 12, 13, 14, 15, 16, 17, 18, 19, 20, 21, 22, 23, 24, 25, 26, 27, 28, 29, 30, 31, 32, 33, 34, 35, 36, 37, 38, 39, 40, 41, 42, 43, 44, 45, 46, 47, 48, 49, 50, 51, 52, 53, 54, 55, 56, 57, 58, 59, 60, 61, 62, 63, 64, 65, 66, 67, 68, 69, 70, 71, 72, 73, 74, 75, 76, 77, 78, 79, 80, 81, 82, 83, 84, 85, 86, 87, 88, 89, 90, 91, 92, 93, 94, 95, 96, 97, 98, 99, 100, 101, 102, 103, 104, 105, 106, 107, 108, 109, 110, 111, 112, 113, 114, 115, 116, 117, 118, 119, 120, 121, 122, 123, 124, 125, 126, 127, 128, 129, 130, 131, 132, 133, 134, 135, 136, 137, 138, 139, 140, 141, 142, 143, 144, 145, 146, 147, 148, 149, 150, 151, 152, 153, 154, 155, 156, 157, 158, 159, 160, 161, 162, 163, 164, 165, 166, 167, 168, 169, 170, 171, 172, 173, 174, 175, 176, 177, 178, 179, 180, 181, 182, 183, 184, 185, 186, 187, 188, 189, 190, 191, 192, 193, 194, 195, 196, 197, 198, 199, 200, 201, 202, 203, 204, 205, 206, 207, 208, 209, 210, 211, 212, 213, 214, 215, 216, 217, 218, 219, 220, 221, 222, 223, 224, 225, 226, 227, 228, 229, 230, 231, 232, 233, 234, 235, 236, 237, 238, 239, 240, 241, 242, 243, 244, 245, 246, 247, 248, 249, 250, 251, 252, 253, 254, 255, 256, 257, 258, 259, 260, 261, 262, 263, 264, 265, 266, 267, 268, 269, 270, 271, 272, 273, 274, 275, 276, 277, 278, 279, 280, 281, 282, 283, 284, 285, 286, 287, 288, 289, 290, 291, 292, 293, 294, 295, 296, 297, 298, 299, 300, 301, 302, 303, 304, 305, 306, 307, 308, 309, 310, 311, 312, 313, 314, 315, 316, 317, 318, 319, 320, 321, 322, 323, 324, 325, 326, 327, 328, 329, 330, 331, 332, 333, 334, 335, 336, 337, 338, 339, 340, 341, 342, 343, 344, 345, 346, 347, 348, 349, 350, 351, 352, 353, 354, 355, 356, 357, 358, 359, 360, 361, 362, 363, 364, 365, 366, 367, 368, 369, 370, 371, 372, 373, 374, 375, 376, 377, 378, 379, 380, 381, 382, 383, 384, 385, 386, 387, 388, 389, 390, 391, 392, 393, 394, 395, 396, 397, 398, 399, 400, 401, 402, 403, 404, 405, 406, 407, 408, 409, 410, 411, 412, 413, 414, 415, 416, 417, 418, 419, 420, 421, 422, 423, 424, 425, 426, 427, 428, 429, 430, 431, 432, 433, 434, 435, 436, 437, 438, 439, 440, 441, 442, 443, 444, 445, 446, 447, 448, 449, 450, 451, 452, 453, 454, 455, 456],
      "AcquisitionTime": ["180729.945000", "180731.435000", "180732.925000", "180734.415000", "180735.905000", "180737.395000", "180738.885000", "180740.375000", "180741.865000", "180743.355000", "180744.845000", "180746.335000", "180747.825000", "180749.315000", "180750.805000", "180752.295000", "180753.785000", "180755.275000", "180756.765000", "180758.255000", "180759.745000", "180801.235000", "180802.725000", "180804.215000", "180805.705000", "180807.195000", "180808.685000", "180810.175000", "180811.665000", "180813.155000", "180814.645000", "180816.135000", "180817.625000", "180819.115000", "180820.605000", "180822.095000", "180823.585000", "180825.075000", "180826.565000", "180828.055000", "180829.545000", "180831.035000", "180832.525000", "180834.015000", "180835.505000", "180836.995000", "180838.485000", "180839.975000", "180841.465000", "180842.955000", "180844.445000", "180845.935000", "180847.425000", "180848.915000", "180850.405000", "180851.895000", "180853.385000", "180854.875000", "180856.365000", "180857.855000", "180859.345000", "180900.835000", "180902.325000", "180903.815000", "180905.305000", "180906.795000", "180908.285000", "180909.775000", "180911.265000", "180912.755000", "180914.245000", "180915.735000", "180917.225000", "180918.715000", "180920.205000", "180921.695000", "180923.185000", "180924.675000", "180926.165000", "180927.655000", "180929.145000", "180930.635000", "180932.125000", "180933.615000", "180935.105000", "180936.595000", "180938.085000", "180939.575000", "180941.065000", "180942.555000", "180944.045000", "180945.535000", "180947.025000", "180948.515000", "180950.005000", "180951.495000", "180952.985000", "180954.475000", "180955.965000", "180957.455000", "180958.945000", "181000.435000", "181001.925000", "181003.415000", "181004.905000", "181006.395000", "181007.885000", "181009.375000", "181010.865000", "181012.355000", "181013.845000", "181015.335000", "181016.825000", "181018.315000", "181019.805000", "181021.295000", "181022.785000", "181024.275000", "181025.765000", "181027.255000", "181028.745000", "181030.235000", "181031.725000", "181033.215000", "181034.705000", "181036.195000", "181037.685000", "181039.175000", "181040.665000", "181042.155000", "181043.645000", "181045.135000", "181046.625000", "181048.115000", "181049.605000", "181051.095000", "181052.585000", "181054.075000", "181055.565000", "181057.055000", "181058.545000", "181100.035000", "181101.525000", "181103.015000", "181104.505000", "181105.995000", "181107.485000", "181108.975000", "181110.465000", "181111.955000", "181113.445000", "181114.935000", "181116.425000", "181117.915000", "181119.405000", "181120.895000", "181122.385000", "181123.875000", "181125.365000", "181126.855000", "181128.345000", "181129.835000", "181131.325000", "181132.815000", "181134.305000", "181135.795000", "181137.285000", "181138.775000", "181140.265000", "181141.755000", "181143.245000", "181144.735000", "181146.225000", "181147.715000", "181149.205000", "181150.695000", "181152.185000", "181153.675000", "181155.165000", "181156.655000", "181158.145000", "181159.635000", "181201.125000", "181202.615000", "181204.105000", "181205.595000", "181207.085000", "181208.575000", "181210.065000", "181211.555000", "181213.045000", "181214.535000", "181216.025000", "181217.515000", "181219.005000", "181220.495000", "181221.985000", "181223.475000", "181224.965000", "181226.455000", "181227.945000", "181229.435000", "181230.925000", "181232.415000", "181233.905000", "181235.395000", "181236.885000", "181238.375000", "181239.865000", "181241.355000", "181242.845000", "181244.335000", "181245.825000", "181247.315000", "181248.805000", "181250.295000", "181251.785000", "181253.275000", "181254.765000", "181256.255000", "181257.745000", "181259.235000", "181300.725000", "181302.215000", "181303.705000", "181305.195000", "181306.685000", "181308.175000", "181309.665000", "181311.155000", "181312.645000", "181314.135000", "181315.625000", "181317.115000", "181318.605000", "181320.095000", "181321.585000", "181323.075000", "181324.565000", "181326.055000", "181327.545000", "181329.035000", "181330.525000", "181332.015000", "181333.505000", "181334.995000", "181336.485000", "181337.975000", "181339.465000", "181340.955000", "181342.445000", "181343.935000", "181345.425000", "181346.915000", "181348.405000", "181349.895000", "181351.385000", "181352.875000", "181354.365000", "181355.855000", "181357.345000", "181358.835000", "181400.325000", "181401.815000", "181403.305000", "181404.795000", "181406.285000", "181407.775000", "181409.265000", "181410.755000", "181412.245000", "181413.735000", "181415.225000", "181416.715000", "181418.205000", "181419.695000", "181421.185000", "181422.675000", "181424.165000", "181425.655000", "181427.145000", "181428.635000", "181430.125000", "181431.615000", "181433.105000", "181434.595000", "181436.085000", "181437.575000", "181439.065000", "181440.555000", "181442.045000", "181443.535000", "181445.025000", "181446.515000", "181448.005000", "181449.495000", "181450.985000", "181452.475000", "181453.965000", "181455.455000", "181456.945000", "181458.435000", "181459.925000", "181501.415000", "181502.905000", "181504.395000", "181505.885000", "181507.375000", "181508.865000", "181510.355000", "181511.845000", "181513.335000", "181514.825000", "181516.315000", "181517.805000", "181519.295000", "181520.785000", "181522.275000", "181523.765000", "181525.255000", "181526.745000", "181528.235000", "181529.725000", "181531.215000", "181532.705000", "181534.195000", "181535.685000", "181537.175000", "181538.665000", "181540.155000", "181541.645000", "181543.135000", "181544.625000", "181546.115000", "181547.605000", "181549.095000", "181550.585000", "181552.075000", "181553.565000", "181555.055000", "181556.545000", "181558.035000", "181559.525000", "181601.015000", "181602.505000", "181603.995000", "181605.485000", "181606.975000", "181608.465000", "181609.955000", "181611.445000", "181612.935000", "181614.425000", "181615.915000", "181617.405000", "181618.895000", "181620.385000", "181621.875000", "181623.365000", "181624.855000", "181626.345000", "181627.835000", "181629.325000", "181630.815000", "181632.305000", "181633.795000", "181635.285000", "181636.775000", "181638.265000", "181639.755000", "181641.245000", "181642.735000", "181644.225000", "181645.715000", "181647.205000", "181648.695000", "181650.185000", "181651.675000", "181653.165000", "181654.655000", "181656.145000", "181657.635000", "181659.125000", "181700.615000", "181702.105000", "181703.595000", "181705.085000", "181706.575000", "181708.065000", "181709.555000", "181711.045000", "181712.535000", "181714.025000", "181715.515000", "181717.005000", "181718.495000", "181719.985000", "181721.475000", "181722.965000", "181724.455000", "181725.945000", "181727.435000", "181728.925000", "181730.415000", "181731.905000", "181733.395000", "181734.885000", "181736.375000", "181737.865000", "181739.355000", "181740.845000", "181742.335000", "181743.825000", "181745.315000", "181746.805000", "181748.295000", "181749.785000", "181751.275000", "181752.765000", "181754.255000", "181755.745000", "181757.235000", "181758.725000", "181800.215000", "181801.705000", "181803.195000", "181804.685000", "181806.175000", "181807.665000", "181809.155000", "181810.645000", "181812.135000", "181813.625000", "181815.115000", "181816.605000", "181818.095000", "181819.585000", "181821.075000", "181822.565000", "181824.055000", "181825.545000", "181827.035000", "181828.525000", "181830.015000", "181831.505000", "181832.995000", "181834.485000", "181835.975000", "181837.465000", "181838.955000", "181840.445000", "181841.935000", "181843.425000", "181844.915000", "181846.405000", "181847.895000"],
      "ContentTime": ["180901.116000", "180901.125000", "180901.128000", "180901.131000", "180901.134000", "180901.137000", "180901.140000", "180901.143000", "180901.146000", "180901.149000", "180901.152000", "180901.160000", "180901.172000", "180901.175000", "180901.178000", "180901.181000", "180901.184000", "180901.187000", "180901.190000", "180901.193000", "180901.196000", "180901.199000", "180901.203000", "180901.206000", "180901.208000", "180901.212000", "180901.215000", "180901.218000", "180901.221000", "180901.224000", "180901.227000", "180901.230000", "180901.233000", "180901.236000", "180901.239000", "180901.242000", "180901.245000", "180901.248000", "180901.251000", "180921.083000", "180921.086000", "180921.089000", "180921.092000", "180921.095000", "180921.098000", "180921.101000", "180921.104000", "180921.107000", "180921.110000", "180921.113000", "180921.116000", "180921.124000", "180921.127000", "180921.130000", "180921.133000", "180921.136000", "180921.139000", "180921.142000", "180921.145000", "180941.083000", "180941.086000", "180941.090000", "180941.093000", "180941.096000", "180941.099000", "180941.102000", "180941.105000", "180941.108000", "180941.111000", "180941.114000", "180941.117000", "180941.120000", "180941.123000", "180941.126000", "180941.129000", "180941.132000", "180941.135000", "180941.138000", "180941.141000", "181001.084000", "181001.087000", "181001.090000", "181001.093000", "181001.096000", "181001.099000", "181001.102000", "181001.105000", "181001.108000", "181001.111000", "181001.114000", "181001.117000", "181001.120000", "181001.123000", "181001.127000", "181001.129000", "181001.132000", "181001.136000", "181001.139000", "181001.142000", "181041.084000", "181041.087000", "181041.090000", "181041.093000", "181041.096000", "181041.099000", "181041.102000", "181041.106000", "181041.109000", "181041.111000", "181041.121000", "181041.125000", "181041.128000", "181041.131000", "181041.134000", "181041.137000", "181041.140000", "181041.143000", "181041.146000", "181041.149000", "181041.152000", "181041.155000", "181041.158000", "181041.161000", "181041.164000", "181041.167000", "181041.170000", "181041.173000", "181121.084000", "181121.087000", "181121.090000", "181121.093000", "181121.097000", "181121.099000", "181121.102000", "181121.105000", "181121.109000", "181121.112000", "181121.115000", "181121.118000", "181121.121000", "181121.124000", "181121.127000", "181121.130000", "181121.139000", "181121.142000", "181121.145000", "181121.148000", "181121.151000", "181121.154000", "181121.157000", "181121.191000", "181121.194000", "181121.197000", "181121.200000", "181201.083000", "181201.086000", "181201.089000", "181201.093000", "181201.096000", "181201.099000", "181201.102000", "181201.105000", "181201.108000", "181201.111000", "181201.114000", "181201.117000", "181201.120000", "181201.123000", "181201.126000", "181201.129000", "181201.132000", "181201.140000", "181201.143000", "181201.146000", "181201.149000", "181201.152000", "181201.155000", "181201.198000", "181201.201000", "181201.204000", "181201.207000", "181241.084000", "181241.087000", "181241.090000", "181241.093000", "181241.096000", "181241.099000", "181241.103000", "181241.106000", "181241.108000", "181241.112000", "181241.115000", "181241.118000", "181241.121000", "181241.124000", "181241.127000", "181241.130000", "181241.133000", "181241.136000", "181241.139000", "181241.142000", "181241.145000", "181241.148000", "181241.151000", "181241.154000", "181241.157000", "181241.160000", "181241.163000", "181321.084000", "181321.087000", "181321.090000", "181321.093000", "181321.096000", "181321.113000", "181321.116000", "181321.119000", "181321.122000", "181321.125000", "181321.128000", "181321.131000", "181321.134000", "181321.137000", "181321.140000", "181321.143000", "181321.146000", "181321.149000", "181321.152000", "181321.155000", "181321.159000", "181321.162000", "181321.165000", "181321.168000", "181321.171000", "181321.174000", "181321.177000", "181401.083000", "181401.086000", "181401.089000", "181401.092000", "181401.096000", "181401.099000", "181401.102000", "181401.105000", "181401.112000", "181401.115000", "181401.118000", "181401.121000", "181401.124000", "181401.127000", "181401.130000", "181401.133000", "181401.136000", "181401.139000", "181401.142000", "181401.145000", "181401.148000", "181401.151000", "181401.154000", "181401.157000", "181401.160000", "181401.163000", "181401.166000", "181441.084000", "181441.087000", "181441.090000", "181441.093000", "181441.097000", "181441.100000", "181441.103000", "181441.106000", "181441.109000", "181441.112000", "181441.115000", "181441.118000", "181441.121000", "181441.125000", "181441.129000", "181441.132000", "181441.135000", "181441.138000", "181441.142000", "181441.146000", "181441.149000", "181441.152000", "181441.155000", "181441.158000", "181441.161000", "181441.164000", "181521.084000", "181521.087000", "181521.090000", "181521.093000", "181521.096000", "181521.100000", "181521.103000", "181521.106000", "181521.109000", "181521.112000", "181521.115000", "181521.118000", "181521.121000", "181521.124000", "181521.127000", "181521.130000", "181521.133000", "181521.136000", "181521.139000", "181521.142000", "181521.145000", "181521.148000", "181521.151000", "181521.154000", "181521.157000", "181521.161000", "181521.164000", "181601.084000", "181601.087000", "181601.090000", "181601.093000", "181601.097000", "181601.100000", "181601.103000", "181601.106000", "181601.109000", "181601.112000", "181601.115000", "181601.118000", "181601.121000", "181601.124000", "181601.127000", "181601.130000", "181601.133000", "181601.136000", "181601.139000", "181601.142000", "181601.145000", "181601.148000", "181601.151000", "181601.154000", "181601.158000", "181601.161000", "181601.164000", "181641.083000", "181641.086000", "181641.089000", "181641.092000", "181641.095000", "181641.098000", "181641.101000", "181641.105000", "181641.108000", "181641.111000", "181641.114000", "181641.117000", "181641.120000", "181641.123000", "181641.126000", "181641.129000", "181641.132000", "181641.135000", "181641.138000", "181641.141000", "181641.144000", "181641.147000", "181641.150000", "181641.153000", "181641.156000", "181641.159000", "181641.162000", "181721.084000", "181721.087000", "181721.090000", "181721.093000", "181721.096000", "181721.099000", "181721.103000", "181721.106000", "181721.109000", "181721.112000", "181721.115000", "181721.118000", "181721.121000", "181721.124000", "181721.127000", "181721.130000", "181721.133000", "181721.136000", "181721.139000", "181721.142000", "181721.145000", "181721.148000", "181721.152000", "181721.155000", "181721.158000", "181721.161000", "181721.164000", "181801.084000", "181801.087000", "181801.090000", "181801.093000", "181801.096000", "181801.100000", "181801.114000", "181801.116000", "181801.119000", "181801.123000", "181801.126000", "181801.129000", "181801.132000", "181801.135000", "181801.138000", "181801.141000", "181801.144000", "181801.147000", "181801.150000", "181801.153000", "181801.156000", "181801.160000", "181801.162000", "181801.165000", "181801.168000", "181801.172000", "181801.175000", "181841.083000", "181841.086000", "181841.089000", "181841.092000", "181841.103000", "181841.106000", "181841.109000", "181841.112000", "181841.115000", "181841.118000", "181841.122000", "181841.125000", "181841.128000", "181841.131000", "181841.134000", "181841.137000", "181841.140000", "181841.143000", "181841.146000", "181841.149000", "181841.152000", "181841.155000", "181841.158000", "181841.161000", "181841.164000", "181841.167000", "181841.170000", "181850.026000", "181850.030000", "181850.033000", "181850.036000", "181850.039000", "181850.042000"],
