{
  "AcquisitionMatrixPE": 104,
  "AcquisitionNumber": 1,
  "AcquisitionTime": "17:20:6.197500",
  "BandwidthPerPixelPhaseEncode": 17.17,
  "BaseResolution": 104,
  "BodyPartExamined": "BRAIN",
  "CoilString": "HC1-7;NC1_2",
  "ConsistencyInfo": "N4_VE11C_LATEST_20160120",
  "ConversionSoftware": "dcm2niix",
  "ConversionSoftwareVersion": "v1.0.20190902",
  "DerivedVendorReportedEchoSpacing": 0.000560011,
  "DeviceSerialNumber": "167006",
  "DwellTime": 2.1e-06,
  "EchoTime": 0.037,
  "EchoTrainLength": 104,
  "EffectiveEchoSpacing": 0.000560011,
  "FlipAngle": 52,
  "ImageComments": "Unaliased_MB4_PE3_LB",
  "ImageOrientationPatientDICOM": [0.999037, -0.04029, -0.0173654, 0.0310469, 0.9289, -0.369028],
  "ImageType": [
    "ORIGINAL",
    "PRIMARY",
    "M",
    "MB",
    "ND",
    "MOSAIC"
],
  "ImagingFrequency": 123.259,
  "InPlanePhaseEncodingDirectionDICOM": "COL",
  "InstitutionAddress": "Chemin_Queen-Mary_4565_Montreal_District_CA_H3W_1W5",
  "InstitutionName": "IUGM",
  "InstitutionalDepartmentName": "Department",
  "MRAcquisitionType": "2D",
  "MagneticFieldStrength": 3,
  "Manufacturer": "Siemens",
  "ManufacturersModelName": "Prisma_fit",
  "Modality": "MR",
  "MultibandAccelerationFactor": 4,
  "PartialFourier": 1,
  "PatientPosition": "HFS",
  "PercentPhaseFOV": 100,
  "PhaseEncodingDirection": "j",
  "PhaseEncodingSteps": 104,
  "PhaseResolution": 1,
  "PixelBandwidth": 2290,
  "ProcedureStepDescription": "video_friends",
  "ProtocolName": "func_task-friends-s02e21a",
  "PulseSequenceDetails": "%CustomerSeq%_cmrr_mbep2d_bold",
  "ReceiveCoilActiveElements": "HC1-7;NC1,2",
  "ReceiveCoilName": "HeadNeck_64",
  "ReconMatrixPE": 104,
  "RepetitionTime": 1.49,
  "SAR": 0.0347623,
  "ScanOptions": "FS",
  "ScanningSequence": "EP",
  "SequenceName": "epfid2d1_104",
  "SequenceVariant": "SK_SS",
  "SeriesDescription": "func_task-friends-s02e21a",
  "SeriesNumber": 9,
  "ShimSetting": [617, -7290, -8813, 445, 21, -434, 36, 27],
  "SliceThickness": 2,
  "SliceTiming": [0, 0.785, 0.0975, 0.8825, 0.195, 0.98, 0.295, 1.0775, 0.3925, 1.175, 0.49, 1.275, 0.5875, 1.3725, 0.685, 0, 0.785, 0.0975, 0.8825, 0.195, 0.98, 0.295, 1.0775, 0.3925, 1.175, 0.49, 1.275, 0.5875, 1.3725, 0.685, 0, 0.785, 0.0975, 0.8825, 0.195, 0.98, 0.295, 1.0775, 0.3925, 1.175, 0.49, 1.275, 0.5875, 1.3725, 0.685, 0, 0.785, 0.0975, 0.8825, 0.195, 0.98, 0.295, 1.0775, 0.3925, 1.175, 0.49, 1.275, 0.5875, 1.3725, 0.685],
  "SoftwareVersions": "syngo_MR_E11",
  "SpacingBetweenSlices": 2,
  "StationName": "MRC35049",
  "TaskName": "s02e21a",
  "TotalReadoutTime": 0.0576811,
  "TxRefAmp": 234.798,
  "WipMemBlock": "6cd1430b-3d7d-49c0-8264-05f580652661||Sequence: R016 ve11c/master r/e634e98; Dec 19 2017 11:00:25 by eja",
  "dcmmeta_affine": [
    [-1.9980742931365967, 0.06209387257695198, -0.06199764087796211, 97.84911346435547],
    [0.0805799588561058, 1.8577994108200073, -0.7362664937973022, -73.60453796386719],
    [-0.03473076969385147, 0.738055408000946, 1.858512282371521, -60.104393005371094],
    [0.0, 0.0, 0.0, 1.0]
],
  "dcmmeta_reorient_transform": [
    [0.0, -1.0, 0.0, 103.0],
    [1.0, 0.0, 0.0, 0.0],
    [0.0, 0.0, 1.0, 0.0],
    [0.0, 0.0, 0.0, 1.0]
],
  "dcmmeta_shape": [104, 104, 60, 470],
  "dcmmeta_slice_dim": 2,
  "dcmmeta_version": 0.6,
  "global": {
    "const": {
      "AcquisitionMatrix": [104, 0, 0, 104],
      "AngioFlag": "N",
      "BitsAllocated": 16,
      "BitsStored": 16,
      "BodyPartExamined": "BRAIN",
      "Columns": 832,
      "EchoNumbers": 1,
      "EchoTime": 37.0,
      "EchoTrainLength": 104,
      "FlipAngle": 52.0,
      "HighBit": 15,
      "ImageOrientationPatient": [0.99903711689711, -0.0402899799938, -0.017365384361, 0.03104693664135, 0.9288996928148, -0.3690277068375],
      "ImagePositionPatient": [-854.14596967436, -764.65667034931, 297.20948438753],
      "ImageType": [
        "ORIGINAL",
        "PRIMARY",
        "M",
        "MB",
        "ND",
        "MOSAIC"
],
      "ImagedNucleus": "1H",
      "ImagingFrequency": 123.258794,
      "InPlanePhaseEncodingDirection": "COL",
      "MRAcquisitionType": "2D",
      "MagneticFieldStrength": 3.0,
      "Manufacturer": "SIEMENS",
      "ManufacturerModelName": "Prisma_fit",
      "Modality": "MR",
      "NumberOfAverages": 1.0,
      "NumberOfPhaseEncodingSteps": 104,
      "PercentPhaseFieldOfView": 100.0,
      "PercentSampling": 100.0,
      "PerformedProcedureStepStartTime": "170828.711000",
      "PhotometricInterpretation": "MONOCHROME2",
      "PixelBandwidth": 2290.0,
      "PixelRepresentation": 0,
      "PixelSpacing": [2.0, 2.0],
      "ProtocolName": "func_task-friends-s02e21a",
      "RepetitionTime": 1490.0,
      "Rows": 832,
      "SAR": 0.0347622819713,
      "SamplesPerPixel": 1,
      "ScanOptions": "FS",
      "ScanningSequence": "EP",
      "SequenceName": "epfid2d1_104",
      "SequenceVariant": [
        "SK",
        "SS"
],
      "SeriesDescription": "func_task-friends-s02e21a",
      "SeriesNumber": 9,
      "SeriesTime": "172123.769000",
      "SliceLocation": -31.789307971869,
      "SliceThickness": 2.0,
      "SmallestImagePixelValue": 0,
      "SoftwareVersions": "syngo MR E11",
      "SpacingBetweenSlices": 2.0000000276092,
      "SpecificCharacterSet": "ISO_IR 100",
      "StudyID": "1",
      "StudyTime": "170828.624000",
      "TransmitCoilName": "Body",
      "VariableFlipAngleFlag": "N",
      "WindowCenterWidthExplanation": "Algo1",
      "dBdt": 0.0},
    "slices": {}
  },
  "time": {
    "samples": {
      "AcquisitionNumber": [1, 2, 3, 4, 5, 6, 7, 8, 9, 10, 11, 12, 13, 14, 15, 16, 17, 18, 19, 20, 21, 22, 23, 24, 25, 26, 27, 28, 29, 30, 31, 32, 33, 34, 35, 36, 37, 38, 39, 40, 41, 42, 43, 44, 45, 46, 47, 48, 49, 50, 51, 52, 53, 54, 55, 56, 57, 58, 59, 60, 61, 62, 63, 64, 65, 66, 67, 68, 69, 70, 71, 72, 73, 74, 75, 76, 77, 78, 79, 80, 81, 82, 83, 84, 85, 86, 87, 88, 89, 90, 91, 92, 93, 94, 95, 96, 97, 98, 99, 100, 101, 102, 103, 104, 105, 106, 107, 108, 109, 110, 111, 112, 113, 114, 115, 116, 117, 118, 119, 120, 121, 122, 123, 124, 125, 126, 127, 128, 129, 130, 131, 132, 133, 134, 135, 136, 137, 138, 139, 140, 141, 142, 143, 144, 145, 146, 147, 148, 149, 150, 151, 152, 153, 154, 155, 156, 157, 158, 159, 160, 161, 162, 163, 164, 165, 166, 167, 168, 169, 170, 171, 172, 173, 174, 175, 176, 177, 178, 179, 180, 181, 182, 183, 184, 185, 186, 187, 188, 189, 190, 191, 192, 193, 194, 195, 196, 197, 198, 199, 200, 201, 202, 203, 204, 205, 206, 207, 208, 209, 210, 211, 212, 213, 214, 215, 216, 217, 218, 219, 220, 221, 222, 223, 224, 225, 226, 227, 228, 229, 230, 231, 232, 233, 234, 235, 236, 237, 238, 239, 240, 241, 242, 243, 244, 245, 246, 247, 248, 249, 250, 251, 252, 253, 254, 255, 256, 257, 258, 259, 260, 261, 262, 263, 264, 265, 266, 267, 268, 269, 270, 271, 272, 273, 274, 275, 276, 277, 278, 279, 280, 281, 282, 283, 284, 285, 286, 287, 288, 289, 290, 291, 292, 293, 294, 295, 296, 297, 298, 299, 300, 301, 302, 303, 304, 305, 306, 307, 308, 309, 310, 311, 312, 313, 314, 315, 316, 317, 318, 319, 320, 321, 322, 323, 324, 325, 326, 327, 328, 329, 330, 331, 332, 333, 334, 335, 336, 337, 338, 339, 340, 341, 342, 343, 344, 345, 346, 347, 348, 349, 350, 351, 352, 353, 354, 355, 356, 357, 358, 359, 360, 361, 362, 363, 364, 365, 366, 367, 368, 369, 370, 371, 372, 373, 374, 375, 376, 377, 378, 379, 380, 381, 382, 383, 384, 385, 386, 387, 388, 389, 390, 391, 392, 393, 394, 395, 396, 397, 398, 399, 400, 401, 402, 403, 404, 405, 406, 407, 408, 409, 410, 411, 412, 413, 414, 415, 416, 417, 418, 419, 420, 421, 422, 423, 424, 425, 426, 427, 428, 429, 430, 431, 432, 433, 434, 435, 436, 437, 438, 439, 440, 441, 442, 443, 444, 445, 446, 447, 448, 449, 450, 451, 452, 453, 454, 455, 456, 457, 458, 459, 460, 461, 462, 463, 464, 465, 466, 467, 468, 469, 470],
      "AcquisitionTime": ["172006.197500", "172007.687500", "172009.177500", "172010.667500", "172012.157500", "172013.647500", "172015.137500", "172016.627500", "172018.117500", "172019.607500", "172021.097500", "172022.587500", "172024.077500", "172025.567500", "172027.057500", "172028.547500", "172030.037500", "172031.527500", "172033.017500", "172034.507500", "172035.997500", "172037.487500", "172038.977500", "172040.467500", "172041.957500", "172043.447500", "172044.937500", "172046.427500", "172047.917500", "172049.407500", "172050.897500", "172052.387500", "172053.877500", "172055.367500", "172056.857500", "172058.347500", "172059.837500", "172101.327500", "172102.817500", "172104.307500", "172105.797500", "172107.287500", "172108.777500", "172110.267500", "172111.757500", "172113.247500", "172114.737500", "172116.227500", "172117.717500", "172119.207500", "172120.697500", "172122.187500", "172123.677500", "172125.167500", "172126.657500", "172128.147500", "172129.637500", "172131.127500", "172132.617500", "172134.107500", "172135.597500", "172137.087500", "172138.577500", "172140.067500", "172141.557500", "172143.047500", "172144.537500", "172146.027500", "172147.517500", "172149.007500", "172150.497500", "172151.987500", "172153.477500", "172154.967500", "172156.457500", "172157.947500", "172159.437500", "172200.927500", "172202.417500", "172203.907500", "172205.397500", "172206.887500", "172208.377500", "172209.867500", "172211.357500", "172212.847500", "172214.337500", "172215.827500", "172217.317500", "172218.807500", "172220.297500", "172221.787500", "172223.277500", "172224.767500", "172226.257500", "172227.747500", "172229.237500", "172230.727500", "172232.217500", "172233.707500", "172235.197500", "172236.687500", "172238.177500", "172239.667500", "172241.157500", "172242.647500", "172244.137500", "172245.627500", "172247.117500", "172248.607500", "172250.097500", "172251.587500", "172253.077500", "172254.567500", "172256.057500", "172257.547500", "172259.037500", "172300.527500", "172302.017500", "172303.507500", "172304.997500", "172306.487500", "172307.977500", "172309.467500", "172310.957500", "172312.447500", "172313.937500", "172315.427500", "172316.917500", "172318.407500", "172319.897500", "172321.387500", "172322.877500", "172324.367500", "172325.857500", "172327.347500", "172328.837500", "172330.327500", "172331.817500", "172333.307500", "172334.797500", "172336.287500", "172337.777500", "172339.267500", "172340.757500", "172342.247500", "172343.737500", "172345.227500", "172346.717500", "172348.207500", "172349.697500", "172351.187500", "172352.677500", "172354.167500", "172355.657500", "172357.147500", "172358.637500", "172400.127500", "172401.617500", "172403.107500", "172404.597500", "172406.087500", "172407.577500", "172409.067500", "172410.557500", "172412.047500", "172413.537500", "172415.027500", "172416.517500", "172418.007500", "172419.497500", "172420.987500", "172422.477500", "172423.967500", "172425.457500", "172426.947500", "172428.437500", "172429.927500", "172431.417500", "172432.907500", "172434.397500", "172435.887500", "172437.377500", "172438.867500", "172440.357500", "172441.847500", "172443.337500", "172444.827500", "172446.317500", "172447.807500", "172449.297500", "172450.787500", "172452.277500", "172453.767500", "172455.257500", "172456.747500", "172458.237500", "172459.727500", "172501.217500", "172502.707500", "172504.197500", "172505.687500", "172507.177500", "172508.667500", "172510.157500", "172511.647500", "172513.137500", "172514.627500", "172516.117500", "172517.607500", "172519.097500", "172520.587500", "172522.077500", "172523.567500", "172525.057500", "172526.547500", "172528.037500", "172529.527500", "172531.017500", "172532.507500", "172533.997500", "172535.487500", "172536.977500", "172538.467500", "172539.957500", "172541.447500", "172542.937500", "172544.427500", "172545.917500", "172547.407500", "172548.897500", "172550.387500", "172551.877500", "172553.367500", "172554.857500", "172556.347500", "172557.837500", "172559.327500", "172600.817500", "172602.307500", "172603.797500", "172605.287500", "172606.777500", "172608.267500", "172609.757500", "172611.247500", "172612.737500", "172614.227500", "172615.717500", "172617.207500", "172618.697500", "172620.187500", "172621.677500", "172623.167500", "172624.657500", "172626.147500", "172627.637500", "172629.127500", "172630.617500", "172632.107500", "172633.597500", "172635.087500", "172636.577500", "172638.067500", "172639.557500", "172641.047500", "172642.537500", "172644.027500", "172645.517500", "172647.007500", "172648.497500", "172649.987500", "172651.477500", "172652.967500", "172654.457500", "172655.947500", "172657.437500", "172658.927500", "172700.417500", "172701.907500", "172703.397500", "172704.887500", "172706.377500", "172707.867500", "172709.357500", "172710.847500", "172712.337500", "172713.827500", "172715.317500", "172716.807500", "172718.297500", "172719.787500", "172721.277500", "172722.767500", "172724.257500", "172725.747500", "172727.237500", "172728.727500", "172730.217500", "172731.707500", "172733.197500", "172734.687500", "172736.177500", "172737.667500", "172739.157500", "172740.647500", "172742.137500", "172743.627500", "172745.117500", "172746.607500", "172748.097500", "172749.587500", "172751.077500", "172752.567500", "172754.057500", "172755.547500", "172757.037500", "172758.527500", "172800.017500", "172801.507500", "172802.997500", "172804.487500", "172805.977500", "172807.467500", "172808.957500", "172810.447500", "172811.937500", "172813.427500", "172814.917500", "172816.407500", "172817.897500", "172819.387500", "172820.877500", "172822.367500", "172823.857500", "172825.347500", "172826.837500", "172828.327500", "172829.817500", "172831.307500", "172832.797500", "172834.287500", "172835.777500", "172837.267500", "172838.757500", "172840.247500", "172841.737500", "172843.227500", "172844.717500", "172846.207500", "172847.697500", "172849.187500", "172850.677500", "172852.167500", "172853.657500", "172855.147500", "172856.637500", "172858.127500", "172859.617500", "172901.107500", "172902.597500", "172904.087500", "172905.577500", "172907.067500", "172908.557500", "172910.047500", "172911.537500", "172913.027500", "172914.517500", "172916.007500", "172917.497500", "172918.987500", "172920.477500", "172921.967500", "172923.457500", "172924.947500", "172926.437500", "172927.927500", "172929.417500", "172930.907500", "172932.397500", "172933.887500", "172935.377500", "172936.867500", "172938.357500", "172939.847500", "172941.337500", "172942.827500", "172944.317500", "172945.807500", "172947.297500", "172948.787500", "172950.277500", "172951.767500", "172953.257500", "172954.747500", "172956.237500", "172957.727500", "172959.217500", "173000.707500", "173002.197500", "173003.687500", "173005.177500", "173006.667500", "173008.157500", "173009.647500", "173011.137500", "173012.627500", "173014.117500", "173015.607500", "173017.097500", "173018.587500", "173020.077500", "173021.567500", "173023.057500", "173024.547500", "173026.037500", "173027.527500", "173029.017500", "173030.507500", "173031.997500", "173033.487500", "173034.977500", "173036.467500", "173037.957500", "173039.447500", "173040.937500", "173042.427500", "173043.917500", "173045.407500", "173046.897500", "173048.387500", "173049.877500", "173051.367500", "173052.857500", "173054.347500", "173055.837500", "173057.327500", "173058.817500", "173100.307500", "173101.797500", "173103.287500", "173104.777500", "173106.267500", "173107.757500", "173109.247500", "173110.737500", "173112.227500", "173113.717500", "173115.207500", "173116.697500", "173118.187500", "173119.677500", "173121.167500", "173122.657500", "173124.147500", "173125.637500", "173127.127500", "173128.617500", "173130.107500", "173131.597500", "173133.087500", "173134.577500", "173136.067500", "173137.557500", "173139.047500", "173140.537500", "173142.027500", "173143.517500", "173145.007500"],
      "ContentTime": ["172123.772000", "172123.776000", "172123.779000", "172123.782000", "172123.785000", "172123.788000", "172123.791000", "172123.799000", "172123.805000", "172123.808000", "172123.817000", "172123.820000", "172123.823000", "172123.826000", "172123.829000", "172123.832000", "172123.835000", "172123.838000", "172123.841000", "172123.844000", "172123.847000", "172123.852000", "172123.855000", "172123.858000", "172143.725000", "172143.728000", "172143.731000", "172143.734000", "172143.737000", "172143.740000", "172143.743000", "172143.746000", "172143.749000", "172143.756000", "172143.759000", "172143.762000", "172143.765000", "172143.768000", "172143.771000", "172143.774000", "172143.777000", "172143.780000", "172143.783000", "172143.786000", "172143.789000", "172203.725000", "172203.728000", "172203.731000", "172203.734000", "172203.737000", "172203.740000", "172203.743000", "172203.746000", "172203.749000", "172203.752000", "172203.756000", "172203.758000", "172203.761000", "172203.764000", "172203.767000", "172203.770000", "172203.773000", "172203.776000", "172203.779000", "172203.787000", "172223.725000", "172223.728000", "172223.731000", "172223.734000", "172223.737000", "172223.740000", "172223.743000", "172223.746000", "172223.749000", "172223.752000", "172223.755000", "172223.758000", "172223.761000", "172223.764000", "172223.768000", "172223.771000", "172223.774000", "172223.777000", "172223.780000", "172223.783000", "172243.724000", "172243.727000", "172243.730000", "172243.733000", "172243.736000", "172243.739000", "172243.742000", "172243.746000", "172243.748000", "172243.751000", "172243.755000", "172243.758000", "172243.761000", "172243.764000", "172243.767000", "172243.770000", "172243.773000", "172243.776000", "172243.779000", "172243.782000", "172323.725000", "172323.728000", "172323.731000", "172323.734000", "172323.737000", "172323.740000", "172323.743000", "172323.746000", "172323.749000", "172323.752000", "172323.755000", "172323.758000", "172323.761000", "172323.764000", "172323.767000", "172323.770000", "172323.774000", "172323.777000", "172323.779000", "172323.782000", "172323.786000", "172323.789000", "172323.792000", "172323.794000", "172323.798000", "172323.801000", "172323.804000", "172403.725000", "172403.728000", "172403.731000", "172403.742000", "172403.745000", "172403.748000", "172403.751000", "172403.754000", "172403.757000", "172403.760000", "172403.763000", "172403.766000", "172403.769000", "172403.772000", "172403.775000", "172403.778000", "172403.781000", "172403.784000", "172403.787000", "172403.790000", "172403.793000", "172403.796000", "172403.799000", "172403.802000", "172403.805000", "172403.808000", "172403.811000", "172443.725000", "172443.728000", "172443.731000", "172443.734000", "172443.738000", "172443.740000", "172443.743000", "172443.746000", "172443.750000", "172443.753000", "172443.756000", "172443.758000", "172443.762000", "172443.765000", "172443.768000", "172443.772000", "172443.775000", "172443.778000", "172443.781000", "172443.784000", "172443.787000", "172443.790000", "172443.793000", "172443.796000", "172443.799000", "172443.802000", "172523.724000", "172523.727000", "172523.730000", "172523.733000", "172523.736000", "172523.739000", "172523.742000", "172523.745000", "172523.749000", "172523.752000", "172523.755000", "172523.758000", "172523.761000", "172523.764000", "172523.767000", "172523.777000", "172523.780000", "172523.783000", "172523.786000", "172523.789000", "172523.792000", "172523.795000", "172523.798000", "172523.801000", "172523.804000", "172523.807000", "172523.810000", "172603.725000", "172603.728000", "172603.731000", "172603.734000", "172603.737000", "172603.740000", "172603.743000", "172603.747000", "172603.749000", "172603.752000", "172603.755000", "172603.759000", "172603.762000", "172603.764000", "172603.767000", "172603.771000", "172603.774000", "172603.777000", "172603.780000", "172603.783000", "172603.786000", "172603.789000", "172603.792000", "172603.795000", "172603.798000", "172603.801000", "172603.804000", "172643.725000", "172643.728000", "172643.731000", "172643.734000", "172643.737000", "172643.740000", "172643.744000", "172643.747000", "172643.750000", "172643.753000", "172643.756000", "172643.759000", "172643.762000", "172643.765000", "172643.768000", "172643.771000", "172643.774000", "172643.777000", "172643.780000", "172643.783000", "172643.786000", "172643.789000", "172643.792000", "172643.795000", "172643.798000", "172643.801000", "172643.804000", "172723.724000", "172723.727000", "172723.730000", "172723.733000", "172723.736000", "172723.740000", "172723.743000", "172723.746000", "172723.749000", "172723.752000", "172723.755000", "172723.758000", "172723.761000", "172723.764000", "172723.767000", "172723.770000", "172723.773000", "172723.776000", "172723.779000", "172723.782000", "172723.785000", "172723.788000", "172723.791000", "172723.794000", "172723.797000", "172723.800000", "172723.803000", "172803.725000", "172803.728000", "172803.731000", "172803.734000", "172803.738000", "172803.741000", "172803.744000", "172803.747000", "172803.750000", "172803.753000", "172803.756000", "172803.759000", "172803.762000", "172803.765000", "172803.768000", "172803.771000", "172803.774000", "172803.777000", "172803.780000", "172803.783000", "172803.786000", "172803.789000", "172803.792000", "172803.795000", "172803.798000", "172803.801000", "172803.804000", "172843.725000", "172843.734000", "172843.737000", "172843.740000", "172843.743000", "172843.746000", "172843.749000", "172843.752000", "172843.755000", "172843.758000", "172843.761000", "172843.764000", "172843.767000", "172843.770000", "172843.773000", "172843.777000", "172843.780000", "172843.783000", "172843.786000", "172843.790000", "172843.793000", "172843.796000", "172843.799000", "172843.803000", "172843.806000", "172843.808000", "172923.725000", "172923.729000", "172923.732000", "172923.735000", "172923.738000", "172923.741000", "172923.744000", "172923.747000", "172923.750000", "172923.753000", "172923.756000", "172923.759000", "172923.762000", "172923.765000", "172923.768000", "172923.771000", "172923.774000", "172923.777000", "172923.780000", "172923.784000", "172923.787000", "172923.790000", "172923.793000", "172923.796000", "172923.799000", "172923.802000", "172923.805000", "173003.724000", "173003.727000", "173003.730000", "173003.733000", "173003.736000", "173003.740000", "173003.742000", "173003.745000", "173003.749000", "173003.752000", "173003.755000", "173003.758000", "173003.761000", "173003.764000", "173003.767000", "173003.782000", "173003.785000", "173003.788000", "173003.791000", "173003.794000", "173003.797000", "173003.800000", "173003.803000", "173003.806000", "173003.809000", "173003.812000", "173003.815000", "173043.725000", "173043.728000", "173043.731000", "173043.735000", "173043.738000", "173043.741000", "173043.744000", "173043.747000", "173043.750000", "173043.753000", "173043.756000", "173043.759000", "173043.762000", "173043.765000", "173043.768000", "173043.771000", "173043.774000", "173043.777000", "173043.780000", "173043.783000", "173043.786000", "173043.789000", "173043.792000", "173043.796000", "173043.799000", "173043.802000", "173043.805000", "173123.725000", "173123.728000", "173123.732000", "173123.735000", "173123.738000", "173123.741000", "173123.744000", "173123.747000", "173123.750000", "173123.753000", "173123.756000", "173123.759000", "173123.762000", "173123.765000", "173123.769000", "173123.772000", "173123.775000", "173123.778000", "173123.781000", "173123.784000", "173123.787000", "173123.790000", "173123.793000", "173123.796000", "173123.799000", "173123.802000", "173123.805000", "173147.104000", "173147.107000", "173147.110000", "173147.122000", "173147.125000", "173147.128000", "173147.132000", "173147.135000", "173147.138000", "173147.141000", "173147.144000", "173147.147000", "173147.151000", "173147.154000", "173147.157000", "173147.160000"],
