{
  "AcquisitionMatrixPE": 104,
  "AcquisitionNumber": 1,
  "AcquisitionTime": "18:31:13.867500",
  "BandwidthPerPixelPhaseEncode": 17.17,
  "BaseResolution": 104,
  "BodyPartExamined": "BRAIN",
  "CoilString": "HC1-7;NC1_2",
  "ConsistencyInfo": "N4_VE11C_LATEST_20160120",
  "ConversionSoftware": "dcm2niix",
  "ConversionSoftwareVersion": "v1.0.20190902",
  "DerivedVendorReportedEchoSpacing": 0.000560011,
  "DeviceSerialNumber": "167006",
  "DwellTime": 2.1e-06,
  "EchoTime": 0.037,
  "EchoTrainLength": 104,
  "EffectiveEchoSpacing": 0.000560011,
  "FlipAngle": 52,
  "ImageComments": "Unaliased_MB4_PE3_LB",
  "ImageOrientationPatientDICOM": [0.999037, -0.04029, -0.0173654, 0.0310469, 0.9289, -0.369028],
  "ImageType": [
    "ORIGINAL",
    "PRIMARY",
    "M",
    "MB",
    "ND",
    "MOSAIC"
],
  "ImagingFrequency": 123.259,
  "InPlanePhaseEncodingDirectionDICOM": "COL",
  "InstitutionAddress": "Chemin_Queen-Mary_4565_Montreal_District_CA_H3W_1W5",
  "InstitutionName": "IUGM",
  "InstitutionalDepartmentName": "Department",
  "MRAcquisitionType": "2D",
  "MagneticFieldStrength": 3,
  "Manufacturer": "Siemens",
  "ManufacturersModelName": "Prisma_fit",
  "Modality": "MR",
  "MultibandAccelerationFactor": 4,
  "PartialFourier": 1,
  "PatientPosition": "HFS",
  "PercentPhaseFOV": 100,
  "PhaseEncodingDirection": "j",
  "PhaseEncodingSteps": 104,
  "PhaseResolution": 1,
  "PixelBandwidth": 2290,
  "ProcedureStepDescription": "video_friends",
  "ProtocolName": "func_task-friends-s02e24a",
  "PulseSequenceDetails": "%CustomerSeq%_cmrr_mbep2d_bold",
  "ReceiveCoilActiveElements": "HC1-7;NC1,2",
  "ReceiveCoilName": "HeadNeck_64",
  "ReconMatrixPE": 104,
  "RepetitionTime": 1.49,
  "SAR": 0.034762,
  "ScanOptions": "FS",
  "ScanningSequence": "EP",
  "SequenceName": "epfid2d1_104",
  "SequenceVariant": "SK_SS",
  "SeriesDescription": "func_task-friends-s02e24a",
  "SeriesNumber": 21,
  "ShimSetting": [617, -7290, -8813, 445, 21, -434, 36, 27],
  "SliceThickness": 2,
  "SliceTiming": [0, 0.785, 0.0975, 0.8825, 0.195, 0.98, 0.295, 1.0775, 0.3925, 1.175, 0.49, 1.275, 0.5875, 1.3725, 0.685, 0, 0.785, 0.0975, 0.8825, 0.195, 0.98, 0.295, 1.0775, 0.3925, 1.175, 0.49, 1.275, 0.5875, 1.3725, 0.685, 0, 0.785, 0.0975, 0.8825, 0.195, 0.98, 0.295, 1.0775, 0.3925, 1.175, 0.49, 1.275, 0.5875, 1.3725, 0.685, 0, 0.785, 0.0975, 0.8825, 0.195, 0.98, 0.295, 1.0775, 0.3925, 1.175, 0.49, 1.275, 0.5875, 1.3725, 0.685],
  "SoftwareVersions": "syngo_MR_E11",
  "SpacingBetweenSlices": 2,
  "StationName": "MRC35049",
  "TaskName": "s02e24a",
  "TotalReadoutTime": 0.0576811,
  "TxRefAmp": 234.798,
  "WipMemBlock": "028552fb-ef17-46b2-9a9d-c9779f2b3be2||Sequence: R016 ve11c/master r/e634e98; Dec 19 2017 11:00:25 by eja",
  "dcmmeta_affine": [
    [-1.9980742931365967, 0.06209387257695198, -0.06199764087796211, 97.84911346435547],
    [0.0805799588561058, 1.8577994108200073, -0.7362664937973022, -73.60453796386719],
    [-0.03473076969385147, 0.738055408000946, 1.858512282371521, -60.104393005371094],
    [0.0, 0.0, 0.0, 1.0]
],
  "dcmmeta_reorient_transform": [
    [0.0, -1.0, 0.0, 103.0],
    [1.0, 0.0, 0.0, 0.0],
    [0.0, 0.0, 1.0, 0.0],
    [0.0, 0.0, 0.0, 1.0]
],
  "dcmmeta_shape": [104, 104, 60, 469],
  "dcmmeta_slice_dim": 2,
  "dcmmeta_version": 0.6,
  "global": {
    "const": {
      "AcquisitionMatrix": [104, 0, 0, 104],
      "AngioFlag": "N",
      "BitsAllocated": 16,
      "BitsStored": 16,
      "BodyPartExamined": "BRAIN",
      "Columns": 832,
      "EchoNumbers": 1,
      "EchoTime": 37.0,
      "EchoTrainLength": 104,
      "FlipAngle": 52.0,
      "HighBit": 15,
      "ImageOrientationPatient": [0.99903711689711, -0.0402899799938, -0.017365384361, 0.03104693664135, 0.9288996928148, -0.3690277068375],
      "ImagePositionPatient": [-854.14596967436, -764.65667034931, 297.20948438753],
      "ImageType": [
        "ORIGINAL",
        "PRIMARY",
        "M",
        "MB",
        "ND",
        "MOSAIC"
],
      "ImagedNucleus": "1H",
      "ImagingFrequency": 123.258814,
      "InPlanePhaseEncodingDirection": "COL",
      "MRAcquisitionType": "2D",
      "MagneticFieldStrength": 3.0,
      "Manufacturer": "SIEMENS",
      "ManufacturerModelName": "Prisma_fit",
      "Modality": "MR",
      "NumberOfAverages": 1.0,
      "NumberOfPhaseEncodingSteps": 104,
      "PercentPhaseFieldOfView": 100.0,
      "PercentSampling": 100.0,
      "PerformedProcedureStepStartTime": "170828.711000",
      "PhotometricInterpretation": "MONOCHROME2",
      "PixelBandwidth": 2290.0,
      "PixelRepresentation": 0,
      "PixelSpacing": [2.0, 2.0],
      "ProtocolName": "func_task-friends-s02e24a",
      "RepetitionTime": 1490.0,
      "Rows": 832,
      "SAR": 0.03476196824519,
      "SamplesPerPixel": 1,
      "ScanOptions": "FS",
      "ScanningSequence": "EP",
      "SequenceName": "epfid2d1_104",
      "SequenceVariant": [
        "SK",
        "SS"
],
      "SeriesDescription": "func_task-friends-s02e24a",
      "SeriesNumber": 21,
      "SeriesTime": "183243.755000",
      "SliceLocation": -31.789307971869,
      "SliceThickness": 2.0,
      "SmallestImagePixelValue": 0,
      "SoftwareVersions": "syngo MR E11",
      "SpacingBetweenSlices": 2.0000000276092,
      "SpecificCharacterSet": "ISO_IR 100",
      "StudyID": "1",
      "StudyTime": "170828.624000",
      "TransmitCoilName": "Body",
      "VariableFlipAngleFlag": "N",
      "WindowCenterWidthExplanation": "Algo1",
      "dBdt": 0.0},
    "slices": {}
  },
  "time": {
    "samples": {
      "AcquisitionNumber": [1, 2, 3, 4, 5, 6, 7, 8, 9, 10, 11, 12, 13, 14, 15, 16, 17, 18, 19, 20, 21, 22, 23, 24, 25, 26, 27, 28, 29, 30, 31, 32, 33, 34, 35, 36, 37, 38, 39, 40, 41, 42, 43, 44, 45, 46, 47, 48, 49, 50, 51, 52, 53, 54, 55, 56, 57, 58, 59, 60, 61, 62, 63, 64, 65, 66, 67, 68, 69, 70, 71, 72, 73, 74, 75, 76, 77, 78, 79, 80, 81, 82, 83, 84, 85, 86, 87, 88, 89, 90, 91, 92, 93, 94, 95, 96, 97, 98, 99, 100, 101, 102, 103, 104, 105, 106, 107, 108, 109, 110, 111, 112, 113, 114, 115, 116, 117, 118, 119, 120, 121, 122, 123, 124, 125, 126, 127, 128, 129, 130, 131, 132, 133, 134, 135, 136, 137, 138, 139, 140, 141, 142, 143, 144, 145, 146, 147, 148, 149, 150, 151, 152, 153, 154, 155, 156, 157, 158, 159, 160, 161, 162, 163, 164, 165, 166, 167, 168, 169, 170, 171, 172, 173, 174, 175, 176, 177, 178, 179, 180, 181, 182, 183, 184, 185, 186, 187, 188, 189, 190, 191, 192, 193, 194, 195, 196, 197, 198, 199, 200, 201, 202, 203, 204, 205, 206, 207, 208, 209, 210, 211, 212, 213, 214, 215, 216, 217, 218, 219, 220, 221, 222, 223, 224, 225, 226, 227, 228, 229, 230, 231, 232, 233, 234, 235, 236, 237, 238, 239, 240, 241, 242, 243, 244, 245, 246, 247, 248, 249, 250, 251, 252, 253, 254, 255, 256, 257, 258, 259, 260, 261, 262, 263, 264, 265, 266, 267, 268, 269, 270, 271, 272, 273, 274, 275, 276, 277, 278, 279, 280, 281, 282, 283, 284, 285, 286, 287, 288, 289, 290, 291, 292, 293, 294, 295, 296, 297, 298, 299, 300, 301, 302, 303, 304, 305, 306, 307, 308, 309, 310, 311, 312, 313, 314, 315, 316, 317, 318, 319, 320, 321, 322, 323, 324, 325, 326, 327, 328, 329, 330, 331, 332, 333, 334, 335, 336, 337, 338, 339, 340, 341, 342, 343, 344, 345, 346, 347, 348, 349, 350, 351, 352, 353, 354, 355, 356, 357, 358, 359, 360, 361, 362, 363, 364, 365, 366, 367, 368, 369, 370, 371, 372, 373, 374, 375, 376, 377, 378, 379, 380, 381, 382, 383, 384, 385, 386, 387, 388, 389, 390, 391, 392, 393, 394, 395, 396, 397, 398, 399, 400, 401, 402, 403, 404, 405, 406, 407, 408, 409, 410, 411, 412, 413, 414, 415, 416, 417, 418, 419, 420, 421, 422, 423, 424, 425, 426, 427, 428, 429, 430, 431, 432, 433, 434, 435, 436, 437, 438, 439, 440, 441, 442, 443, 444, 445, 446, 447, 448, 449, 450, 451, 452, 453, 454, 455, 456, 457, 458, 459, 460, 461, 462, 463, 464, 465, 466, 467, 468, 469],
      "AcquisitionTime": ["183113.867500", "183115.357500", "183116.847500", "183118.337500", "183119.827500", "183121.317500", "183122.807500", "183124.297500", "183125.787500", "183127.277500", "183128.767500", "183130.257500", "183131.747500", "183133.237500", "183134.727500", "183136.217500", "183137.707500", "183139.197500", "183140.687500", "183142.177500", "183143.667500", "183145.157500", "183146.647500", "183148.137500", "183149.627500", "183151.117500", "183152.607500", "183154.097500", "183155.587500", "183157.077500", "183158.567500", "183200.057500", "183201.547500", "183203.037500", "183204.527500", "183206.017500", "183207.507500", "183208.997500", "183210.487500", "183211.977500", "183213.467500", "183214.957500", "183216.447500", "183217.937500", "183219.427500", "183220.917500", "183222.407500", "183223.897500", "183225.387500", "183226.877500", "183228.367500", "183229.857500", "183231.347500", "183232.837500", "183234.327500", "183235.817500", "183237.307500", "183238.797500", "183240.287500", "183241.777500", "183243.267500", "183244.757500", "183246.247500", "183247.737500", "183249.227500", "183250.717500", "183252.207500", "183253.697500", "183255.187500", "183256.677500", "183258.167500", "183259.657500", "183301.147500", "183302.637500", "183304.127500", "183305.617500", "183307.107500", "183308.597500", "183310.087500", "183311.577500", "183313.067500", "183314.557500", "183316.047500", "183317.537500", "183319.027500", "183320.517500", "183322.007500", "183323.497500", "183324.987500", "183326.477500", "183327.967500", "183329.457500", "183330.947500", "183332.437500", "183333.927500", "183335.417500", "183336.907500", "183338.397500", "183339.887500", "183341.377500", "183342.867500", "183344.357500", "183345.847500", "183347.337500", "183348.827500", "183350.317500", "183351.807500", "183353.297500", "183354.787500", "183356.277500", "183357.767500", "183359.257500", "183400.747500", "183402.237500", "183403.727500", "183405.217500", "183406.707500", "183408.197500", "183409.687500", "183411.177500", "183412.667500", "183414.157500", "183415.647500", "183417.137500", "183418.627500", "183420.117500", "183421.607500", "183423.097500", "183424.587500", "183426.077500", "183427.567500", "183429.057500", "183430.547500", "183432.037500", "183433.527500", "183435.017500", "183436.507500", "183437.997500", "183439.487500", "183440.977500", "183442.467500", "183443.957500", "183445.447500", "183446.937500", "183448.427500", "183449.917500", "183451.407500", "183452.897500", "183454.387500", "183455.877500", "183457.367500", "183458.857500", "183500.347500", "183501.837500", "183503.327500", "183504.817500", "183506.307500", "183507.797500", "183509.287500", "183510.777500", "183512.267500", "183513.757500", "183515.247500", "183516.737500", "183518.227500", "183519.717500", "183521.207500", "183522.697500", "183524.187500", "183525.677500", "183527.167500", "183528.657500", "183530.147500", "183531.637500", "183533.127500", "183534.617500", "183536.107500", "183537.597500", "183539.087500", "183540.577500", "183542.067500", "183543.557500", "183545.047500", "183546.537500", "183548.027500", "183549.517500", "183551.007500", "183552.497500", "183553.987500", "183555.477500", "183556.967500", "183558.457500", "183559.947500", "183601.437500", "183602.927500", "183604.417500", "183605.907500", "183607.397500", "183608.887500", "183610.377500", "183611.867500", "183613.357500", "183614.847500", "183616.337500", "183617.827500", "183619.317500", "183620.807500", "183622.297500", "183623.787500", "183625.277500", "183626.767500", "183628.257500", "183629.747500", "183631.237500", "183632.727500", "183634.217500", "183635.707500", "183637.197500", "183638.687500", "183640.177500", "183641.667500", "183643.157500", "183644.647500", "183646.137500", "183647.627500", "183649.117500", "183650.607500", "183652.097500", "183653.587500", "183655.077500", "183656.567500", "183658.057500", "183659.547500", "183701.037500", "183702.527500", "183704.017500", "183705.507500", "183706.997500", "183708.487500", "183709.977500", "183711.467500", "183712.957500", "183714.447500", "183715.937500", "183717.427500", "183718.917500", "183720.407500", "183721.897500", "183723.387500", "183724.877500", "183726.367500", "183727.857500", "183729.347500", "183730.837500", "183732.327500", "183733.817500", "183735.307500", "183736.797500", "183738.287500", "183739.777500", "183741.267500", "183742.757500", "183744.247500", "183745.737500", "183747.227500", "183748.717500", "183750.207500", "183751.697500", "183753.187500", "183754.677500", "183756.167500", "183757.657500", "183759.147500", "183800.637500", "183802.127500", "183803.617500", "183805.107500", "183806.597500", "183808.087500", "183809.577500", "183811.067500", "183812.557500", "183814.047500", "183815.537500", "183817.027500", "183818.517500", "183820.007500", "183821.497500", "183822.987500", "183824.477500", "183825.967500", "183827.457500", "183828.947500", "183830.437500", "183831.927500", "183833.417500", "183834.907500", "183836.397500", "183837.887500", "183839.377500", "183840.867500", "183842.357500", "183843.847500", "183845.337500", "183846.827500", "183848.317500", "183849.807500", "183851.297500", "183852.787500", "183854.277500", "183855.767500", "183857.257500", "183858.747500", "183900.237500", "183901.727500", "183903.217500", "183904.707500", "183906.197500", "183907.687500", "183909.177500", "183910.667500", "183912.157500", "183913.647500", "183915.137500", "183916.627500", "183918.117500", "183919.607500", "183921.097500", "183922.587500", "183924.077500", "183925.567500", "183927.057500", "183928.547500", "183930.037500", "183931.527500", "183933.017500", "183934.507500", "183935.997500", "183937.487500", "183938.977500", "183940.467500", "183941.957500", "183943.447500", "183944.937500", "183946.427500", "183947.917500", "183949.407500", "183950.897500", "183952.387500", "183953.877500", "183955.367500", "183956.857500", "183958.347500", "183959.837500", "184001.327500", "184002.817500", "184004.307500", "184005.797500", "184007.287500", "184008.777500", "184010.267500", "184011.757500", "184013.247500", "184014.737500", "184016.227500", "184017.717500", "184019.207500", "184020.697500", "184022.187500", "184023.677500", "184025.167500", "184026.657500", "184028.147500", "184029.637500", "184031.127500", "184032.617500", "184034.107500", "184035.597500", "184037.087500", "184038.577500", "184040.067500", "184041.557500", "184043.047500", "184044.537500", "184046.027500", "184047.517500", "184049.007500", "184050.497500", "184051.987500", "184053.477500", "184054.967500", "184056.457500", "184057.947500", "184059.437500", "184100.927500", "184102.417500", "184103.907500", "184105.397500", "184106.887500", "184108.377500", "184109.867500", "184111.357500", "184112.847500", "184114.337500", "184115.827500", "184117.317500", "184118.807500", "184120.297500", "184121.787500", "184123.277500", "184124.767500", "184126.257500", "184127.747500", "184129.237500", "184130.727500", "184132.217500", "184133.707500", "184135.197500", "184136.687500", "184138.177500", "184139.667500", "184141.157500", "184142.647500", "184144.137500", "184145.627500", "184147.117500", "184148.607500", "184150.097500", "184151.587500", "184153.077500", "184154.567500", "184156.057500", "184157.547500", "184159.037500", "184200.527500", "184202.017500", "184203.507500", "184204.997500", "184206.487500", "184207.977500", "184209.467500", "184210.957500", "184212.447500", "184213.937500", "184215.427500", "184216.917500", "184218.407500", "184219.897500", "184221.387500", "184222.877500", "184224.367500", "184225.857500", "184227.347500", "184228.837500", "184230.327500", "184231.817500", "184233.307500", "184234.797500", "184236.287500", "184237.777500", "184239.267500", "184240.757500", "184242.247500", "184243.737500", "184245.227500", "184246.717500", "184248.207500", "184249.697500", "184251.187500"],
      "ContentTime": ["183243.757000", "183243.761000", "183243.764000", "183243.767000", "183243.770000", "183243.773000", "183243.777000", "183243.780000", "183243.793000", "183243.796000", "183243.799000", "183243.802000", "183243.814000", "183243.817000", "183243.820000", "183243.823000", "183243.826000", "183243.829000", "183243.833000", "183243.836000", "183243.838000", "183243.842000", "183243.845000", "183243.848000", "183243.851000", "183243.854000", "183243.857000", "183243.860000", "183243.863000", "183243.866000", "183243.869000", "183243.872000", "183243.875000", "183243.878000", "183243.881000", "183243.884000", "183243.893000", "183303.725000", "183303.728000", "183303.731000", "183303.734000", "183303.737000", "183303.740000", "183303.743000", "183303.746000", "183303.749000", "183303.752000", "183303.755000", "183303.758000", "183303.761000", "183303.764000", "183303.767000", "183303.770000", "183303.774000", "183303.776000", "183303.779000", "183303.782000", "183323.725000", "183323.728000", "183323.731000", "183323.734000", "183323.737000", "183323.740000", "183323.743000", "183323.746000", "183323.749000", "183323.752000", "183323.755000", "183323.758000", "183323.762000", "183323.764000", "183323.767000", "183323.770000", "183323.774000", "183323.777000", "183323.780000", "183323.783000", "183343.725000", "183343.728000", "183343.731000", "183343.734000", "183343.737000", "183343.740000", "183343.743000", "183343.746000", "183343.749000", "183343.752000", "183343.756000", "183343.759000", "183343.761000", "183343.764000", "183343.768000", "183343.771000", "183343.774000", "183343.777000", "183343.780000", "183343.783000", "183343.786000", "183423.725000", "183423.728000", "183423.731000", "183423.734000", "183423.737000", "183423.741000", "183423.744000", "183423.747000", "183423.750000", "183423.754000", "183423.757000", "183423.761000", "183423.764000", "183423.767000", "183423.770000", "183423.773000", "183423.776000", "183423.779000", "183423.782000", "183423.785000", "183423.788000", "183423.791000", "183423.794000", "183423.797000", "183423.800000", "183423.803000", "183423.806000", "183423.809000", "183503.724000", "183503.727000", "183503.730000", "183503.734000", "183503.737000", "183503.740000", "183503.743000", "183503.746000", "183503.749000", "183503.752000", "183503.755000", "183503.758000", "183503.761000", "183503.764000", "183503.767000", "183503.770000", "183503.773000", "183503.776000", "183503.779000", "183503.782000", "183503.785000", "183503.788000", "183503.791000", "183503.794000", "183503.797000", "183503.800000", "183503.803000", "183543.725000", "183543.733000", "183543.736000", "183543.739000", "183543.742000", "183543.745000", "183543.748000", "183543.751000", "183543.754000", "183543.757000", "183543.760000", "183543.763000", "183543.766000", "183543.769000", "183543.772000", "183543.775000", "183543.778000", "183543.781000", "183543.784000", "183543.787000", "183543.790000", "183543.793000", "183543.796000", "183543.799000", "183543.802000", "183543.805000", "183543.809000", "183603.725000", "183603.728000", "183603.731000", "183603.734000", "183603.737000", "183603.740000", "183603.743000", "183603.747000", "183603.750000", "183603.753000", "183603.756000", "183603.759000", "183603.762000", "183603.765000", "183643.725000", "183643.728000", "183643.731000", "183643.734000", "183643.737000", "183643.741000", "183643.744000", "183643.747000", "183643.750000", "183643.753000", "183643.756000", "183643.759000", "183643.762000", "183643.765000", "183643.768000", "183643.771000", "183643.774000", "183643.777000", "183643.788000", "183643.798000", "183643.802000", "183643.805000", "183643.808000", "183643.811000", "183643.814000", "183643.817000", "183723.724000", "183723.728000", "183723.731000", "183723.734000", "183723.737000", "183723.740000", "183723.743000", "183723.746000", "183723.749000", "183723.752000", "183723.755000", "183723.758000", "183723.761000", "183723.764000", "183723.767000", "183723.770000", "183723.773000", "183723.776000", "183723.779000", "183723.782000", "183723.785000", "183723.789000", "183723.791000", "183723.794000", "183723.797000", "183723.801000", "183723.813000", "183803.725000", "183803.728000", "183803.731000", "183803.734000", "183803.737000", "183803.740000", "183803.743000", "183803.747000", "183803.750000", "183803.753000", "183803.756000", "183803.759000", "183803.762000", "183803.765000", "183803.768000", "183803.771000", "183803.774000", "183803.777000", "183803.780000", "183803.783000", "183803.786000", "183803.789000", "183803.792000", "183803.795000", "183803.798000", "183803.801000", "183803.804000", "183843.725000", "183843.728000", "183843.731000", "183843.735000", "183843.738000", "183843.741000", "183843.744000", "183843.747000", "183843.750000", "183843.753000", "183843.756000", "183843.759000", "183843.762000", "183843.765000", "183843.768000", "183843.771000", "183843.774000", "183843.777000", "183843.780000", "183843.783000", "183843.786000", "183843.789000", "183843.792000", "183843.795000", "183843.799000", "183843.802000", "183843.804000", "183923.724000", "183923.727000", "183923.731000", "183923.734000", "183923.737000", "183923.740000", "183923.743000", "183923.746000", "183923.749000", "183923.752000", "183923.755000", "183923.758000", "183923.761000", "183923.764000", "183923.767000", "183923.770000", "183923.773000", "183923.776000", "183923.779000", "183923.782000", "183923.785000", "183923.789000", "183923.792000", "183923.795000", "183923.798000", "183923.801000", "183923.805000", "184003.725000", "184003.729000", "184003.732000", "184003.735000", "184003.738000", "184003.741000", "184003.744000", "184003.747000", "184003.750000", "184003.753000", "184003.756000", "184003.759000", "184003.762000", "184003.765000", "184003.768000", "184003.771000", "184003.774000", "184003.777000", "184003.780000", "184003.783000", "184003.786000", "184003.790000", "184003.793000", "184003.796000", "184003.798000", "184003.802000", "184003.805000", "184043.725000", "184043.728000", "184043.731000", "184043.734000", "184043.737000", "184043.740000", "184043.743000", "184043.746000", "184043.750000", "184043.753000", "184043.756000", "184043.759000", "184043.762000", "184043.765000", "184043.768000", "184043.771000", "184043.774000", "184043.777000", "184043.780000", "184043.783000", "184043.786000", "184043.789000", "184043.792000", "184043.795000", "184043.798000", "184043.801000", "184043.804000", "184123.725000", "184123.729000", "184123.732000", "184123.735000", "184123.738000", "184123.741000", "184123.744000", "184123.747000", "184123.750000", "184123.753000", "184123.756000", "184123.759000", "184123.762000", "184123.765000", "184123.768000", "184123.771000", "184123.775000", "184123.778000", "184123.782000", "184123.785000", "184123.799000", "184123.802000", "184123.805000", "184123.808000", "184123.811000", "184123.814000", "184203.724000", "184203.728000", "184203.731000", "184203.734000", "184203.737000", "184203.740000", "184203.743000", "184203.746000", "184203.749000", "184203.752000", "184203.755000", "184203.758000", "184203.761000", "184203.764000", "184203.767000", "184203.770000", "184203.773000", "184203.776000", "184203.779000", "184203.782000", "184203.785000", "184203.789000", "184203.792000", "184203.795000", "184203.798000", "184203.801000", "184203.804000", "184243.725000", "184243.728000", "184243.731000", "184243.734000", "184243.738000", "184243.741000", "184243.744000", "184243.747000", "184243.750000", "184243.753000", "184243.756000", "184243.759000", "184243.762000", "184243.765000", "184243.768000", "184243.771000", "184243.774000", "184243.777000", "184243.780000", "184243.783000", "184243.786000", "184243.789000", "184243.792000", "184243.795000", "184243.799000", "184243.802000", "184243.805000", "184253.362000", "184253.365000", "184253.368000", "184253.375000", "184253.378000", "184253.381000", "184253.384000"],
