{
  "AcquisitionMatrixPE": 104,
  "AcquisitionNumber": 1,
  "AcquisitionTime": "18:43:12.897500",
  "BandwidthPerPixelPhaseEncode": 17.17,
  "BaseResolution": 104,
  "BodyPartExamined": "BRAIN",
  "CoilString": "HC1-7;NC1_2",
  "ConsistencyInfo": "N4_VE11C_LATEST_20160120",
  "ConversionSoftware": "dcm2niix",
  "ConversionSoftwareVersion": "v1.0.20190902",
  "DerivedVendorReportedEchoSpacing": 0.000560011,
  "DeviceSerialNumber": "167006",
  "DwellTime": 2.1e-06,
  "EchoTime": 0.037,
  "EchoTrainLength": 104,
  "EffectiveEchoSpacing": 0.000560011,
  "FlipAngle": 52,
  "ImageComments": "Unaliased_MB4_PE3_LB",
  "ImageOrientationPatientDICOM": [0.999037, -0.04029, -0.0173654, 0.0310469, 0.9289, -0.369028],
  "ImageType": [
    "ORIGINAL",
    "PRIMARY",
    "M",
    "MB",
    "ND",
    "MOSAIC"
],
  "ImagingFrequency": 123.259,
  "InPlanePhaseEncodingDirectionDICOM": "COL",
  "InstitutionAddress": "Chemin_Queen-Mary_4565_Montreal_District_CA_H3W_1W5",
  "InstitutionName": "IUGM",
  "InstitutionalDepartmentName": "Department",
  "MRAcquisitionType": "2D",
  "MagneticFieldStrength": 3,
  "Manufacturer": "Siemens",
  "ManufacturersModelName": "Prisma_fit",
  "Modality": "MR",
  "MultibandAccelerationFactor": 4,
  "PartialFourier": 1,
  "PatientPosition": "HFS",
  "PercentPhaseFOV": 100,
  "PhaseEncodingDirection": "j",
  "PhaseEncodingSteps": 104,
  "PhaseResolution": 1,
  "PixelBandwidth": 2290,
  "ProcedureStepDescription": "video_friends",
  "ProtocolName": "func_task-friends-s02e24b",
  "PulseSequenceDetails": "%CustomerSeq%_cmrr_mbep2d_bold",
  "ReceiveCoilActiveElements": "HC1-7;NC1,2",
  "ReceiveCoilName": "HeadNeck_64",
  "ReconMatrixPE": 104,
  "RepetitionTime": 1.49,
  "SAR": 0.034762,
  "ScanOptions": "FS",
  "ScanningSequence": "EP",
  "SequenceName": "epfid2d1_104",
  "SequenceVariant": "SK_SS",
  "SeriesDescription": "func_task-friends-s02e24b",
  "SeriesNumber": 23,
  "ShimSetting": [617, -7290, -8813, 445, 21, -434, 36, 27],
  "SliceThickness": 2,
  "SliceTiming": [0, 0.7825, 0.0975, 0.8825, 0.195, 0.98, 0.2925, 1.0775, 0.3925, 1.175, 0.49, 1.2725, 0.5875, 1.3725, 0.685, 0, 0.7825, 0.0975, 0.8825, 0.195, 0.98, 0.2925, 1.0775, 0.3925, 1.175, 0.49, 1.2725, 0.5875, 1.3725, 0.685, 0, 0.7825, 0.0975, 0.8825, 0.195, 0.98, 0.2925, 1.0775, 0.3925, 1.175, 0.49, 1.2725, 0.5875, 1.3725, 0.685, 0, 0.7825, 0.0975, 0.8825, 0.195, 0.98, 0.2925, 1.0775, 0.3925, 1.175, 0.49, 1.2725, 0.5875, 1.3725, 0.685],
  "SoftwareVersions": "syngo_MR_E11",
  "SpacingBetweenSlices": 2,
  "StationName": "MRC35049",
  "TaskName": "s02e24b",
  "TotalReadoutTime": 0.0576811,
  "TxRefAmp": 234.798,
  "WipMemBlock": "fff8529a-1430-4a65-a645-3d49f08b127b||Sequence: R016 ve11c/master r/e634e98; Dec 19 2017 11:00:25 by eja",
  "dcmmeta_affine": [
    [-1.9980742931365967, 0.06209387257695198, -0.06199764087796211, 97.84911346435547],
    [0.0805799588561058, 1.8577994108200073, -0.7362664937973022, -73.60453796386719],
    [-0.03473076969385147, 0.738055408000946, 1.858512282371521, -60.104393005371094],
    [0.0, 0.0, 0.0, 1.0]
],
  "dcmmeta_reorient_transform": [
    [0.0, -1.0, 0.0, 103.0],
    [1.0, 0.0, 0.0, 0.0],
    [0.0, 0.0, 1.0, 0.0],
    [0.0, 0.0, 0.0, 1.0]
],
  "dcmmeta_shape": [104, 104, 60, 469],
  "dcmmeta_slice_dim": 2,
  "dcmmeta_version": 0.6,
  "global": {
    "const": {
      "AcquisitionMatrix": [104, 0, 0, 104],
      "AngioFlag": "N",
      "BitsAllocated": 16,
      "BitsStored": 16,
      "BodyPartExamined": "BRAIN",
      "Columns": 832,
      "EchoNumbers": 1,
      "EchoTime": 37.0,
      "EchoTrainLength": 104,
      "FlipAngle": 52.0,
      "HighBit": 15,
      "ImageOrientationPatient": [0.99903711689711, -0.0402899799938, -0.017365384361, 0.03104693664135, 0.9288996928148, -0.3690277068375],
      "ImagePositionPatient": [-854.14596967436, -764.65667034931, 297.20948438753],
      "ImageType": [
        "ORIGINAL",
        "PRIMARY",
        "M",
        "MB",
        "ND",
        "MOSAIC"
],
      "ImagedNucleus": "1H",
      "ImagingFrequency": 123.258815,
      "InPlanePhaseEncodingDirection": "COL",
      "MRAcquisitionType": "2D",
      "MagneticFieldStrength": 3.0,
      "Manufacturer": "SIEMENS",
      "ManufacturerModelName": "Prisma_fit",
      "Modality": "MR",
      "NumberOfAverages": 1.0,
      "NumberOfPhaseEncodingSteps": 104,
      "PercentPhaseFieldOfView": 100.0,
      "PercentSampling": 100.0,
      "PerformedProcedureStepStartTime": "170828.711000",
      "PhotometricInterpretation": "MONOCHROME2",
      "PixelBandwidth": 2290.0,
      "PixelRepresentation": 0,
      "PixelSpacing": [2.0, 2.0],
      "ProtocolName": "func_task-friends-s02e24b",
      "RepetitionTime": 1490.0,
      "Rows": 832,
      "SAR": 0.03476196824519,
      "SamplesPerPixel": 1,
      "ScanOptions": "FS",
      "ScanningSequence": "EP",
      "SequenceName": "epfid2d1_104",
      "SequenceVariant": [
        "SK",
        "SS"
],
      "SeriesDescription": "func_task-friends-s02e24b",
      "SeriesNumber": 23,
      "SeriesTime": "184441.111000",
      "SliceLocation": -31.789307971869,
      "SliceThickness": 2.0,
      "SmallestImagePixelValue": 0,
      "SoftwareVersions": "syngo MR E11",
      "SpacingBetweenSlices": 2.0000000276092,
      "SpecificCharacterSet": "ISO_IR 100",
      "StudyID": "1",
      "StudyTime": "170828.624000",
      "TransmitCoilName": "Body",
      "VariableFlipAngleFlag": "N",
      "WindowCenterWidthExplanation": "Algo1",
      "dBdt": 0.0},
    "slices": {}
  },
  "time": {
    "samples": {
      "AcquisitionNumber": [1, 2, 3, 4, 5, 6, 7, 8, 9, 10, 11, 12, 13, 14, 15, 16, 17, 18, 19, 20, 21, 22, 23, 24, 25, 26, 27, 28, 29, 30, 31, 32, 33, 34, 35, 36, 37, 38, 39, 40, 41, 42, 43, 44, 45, 46, 47, 48, 49, 50, 51, 52, 53, 54, 55, 56, 57, 58, 59, 60, 61, 62, 63, 64, 65, 66, 67, 68, 69, 70, 71, 72, 73, 74, 75, 76, 77, 78, 79, 80, 81, 82, 83, 84, 85, 86, 87, 88, 89, 90, 91, 92, 93, 94, 95, 96, 97, 98, 99, 100, 101, 102, 103, 104, 105, 106, 107, 108, 109, 110, 111, 112, 113, 114, 115, 116, 117, 118, 119, 120, 121, 122, 123, 124, 125, 126, 127, 128, 129, 130, 131, 132, 133, 134, 135, 136, 137, 138, 139, 140, 141, 142, 143, 144, 145, 146, 147, 148, 149, 150, 151, 152, 153, 154, 155, 156, 157, 158, 159, 160, 161, 162, 163, 164, 165, 166, 167, 168, 169, 170, 171, 172, 173, 174, 175, 176, 177, 178, 179, 180, 181, 182, 183, 184, 185, 186, 187, 188, 189, 190, 191, 192, 193, 194, 195, 196, 197, 198, 199, 200, 201, 202, 203, 204, 205, 206, 207, 208, 209, 210, 211, 212, 213, 214, 215, 216, 217, 218, 219, 220, 221, 222, 223, 224, 225, 226, 227, 228, 229, 230, 231, 232, 233, 234, 235, 236, 237, 238, 239, 240, 241, 242, 243, 244, 245, 246, 247, 248, 249, 250, 251, 252, 253, 254, 255, 256, 257, 258, 259, 260, 261, 262, 263, 264, 265, 266, 267, 268, 269, 270, 271, 272, 273, 274, 275, 276, 277, 278, 279, 280, 281, 282, 283, 284, 285, 286, 287, 288, 289, 290, 291, 292, 293, 294, 295, 296, 297, 298, 299, 300, 301, 302, 303, 304, 305, 306, 307, 308, 309, 310, 311, 312, 313, 314, 315, 316, 317, 318, 319, 320, 321, 322, 323, 324, 325, 326, 327, 328, 329, 330, 331, 332, 333, 334, 335, 336, 337, 338, 339, 340, 341, 342, 343, 344, 345, 346, 347, 348, 349, 350, 351, 352, 353, 354, 355, 356, 357, 358, 359, 360, 361, 362, 363, 364, 365, 366, 367, 368, 369, 370, 371, 372, 373, 374, 375, 376, 377, 378, 379, 380, 381, 382, 383, 384, 385, 386, 387, 388, 389, 390, 391, 392, 393, 394, 395, 396, 397, 398, 399, 400, 401, 402, 403, 404, 405, 406, 407, 408, 409, 410, 411, 412, 413, 414, 415, 416, 417, 418, 419, 420, 421, 422, 423, 424, 425, 426, 427, 428, 429, 430, 431, 432, 433, 434, 435, 436, 437, 438, 439, 440, 441, 442, 443, 444, 445, 446, 447, 448, 449, 450, 451, 452, 453, 454, 455, 456, 457, 458, 459, 460, 461, 462, 463, 464, 465, 466, 467, 468, 469],
      "AcquisitionTime": ["184312.897500", "184314.387500", "184315.877500", "184317.367500", "184318.857500", "184320.347500", "184321.837500", "184323.327500", "184324.817500", "184326.307500", "184327.797500", "184329.287500", "184330.777500", "184332.267500", "184333.757500", "184335.247500", "184336.737500", "184338.227500", "184339.717500", "184341.207500", "184342.697500", "184344.187500", "184345.677500", "184347.167500", "184348.657500", "184350.147500", "184351.637500", "184353.127500", "184354.617500", "184356.107500", "184357.597500", "184359.087500", "184400.577500", "184402.067500", "184403.557500", "184405.047500", "184406.537500", "184408.027500", "184409.517500", "184411.007500", "184412.497500", "184413.987500", "184415.477500", "184416.967500", "184418.457500", "184419.947500", "184421.437500", "184422.927500", "184424.417500", "184425.907500", "184427.397500", "184428.887500", "184430.377500", "184431.867500", "184433.357500", "184434.847500", "184436.337500", "184437.827500", "184439.317500", "184440.807500", "184442.297500", "184443.787500", "184445.277500", "184446.767500", "184448.257500", "184449.747500", "184451.237500", "184452.727500", "184454.217500", "184455.707500", "184457.197500", "184458.687500", "184500.177500", "184501.667500", "184503.157500", "184504.647500", "184506.137500", "184507.627500", "184509.117500", "184510.607500", "184512.097500", "184513.587500", "184515.077500", "184516.567500", "184518.057500", "184519.547500", "184521.037500", "184522.527500", "184524.017500", "184525.507500", "184526.997500", "184528.487500", "184529.977500", "184531.467500", "184532.957500", "184534.447500", "184535.937500", "184537.427500", "184538.917500", "184540.407500", "184541.897500", "184543.387500", "184544.877500", "184546.367500", "184547.857500", "184549.347500", "184550.837500", "184552.327500", "184553.817500", "184555.307500", "184556.797500", "184558.287500", "184559.777500", "184601.267500", "184602.757500", "184604.247500", "184605.737500", "184607.227500", "184608.717500", "184610.207500", "184611.697500", "184613.187500", "184614.677500", "184616.167500", "184617.657500", "184619.147500", "184620.637500", "184622.127500", "184623.617500", "184625.107500", "184626.597500", "184628.087500", "184629.577500", "184631.067500", "184632.557500", "184634.047500", "184635.537500", "184637.027500", "184638.517500", "184640.007500", "184641.497500", "184642.987500", "184644.477500", "184645.967500", "184647.457500", "184648.947500", "184650.437500", "184651.927500", "184653.417500", "184654.907500", "184656.397500", "184657.887500", "184659.377500", "184700.867500", "184702.357500", "184703.847500", "184705.337500", "184706.827500", "184708.317500", "184709.807500", "184711.297500", "184712.787500", "184714.277500", "184715.767500", "184717.257500", "184718.747500", "184720.237500", "184721.727500", "184723.217500", "184724.707500", "184726.197500", "184727.687500", "184729.177500", "184730.667500", "184732.157500", "184733.647500", "184735.137500", "184736.627500", "184738.117500", "184739.607500", "184741.097500", "184742.587500", "184744.077500", "184745.567500", "184747.057500", "184748.547500", "184750.037500", "184751.527500", "184753.017500", "184754.507500", "184755.997500", "184757.487500", "184758.977500", "184800.467500", "184801.957500", "184803.447500", "184804.937500", "184806.427500", "184807.917500", "184809.407500", "184810.897500", "184812.387500", "184813.877500", "184815.367500", "184816.857500", "184818.347500", "184819.837500", "184821.327500", "184822.817500", "184824.307500", "184825.797500", "184827.287500", "184828.777500", "184830.267500", "184831.757500", "184833.247500", "184834.737500", "184836.227500", "184837.717500", "184839.207500", "184840.697500", "184842.187500", "184843.677500", "184845.167500", "184846.657500", "184848.147500", "184849.637500", "184851.127500", "184852.617500", "184854.107500", "184855.597500", "184857.087500", "184858.577500", "184900.067500", "184901.557500", "184903.047500", "184904.537500", "184906.027500", "184907.517500", "184909.007500", "184910.497500", "184911.987500", "184913.477500", "184914.967500", "184916.457500", "184917.947500", "184919.437500", "184920.927500", "184922.417500", "184923.907500", "184925.397500", "184926.887500", "184928.377500", "184929.867500", "184931.357500", "184932.847500", "184934.337500", "184935.827500", "184937.317500", "184938.807500", "184940.297500", "184941.787500", "184943.277500", "184944.767500", "184946.257500", "184947.747500", "184949.237500", "184950.727500", "184952.217500", "184953.707500", "184955.197500", "184956.687500", "184958.177500", "184959.667500", "185001.157500", "185002.647500", "185004.137500", "185005.627500", "185007.117500", "185008.607500", "185010.097500", "185011.587500", "185013.077500", "185014.567500", "185016.057500", "185017.547500", "185019.037500", "185020.527500", "185022.017500", "185023.507500", "185024.997500", "185026.487500", "185027.977500", "185029.467500", "185030.957500", "185032.447500", "185033.937500", "185035.427500", "185036.917500", "185038.407500", "185039.897500", "185041.387500", "185042.877500", "185044.367500", "185045.857500", "185047.347500", "185048.837500", "185050.327500", "185051.817500", "185053.307500", "185054.797500", "185056.287500", "185057.777500", "185059.267500", "185100.757500", "185102.247500", "185103.737500", "185105.227500", "185106.717500", "185108.207500", "185109.697500", "185111.187500", "185112.677500", "185114.167500", "185115.657500", "185117.147500", "185118.637500", "185120.127500", "185121.617500", "185123.107500", "185124.597500", "185126.087500", "185127.577500", "185129.067500", "185130.557500", "185132.047500", "185133.537500", "185135.027500", "185136.517500", "185138.007500", "185139.497500", "185140.987500", "185142.477500", "185143.967500", "185145.457500", "185146.947500", "185148.437500", "185149.927500", "185151.417500", "185152.907500", "185154.397500", "185155.887500", "185157.377500", "185158.867500", "185200.357500", "185201.847500", "185203.337500", "185204.827500", "185206.317500", "185207.807500", "185209.297500", "185210.787500", "185212.277500", "185213.767500", "185215.257500", "185216.747500", "185218.237500", "185219.727500", "185221.217500", "185222.707500", "185224.197500", "185225.687500", "185227.177500", "185228.667500", "185230.157500", "185231.647500", "185233.137500", "185234.627500", "185236.117500", "185237.607500", "185239.097500", "185240.587500", "185242.077500", "185243.567500", "185245.057500", "185246.547500", "185248.037500", "185249.527500", "185251.017500", "185252.507500", "185253.997500", "185255.487500", "185256.977500", "185258.467500", "185259.957500", "185301.447500", "185302.937500", "185304.427500", "185305.917500", "185307.407500", "185308.897500", "185310.387500", "185311.877500", "185313.367500", "185314.857500", "185316.347500", "185317.837500", "185319.327500", "185320.817500", "185322.307500", "185323.797500", "185325.287500", "185326.777500", "185328.267500", "185329.757500", "185331.247500", "185332.737500", "185334.227500", "185335.717500", "185337.207500", "185338.697500", "185340.187500", "185341.677500", "185343.167500", "185344.657500", "185346.147500", "185347.637500", "185349.127500", "185350.617500", "185352.107500", "185353.597500", "185355.087500", "185356.577500", "185358.067500", "185359.557500", "185401.047500", "185402.537500", "185404.027500", "185405.517500", "185407.007500", "185408.497500", "185409.987500", "185411.477500", "185412.967500", "185414.457500", "185415.947500", "185417.437500", "185418.927500", "185420.417500", "185421.907500", "185423.397500", "185424.887500", "185426.377500", "185427.867500", "185429.357500", "185430.847500", "185432.337500", "185433.827500", "185435.317500", "185436.807500", "185438.297500", "185439.787500", "185441.277500", "185442.767500", "185444.257500", "185445.747500", "185447.237500", "185448.727500", "185450.217500"],
      "ContentTime": ["184441.114000", "184441.117000", "184441.120000", "184441.123000", "184441.127000", "184441.130000", "184441.133000", "184441.136000", "184441.139000", "184441.142000", "184441.145000", "184441.148000", "184441.151000", "184441.154000", "184441.157000", "184441.160000", "184441.163000", "184441.166000", "184441.169000", "184441.172000", "184441.175000", "184441.178000", "184441.181000", "184441.184000", "184441.187000", "184441.190000", "184441.199000", "184441.202000", "184441.205000", "184441.209000", "184441.212000", "184441.215000", "184441.218000", "184501.084000", "184501.088000", "184501.091000", "184501.094000", "184501.097000", "184501.100000", "184501.103000", "184501.106000", "184501.109000", "184501.112000", "184501.115000", "184501.118000", "184501.121000", "184501.124000", "184501.127000", "184501.130000", "184501.133000", "184501.137000", "184501.139000", "184501.143000", "184521.084000", "184521.087000", "184521.091000", "184521.094000", "184521.098000", "184521.101000", "184521.104000", "184521.107000", "184521.110000", "184521.113000", "184521.116000", "184521.119000", "184521.122000", "184521.125000", "184521.128000", "184521.131000", "184521.134000", "184521.138000", "184521.141000", "184521.144000", "184521.147000", "184541.084000", "184541.087000", "184541.090000", "184541.093000", "184541.097000", "184541.100000", "184541.104000", "184541.107000", "184541.110000", "184541.113000", "184541.116000", "184541.119000", "184541.123000", "184541.126000", "184541.129000", "184541.132000", "184541.135000", "184541.138000", "184541.141000", "184541.144000", "184601.084000", "184601.087000", "184601.090000", "184601.098000", "184601.101000", "184601.104000", "184601.107000", "184601.110000", "184601.114000", "184601.116000", "184601.119000", "184601.122000", "184601.126000", "184601.129000", "184601.132000", "184601.134000", "184601.138000", "184601.141000", "184641.083000", "184641.086000", "184641.089000", "184641.092000", "184641.095000", "184641.098000", "184641.101000", "184641.126000", "184641.129000", "184641.132000", "184641.137000", "184641.140000", "184641.143000", "184641.146000", "184641.149000", "184641.152000", "184641.155000", "184641.158000", "184641.161000", "184641.164000", "184641.167000", "184641.170000", "184641.173000", "184641.176000", "184641.179000", "184641.182000", "184641.185000", "184721.084000", "184721.087000", "184721.090000", "184721.093000", "184721.096000", "184721.099000", "184721.102000", "184721.106000", "184721.109000", "184721.112000", "184721.115000", "184721.118000", "184721.121000", "184721.125000", "184721.128000", "184721.131000", "184721.134000", "184721.137000", "184721.140000", "184721.143000", "184721.146000", "184721.149000", "184721.158000", "184721.161000", "184721.164000", "184721.167000", "184721.170000", "184801.085000", "184801.089000", "184801.093000", "184801.097000", "184801.100000", "184801.103000", "184801.106000", "184801.109000", "184801.112000", "184801.115000", "184801.118000", "184801.121000", "184801.124000", "184801.127000", "184801.130000", "184801.133000", "184801.136000", "184801.139000", "184801.143000", "184801.145000", "184801.148000", "184801.152000", "184801.155000", "184801.158000", "184801.161000", "184801.164000", "184841.083000", "184841.086000", "184841.089000", "184841.092000", "184841.095000", "184841.098000", "184841.101000", "184841.104000", "184841.108000", "184841.111000", "184841.114000", "184841.117000", "184841.125000", "184841.128000", "184841.131000", "184841.134000", "184841.137000", "184841.140000", "184841.143000", "184841.146000", "184841.150000", "184841.153000", "184841.156000", "184841.159000", "184841.162000", "184841.165000", "184841.168000", "184921.084000", "184921.087000", "184921.090000", "184921.093000", "184921.097000", "184921.100000", "184921.103000", "184921.106000", "184921.109000", "184921.112000", "184921.115000", "184921.118000", "184921.121000", "184921.124000", "184921.127000", "184921.130000", "184921.133000", "184921.136000", "184921.139000", "184921.142000", "184921.145000", "184921.148000", "184921.152000", "184921.155000", "184921.159000", "184921.162000", "184921.165000", "185001.084000", "185001.087000", "185001.090000", "185001.093000", "185001.096000", "185001.100000", "185001.103000", "185001.106000", "185001.109000", "185001.112000", "185001.115000", "185001.118000", "185001.121000", "185001.124000", "185001.127000", "185001.130000", "185001.133000", "185001.136000", "185001.139000", "185001.142000", "185001.145000", "185001.148000", "185001.151000", "185001.154000", "185001.157000", "185001.160000", "185001.164000", "185041.084000", "185041.087000", "185041.090000", "185041.093000", "185041.096000", "185041.100000", "185041.103000", "185041.106000", "185041.109000", "185041.112000", "185041.115000", "185041.118000", "185041.121000", "185041.124000", "185041.127000", "185041.130000", "185041.133000", "185041.136000", "185041.139000", "185041.142000", "185041.145000", "185041.149000", "185041.152000", "185041.154000", "185041.158000", "185041.161000", "185041.164000", "185121.083000", "185121.086000", "185121.089000", "185121.092000", "185121.096000", "185121.099000", "185121.102000", "185121.105000", "185121.108000", "185121.111000", "185121.114000", "185121.117000", "185121.120000", "185121.123000", "185121.126000", "185121.129000", "185121.132000", "185121.135000", "185121.138000", "185121.141000", "185121.145000", "185121.165000", "185121.168000", "185121.171000", "185121.174000", "185121.177000", "185121.198000", "185201.084000", "185201.087000", "185201.090000", "185201.094000", "185201.097000", "185201.100000", "185201.103000", "185201.106000", "185201.109000", "185201.112000", "185201.115000", "185201.118000", "185201.121000", "185201.124000", "185201.127000", "185201.131000", "185201.134000", "185201.137000", "185201.140000", "185201.143000", "185201.146000", "185201.149000", "185201.152000", "185201.155000", "185201.158000", "185201.174000", "185201.177000", "185241.084000", "185241.087000", "185241.090000", "185241.093000", "185241.097000", "185241.100000", "185241.103000", "185241.106000", "185241.109000", "185241.112000", "185241.115000", "185241.118000", "185241.121000", "185241.124000", "185241.127000", "185241.130000", "185241.134000", "185241.137000", "185241.140000", "185241.143000", "185241.146000", "185241.149000", "185241.152000", "185241.155000", "185241.158000", "185241.161000", "185321.083000", "185321.086000", "185321.089000", "185321.092000", "185321.095000", "185321.099000", "185321.102000", "185321.105000", "185321.108000", "185321.111000", "185321.114000", "185321.117000", "185321.120000", "185321.123000", "185321.126000", "185321.129000", "185321.132000", "185321.135000", "185321.138000", "185321.141000", "185321.144000", "185321.148000", "185321.151000", "185321.154000", "185321.157000", "185321.160000", "185321.163000", "185401.084000", "185401.087000", "185401.090000", "185401.094000", "185401.097000", "185401.100000", "185401.103000", "185401.106000", "185401.109000", "185401.112000", "185401.116000", "185401.119000", "185401.122000", "185401.125000", "185401.128000", "185401.131000", "185401.134000", "185401.137000", "185401.140000", "185401.143000", "185401.146000", "185401.149000", "185401.152000", "185401.155000", "185401.158000", "185401.161000", "185401.164000", "185441.084000", "185441.087000", "185441.090000", "185441.093000", "185441.096000", "185441.099000", "185441.103000", "185441.106000", "185441.109000", "185441.112000", "185441.115000", "185441.118000", "185441.121000", "185441.124000", "185441.127000", "185441.130000", "185441.133000", "185441.136000", "185441.139000", "185441.142000", "185441.145000", "185441.148000", "185441.152000", "185441.155000", "185441.158000", "185441.161000", "185441.164000", "185452.372000", "185452.376000", "185452.379000", "185452.382000", "185452.385000", "185452.388000", "185452.391000", "185452.394000"],
