{
  "AcquisitionMatrixPE": 104,
  "AcquisitionNumber": 1,
  "AcquisitionTime": "17:32:12.152500",
  "BandwidthPerPixelPhaseEncode": 17.17,
  "BaseResolution": 104,
  "BodyPartExamined": "BRAIN",
  "CoilString": "HC1-7;NC1_2",
  "ConsistencyInfo": "N4_VE11C_LATEST_20160120",
  "ConversionSoftware": "dcm2niix",
  "ConversionSoftwareVersion": "v1.0.20190902",
  "DerivedVendorReportedEchoSpacing": 0.000560011,
  "DeviceSerialNumber": "167006",
  "DwellTime": 2.1e-06,
  "EchoTime": 0.037,
  "EchoTrainLength": 104,
  "EffectiveEchoSpacing": 0.000560011,
  "FlipAngle": 52,
  "ImageComments": "Unaliased_MB4_PE3_LB",
  "ImageOrientationPatientDICOM": [0.999037, -0.04029, -0.0173654, 0.0310469, 0.9289, -0.369028],
  "ImageType": [
    "ORIGINAL",
    "PRIMARY",
    "M",
    "MB",
    "ND",
    "MOSAIC"
],
  "ImagingFrequency": 123.259,
  "InPlanePhaseEncodingDirectionDICOM": "COL",
  "InstitutionAddress": "Chemin_Queen-Mary_4565_Montreal_District_CA_H3W_1W5",
  "InstitutionName": "IUGM",
  "InstitutionalDepartmentName": "Department",
  "MRAcquisitionType": "2D",
  "MagneticFieldStrength": 3,
  "Manufacturer": "Siemens",
  "ManufacturersModelName": "Prisma_fit",
  "Modality": "MR",
  "MultibandAccelerationFactor": 4,
  "PartialFourier": 1,
  "PatientPosition": "HFS",
  "PercentPhaseFOV": 100,
  "PhaseEncodingDirection": "j",
  "PhaseEncodingSteps": 104,
  "PhaseResolution": 1,
  "PixelBandwidth": 2290,
  "ProcedureStepDescription": "video_friends",
  "ProtocolName": "func_task-friends-s02e21b",
  "PulseSequenceDetails": "%CustomerSeq%_cmrr_mbep2d_bold",
  "ReceiveCoilActiveElements": "HC1-7;NC1,2",
  "ReceiveCoilName": "HeadNeck_64",
  "ReconMatrixPE": 104,
  "RepetitionTime": 1.49,
  "SAR": 0.0347623,
  "ScanOptions": "FS",
  "ScanningSequence": "EP",
  "SequenceName": "epfid2d1_104",
  "SequenceVariant": "SK_SS",
  "SeriesDescription": "func_task-friends-s02e21b",
  "SeriesNumber": 11,
  "ShimSetting": [617, -7290, -8813, 445, 21, -434, 36, 27],
  "SliceThickness": 2,
  "SliceTiming": [0, 0.7825, 0.0975, 0.88, 0.195, 0.98, 0.2925, 1.0775, 0.39, 1.175, 0.49, 1.2725, 0.5875, 1.37, 0.685, 0, 0.7825, 0.0975, 0.88, 0.195, 0.98, 0.2925, 1.0775, 0.39, 1.175, 0.49, 1.2725, 0.5875, 1.37, 0.685, 0, 0.7825, 0.0975, 0.88, 0.195, 0.98, 0.2925, 1.0775, 0.39, 1.175, 0.49, 1.2725, 0.5875, 1.37, 0.685, 0, 0.7825, 0.0975, 0.88, 0.195, 0.98, 0.2925, 1.0775, 0.39, 1.175, 0.49, 1.2725, 0.5875, 1.37, 0.685],
  "SoftwareVersions": "syngo_MR_E11",
  "SpacingBetweenSlices": 2,
  "StationName": "MRC35049",
  "TaskName": "s02e21b",
  "TotalReadoutTime": 0.0576811,
  "TxRefAmp": 234.798,
  "WipMemBlock": "31a89aa9-8a3b-44ec-828b-01cef01f23dd||Sequence: R016 ve11c/master r/e634e98; Dec 19 2017 11:00:25 by eja",
  "dcmmeta_affine": [
    [-1.9980742931365967, 0.06209387257695198, -0.06199764087796211, 97.84911346435547],
    [0.0805799588561058, 1.8577994108200073, -0.7362664937973022, -73.60453796386719],
    [-0.03473076969385147, 0.738055408000946, 1.858512282371521, -60.104393005371094],
    [0.0, 0.0, 0.0, 1.0]
],
  "dcmmeta_reorient_transform": [
    [0.0, -1.0, 0.0, 103.0],
    [1.0, 0.0, 0.0, 0.0],
    [0.0, 0.0, 1.0, 0.0],
    [0.0, 0.0, 0.0, 1.0]
],
  "dcmmeta_shape": [104, 104, 60, 470],
  "dcmmeta_slice_dim": 2,
  "dcmmeta_version": 0.6,
  "global": {
    "const": {
      "AcquisitionMatrix": [104, 0, 0, 104],
      "AngioFlag": "N",
      "BitsAllocated": 16,
      "BitsStored": 16,
      "BodyPartExamined": "BRAIN",
      "Columns": 832,
      "EchoNumbers": 1,
      "EchoTime": 37.0,
      "EchoTrainLength": 104,
      "FlipAngle": 52.0,
      "HighBit": 15,
      "ImageOrientationPatient": [0.99903711689711, -0.0402899799938, -0.017365384361, 0.03104693664135, 0.9288996928148, -0.3690277068375],
      "ImagePositionPatient": [-854.14596967436, -764.65667034931, 297.20948438753],
      "ImageType": [
        "ORIGINAL",
        "PRIMARY",
        "M",
        "MB",
        "ND",
        "MOSAIC"
],
      "ImagedNucleus": "1H",
      "ImagingFrequency": 123.258804,
      "InPlanePhaseEncodingDirection": "COL",
      "MRAcquisitionType": "2D",
      "MagneticFieldStrength": 3.0,
      "Manufacturer": "SIEMENS",
      "ManufacturerModelName": "Prisma_fit",
      "Modality": "MR",
      "NumberOfAverages": 1.0,
      "NumberOfPhaseEncodingSteps": 104,
      "PercentPhaseFieldOfView": 100.0,
      "PercentSampling": 100.0,
      "PerformedProcedureStepStartTime": "170828.711000",
      "PhotometricInterpretation": "MONOCHROME2",
      "PixelBandwidth": 2290.0,
      "PixelRepresentation": 0,
      "PixelSpacing": [2.0, 2.0],
      "ProtocolName": "func_task-friends-s02e21b",
      "RepetitionTime": 1490.0,
      "Rows": 832,
      "SAR": 0.0347622819713,
      "SamplesPerPixel": 1,
      "ScanOptions": "FS",
      "ScanningSequence": "EP",
      "SequenceName": "epfid2d1_104",
      "SequenceVariant": [
        "SK",
        "SS"
],
      "SeriesDescription": "func_task-friends-s02e21b",
      "SeriesNumber": 11,
      "SeriesTime": "173341.116000",
      "SliceLocation": -31.789307971869,
      "SliceThickness": 2.0,
      "SmallestImagePixelValue": 0,
      "SoftwareVersions": "syngo MR E11",
      "SpacingBetweenSlices": 2.0000000276092,
      "SpecificCharacterSet": "ISO_IR 100",
      "StudyID": "1",
      "StudyTime": "170828.624000",
      "TransmitCoilName": "Body",
      "VariableFlipAngleFlag": "N",
      "WindowCenterWidthExplanation": "Algo1",
      "dBdt": 0.0},
    "slices": {}
  },
  "time": {
    "samples": {
      "AcquisitionNumber": [1, 2, 3, 4, 5, 6, 7, 8, 9, 10, 11, 12, 13, 14, 15, 16, 17, 18, 19, 20, 21, 22, 23, 24, 25, 26, 27, 28, 29, 30, 31, 32, 33, 34, 35, 36, 37, 38, 39, 40, 41, 42, 43, 44, 45, 46, 47, 48, 49, 50, 51, 52, 53, 54, 55, 56, 57, 58, 59, 60, 61, 62, 63, 64, 65, 66, 67, 68, 69, 70, 71, 72, 73, 74, 75, 76, 77, 78, 79, 80, 81, 82, 83, 84, 85, 86, 87, 88, 89, 90, 91, 92, 93, 94, 95, 96, 97, 98, 99, 100, 101, 102, 103, 104, 105, 106, 107, 108, 109, 110, 111, 112, 113, 114, 115, 116, 117, 118, 119, 120, 121, 122, 123, 124, 125, 126, 127, 128, 129, 130, 131, 132, 133, 134, 135, 136, 137, 138, 139, 140, 141, 142, 143, 144, 145, 146, 147, 148, 149, 150, 151, 152, 153, 154, 155, 156, 157, 158, 159, 160, 161, 162, 163, 164, 165, 166, 167, 168, 169, 170, 171, 172, 173, 174, 175, 176, 177, 178, 179, 180, 181, 182, 183, 184, 185, 186, 187, 188, 189, 190, 191, 192, 193, 194, 195, 196, 197, 198, 199, 200, 201, 202, 203, 204, 205, 206, 207, 208, 209, 210, 211, 212, 213, 214, 215, 216, 217, 218, 219, 220, 221, 222, 223, 224, 225, 226, 227, 228, 229, 230, 231, 232, 233, 234, 235, 236, 237, 238, 239, 240, 241, 242, 243, 244, 245, 246, 247, 248, 249, 250, 251, 252, 253, 254, 255, 256, 257, 258, 259, 260, 261, 262, 263, 264, 265, 266, 267, 268, 269, 270, 271, 272, 273, 274, 275, 276, 277, 278, 279, 280, 281, 282, 283, 284, 285, 286, 287, 288, 289, 290, 291, 292, 293, 294, 295, 296, 297, 298, 299, 300, 301, 302, 303, 304, 305, 306, 307, 308, 309, 310, 311, 312, 313, 314, 315, 316, 317, 318, 319, 320, 321, 322, 323, 324, 325, 326, 327, 328, 329, 330, 331, 332, 333, 334, 335, 336, 337, 338, 339, 340, 341, 342, 343, 344, 345, 346, 347, 348, 349, 350, 351, 352, 353, 354, 355, 356, 357, 358, 359, 360, 361, 362, 363, 364, 365, 366, 367, 368, 369, 370, 371, 372, 373, 374, 375, 376, 377, 378, 379, 380, 381, 382, 383, 384, 385, 386, 387, 388, 389, 390, 391, 392, 393, 394, 395, 396, 397, 398, 399, 400, 401, 402, 403, 404, 405, 406, 407, 408, 409, 410, 411, 412, 413, 414, 415, 416, 417, 418, 419, 420, 421, 422, 423, 424, 425, 426, 427, 428, 429, 430, 431, 432, 433, 434, 435, 436, 437, 438, 439, 440, 441, 442, 443, 444, 445, 446, 447, 448, 449, 450, 451, 452, 453, 454, 455, 456, 457, 458, 459, 460, 461, 462, 463, 464, 465, 466, 467, 468, 469, 470],
      "AcquisitionTime": ["173212.152500", "173213.642500", "173215.132500", "173216.622500", "173218.112500", "173219.602500", "173221.092500", "173222.582500", "173224.072500", "173225.562500", "173227.052500", "173228.542500", "173230.032500", "173231.522500", "173233.012500", "173234.502500", "173235.992500", "173237.482500", "173238.972500", "173240.462500", "173241.952500", "173243.442500", "173244.932500", "173246.422500", "173247.912500", "173249.402500", "173250.892500", "173252.382500", "173253.872500", "173255.362500", "173256.852500", "173258.342500", "173259.832500", "173301.322500", "173302.812500", "173304.302500", "173305.792500", "173307.282500", "173308.772500", "173310.262500", "173311.752500", "173313.242500", "173314.732500", "173316.222500", "173317.712500", "173319.202500", "173320.692500", "173322.182500", "173323.672500", "173325.162500", "173326.652500", "173328.142500", "173329.632500", "173331.122500", "173332.612500", "173334.102500", "173335.592500", "173337.082500", "173338.572500", "173340.062500", "173341.552500", "173343.042500", "173344.532500", "173346.022500", "173347.512500", "173349.002500", "173350.492500", "173351.982500", "173353.472500", "173354.962500", "173356.452500", "173357.942500", "173359.432500", "173400.922500", "173402.412500", "173403.902500", "173405.392500", "173406.882500", "173408.372500", "173409.862500", "173411.352500", "173412.842500", "173414.332500", "173415.822500", "173417.312500", "173418.802500", "173420.292500", "173421.782500", "173423.272500", "173424.762500", "173426.252500", "173427.742500", "173429.232500", "173430.722500", "173432.212500", "173433.702500", "173435.192500", "173436.682500", "173438.172500", "173439.662500", "173441.152500", "173442.642500", "173444.132500", "173445.622500", "173447.112500", "173448.602500", "173450.092500", "173451.582500", "173453.072500", "173454.562500", "173456.052500", "173457.542500", "173459.032500", "173500.522500", "173502.012500", "173503.502500", "173504.992500", "173506.482500", "173507.972500", "173509.462500", "173510.952500", "173512.442500", "173513.932500", "173515.422500", "173516.912500", "173518.402500", "173519.892500", "173521.382500", "173522.872500", "173524.362500", "173525.852500", "173527.342500", "173528.832500", "173530.322500", "173531.812500", "173533.302500", "173534.792500", "173536.282500", "173537.772500", "173539.262500", "173540.752500", "173542.242500", "173543.732500", "173545.222500", "173546.712500", "173548.202500", "173549.692500", "173551.182500", "173552.672500", "173554.162500", "173555.652500", "173557.142500", "173558.632500", "173600.122500", "173601.612500", "173603.102500", "173604.592500", "173606.082500", "173607.572500", "173609.062500", "173610.552500", "173612.042500", "173613.532500", "173615.022500", "173616.512500", "173618.002500", "173619.492500", "173620.982500", "173622.472500", "173623.962500", "173625.452500", "173626.942500", "173628.432500", "173629.922500", "173631.412500", "173632.902500", "173634.392500", "173635.882500", "173637.372500", "173638.862500", "173640.352500", "173641.842500", "173643.332500", "173644.822500", "173646.312500", "173647.802500", "173649.292500", "173650.782500", "173652.272500", "173653.762500", "173655.252500", "173656.742500", "173658.232500", "173659.722500", "173701.212500", "173702.702500", "173704.192500", "173705.682500", "173707.172500", "173708.662500", "173710.152500", "173711.642500", "173713.132500", "173714.622500", "173716.112500", "173717.602500", "173719.092500", "173720.582500", "173722.072500", "173723.562500", "173725.052500", "173726.542500", "173728.032500", "173729.522500", "173731.012500", "173732.502500", "173733.992500", "173735.482500", "173736.972500", "173738.462500", "173739.952500", "173741.442500", "173742.932500", "173744.422500", "173745.912500", "173747.402500", "173748.892500", "173750.382500", "173751.872500", "173753.362500", "173754.852500", "173756.342500", "173757.832500", "173759.322500", "173800.812500", "173802.302500", "173803.792500", "173805.282500", "173806.772500", "173808.262500", "173809.752500", "173811.242500", "173812.732500", "173814.222500", "173815.712500", "173817.202500", "173818.692500", "173820.182500", "173821.672500", "173823.162500", "173824.652500", "173826.142500", "173827.632500", "173829.122500", "173830.612500", "173832.102500", "173833.592500", "173835.082500", "173836.572500", "173838.062500", "173839.552500", "173841.042500", "173842.532500", "173844.022500", "173845.512500", "173847.002500", "173848.492500", "173849.982500", "173851.472500", "173852.962500", "173854.452500", "173855.942500", "173857.432500", "173858.922500", "173900.412500", "173901.902500", "173903.392500", "173904.882500", "173906.372500", "173907.862500", "173909.352500", "173910.842500", "173912.332500", "173913.822500", "173915.312500", "173916.802500", "173918.292500", "173919.782500", "173921.272500", "173922.762500", "173924.252500", "173925.742500", "173927.232500", "173928.722500", "173930.212500", "173931.702500", "173933.192500", "173934.682500", "173936.172500", "173937.662500", "173939.152500", "173940.642500", "173942.132500", "173943.622500", "173945.112500", "173946.602500", "173948.092500", "173949.582500", "173951.072500", "173952.562500", "173954.052500", "173955.542500", "173957.032500", "173958.522500", "174000.012500", "174001.502500", "174002.992500", "174004.482500", "174005.972500", "174007.462500", "174008.952500", "174010.442500", "174011.932500", "174013.422500", "174014.912500", "174016.402500", "174017.892500", "174019.382500", "174020.872500", "174022.362500", "174023.852500", "174025.342500", "174026.832500", "174028.322500", "174029.812500", "174031.302500", "174032.792500", "174034.282500", "174035.772500", "174037.262500", "174038.752500", "174040.242500", "174041.732500", "174043.222500", "174044.712500", "174046.202500", "174047.692500", "174049.182500", "174050.672500", "174052.162500", "174053.652500", "174055.142500", "174056.632500", "174058.122500", "174059.612500", "174101.102500", "174102.592500", "174104.082500", "174105.572500", "174107.062500", "174108.552500", "174110.042500", "174111.532500", "174113.022500", "174114.512500", "174116.002500", "174117.492500", "174118.982500", "174120.472500", "174121.962500", "174123.452500", "174124.942500", "174126.432500", "174127.922500", "174129.412500", "174130.902500", "174132.392500", "174133.882500", "174135.372500", "174136.862500", "174138.352500", "174139.842500", "174141.332500", "174142.822500", "174144.312500", "174145.802500", "174147.292500", "174148.782500", "174150.272500", "174151.762500", "174153.252500", "174154.742500", "174156.232500", "174157.722500", "174159.212500", "174200.702500", "174202.192500", "174203.682500", "174205.172500", "174206.662500", "174208.152500", "174209.642500", "174211.132500", "174212.622500", "174214.112500", "174215.602500", "174217.092500", "174218.582500", "174220.072500", "174221.562500", "174223.052500", "174224.542500", "174226.032500", "174227.522500", "174229.012500", "174230.502500", "174231.992500", "174233.482500", "174234.972500", "174236.462500", "174237.952500", "174239.442500", "174240.932500", "174242.422500", "174243.912500", "174245.402500", "174246.892500", "174248.382500", "174249.872500", "174251.362500", "174252.852500", "174254.342500", "174255.832500", "174257.322500", "174258.812500", "174300.302500", "174301.792500", "174303.282500", "174304.772500", "174306.262500", "174307.752500", "174309.242500", "174310.732500", "174312.222500", "174313.712500", "174315.202500", "174316.692500", "174318.182500", "174319.672500", "174321.162500", "174322.652500", "174324.142500", "174325.632500", "174327.122500", "174328.612500", "174330.102500", "174331.592500", "174333.082500", "174334.572500", "174336.062500", "174337.552500", "174339.042500", "174340.532500", "174342.022500", "174343.512500", "174345.002500", "174346.492500", "174347.982500", "174349.472500", "174350.962500"],
      "ContentTime": ["173341.119000", "173341.123000", "173341.126000", "173341.129000", "173341.132000", "173341.135000", "173341.138000", "173341.141000", "173341.144000", "173341.147000", "173341.150000", "173341.159000", "173341.162000", "173341.165000", "173341.168000", "173341.171000", "173341.174000", "173341.177000", "173341.180000", "173341.183000", "173341.186000", "173341.189000", "173341.192000", "173341.195000", "173341.198000", "173341.201000", "173341.204000", "173341.207000", "173341.210000", "173341.213000", "173341.216000", "173341.219000", "173341.222000", "173341.225000", "173341.228000", "173341.235000", "173401.084000", "173401.087000", "173401.090000", "173401.093000", "173401.096000", "173401.099000", "173401.102000", "173401.105000", "173401.108000", "173401.111000", "173401.114000", "173401.117000", "173401.120000", "173401.123000", "173401.126000", "173401.129000", "173401.132000", "173401.136000", "173401.139000", "173401.142000", "173421.084000", "173421.087000", "173421.090000", "173421.093000", "173421.096000", "173421.099000", "173421.102000", "173421.105000", "173421.108000", "173421.111000", "173421.114000", "173421.117000", "173421.120000", "173421.124000", "173421.127000", "173421.130000", "173421.133000", "173421.136000", "173421.139000", "173421.142000", "173441.083000", "173441.086000", "173441.089000", "173441.092000", "173441.095000", "173441.098000", "173441.101000", "173441.104000", "173441.107000", "173441.110000", "173441.113000", "173441.116000", "173441.119000", "173441.122000", "173441.125000", "173441.128000", "173441.145000", "173441.148000", "173441.151000", "173441.154000", "173521.084000", "173521.087000", "173521.090000", "173521.093000", "173521.096000", "173521.099000", "173521.102000", "173521.105000", "173521.108000", "173521.111000", "173521.114000", "173521.117000", "173521.120000", "173521.124000", "173521.127000", "173521.130000", "173521.133000", "173521.136000", "173521.139000", "173521.142000", "173521.145000", "173521.148000", "173521.151000", "173521.154000", "173521.157000", "173521.160000", "173521.163000", "173521.166000", "173521.169000", "173521.172000", "173601.084000", "173601.087000", "173601.090000", "173601.093000", "173601.096000", "173601.099000", "173601.102000", "173601.105000", "173601.108000", "173601.112000", "173601.115000", "173601.118000", "173601.121000", "173601.124000", "173601.127000", "173601.130000", "173601.133000", "173601.136000", "173601.139000", "173601.142000", "173601.145000", "173601.148000", "173601.151000", "173601.154000", "173601.157000", "173601.160000", "173601.163000", "173641.084000", "173641.087000", "173641.090000", "173641.093000", "173641.096000", "173641.099000", "173641.102000", "173641.105000", "173641.109000", "173641.112000", "173641.115000", "173641.118000", "173641.121000", "173641.124000", "173641.127000", "173641.130000", "173641.133000", "173641.136000", "173641.139000", "173641.142000", "173641.145000", "173641.148000", "173641.151000", "173641.154000", "173641.157000", "173641.160000", "173641.163000", "173721.083000", "173721.086000", "173721.089000", "173721.092000", "173721.095000", "173721.098000", "173721.101000", "173721.104000", "173721.107000", "173721.110000", "173721.113000", "173721.117000", "173721.120000", "173721.123000", "173721.126000", "173721.129000", "173721.132000", "173721.135000", "173721.138000", "173721.141000", "173721.144000", "173721.147000", "173721.150000", "173721.153000", "173721.156000", "173721.159000", "173721.162000", "173801.084000", "173801.087000", "173801.090000", "173801.093000", "173801.096000", "173801.099000", "173801.103000", "173801.106000", "173801.109000", "173801.112000", "173801.115000", "173801.118000", "173801.121000", "173801.124000", "173801.127000", "173801.130000", "173801.133000", "173801.136000", "173801.139000", "173801.142000", "173801.146000", "173801.149000", "173801.152000", "173801.155000", "173801.158000", "173801.174000", "173841.084000", "173841.087000", "173841.090000", "173841.093000", "173841.097000", "173841.100000", "173841.102000", "173841.113000", "173841.116000", "173841.119000", "173841.122000", "173841.125000", "173841.128000", "173841.131000", "173841.134000", "173841.137000", "173841.140000", "173841.143000", "173841.146000", "173841.149000", "173841.152000", "173841.155000", "173841.159000", "173841.162000", "173841.165000", "173841.168000", "173841.171000", "173921.083000", "173921.086000", "173921.089000", "173921.093000", "173921.096000", "173921.099000", "173921.102000", "173921.105000", "173921.108000", "173921.111000", "173921.114000", "173921.117000", "173921.120000", "173921.123000", "173921.126000", "173921.129000", "173921.132000", "173921.135000", "173921.138000", "173921.141000", "173921.144000", "173921.147000", "173921.150000", "173921.153000", "173921.156000", "173921.159000", "173921.162000", "174001.084000", "174001.087000", "174001.091000", "174001.094000", "174001.097000", "174001.100000", "174001.103000", "174001.121000", "174001.124000", "174001.127000", "174001.130000", "174001.133000", "174001.136000", "174001.139000", "174001.143000", "174001.146000", "174001.149000", "174001.152000", "174001.155000", "174001.158000", "174001.161000", "174001.164000", "174001.167000", "174001.170000", "174001.173000", "174001.176000", "174001.179000", "174041.084000", "174041.087000", "174041.095000", "174041.098000", "174041.101000", "174041.104000", "174041.107000", "174041.111000", "174041.114000", "174041.117000", "174041.120000", "174041.123000", "174041.126000", "174041.129000", "174041.132000", "174041.135000", "174041.138000", "174041.141000", "174041.144000", "174041.147000", "174041.150000", "174041.153000", "174041.156000", "174041.160000", "174041.163000", "174041.166000", "174041.169000", "174121.084000", "174121.087000", "174121.090000", "174121.093000", "174121.097000", "174121.100000", "174121.103000", "174121.106000", "174121.109000", "174121.112000", "174121.115000", "174121.118000", "174121.121000", "174121.124000", "174121.127000", "174121.130000", "174121.133000", "174121.136000", "174121.139000", "174121.142000", "174121.145000", "174121.149000", "174121.152000", "174121.155000", "174121.158000", "174121.161000", "174121.164000", "174201.083000", "174201.086000", "174201.089000", "174201.093000", "174201.096000", "174201.099000", "174201.102000", "174201.105000", "174201.108000", "174201.115000", "174201.118000", "174201.121000", "174201.124000", "174201.127000", "174201.130000", "174201.133000", "174201.136000", "174201.139000", "174201.142000", "174201.146000", "174201.149000", "174201.152000", "174201.155000", "174201.158000", "174201.161000", "174201.164000", "174201.167000", "174241.084000", "174241.087000", "174241.090000", "174241.093000", "174241.096000", "174241.099000", "174241.102000", "174241.105000", "174241.109000", "174241.112000", "174241.114000", "174241.117000", "174241.121000", "174241.124000", "174241.127000", "174241.130000", "174241.133000", "174241.136000", "174241.139000", "174241.142000", "174241.145000", "174241.148000", "174241.151000", "174241.154000", "174241.157000", "174241.161000", "174321.084000", "174321.087000", "174321.090000", "174321.093000", "174321.096000", "174321.099000", "174321.102000", "174321.105000", "174321.109000", "174321.112000", "174321.115000", "174321.118000", "174321.121000", "174321.124000", "174321.127000", "174321.130000", "174321.133000", "174321.136000", "174321.139000", "174321.142000", "174321.145000", "174321.148000", "174321.151000", "174321.154000", "174321.157000", "174321.160000", "174321.163000", "174352.866000", "174352.870000", "174352.873000", "174352.876000", "174352.879000", "174352.883000", "174352.886000", "174352.889000", "174352.892000", "174352.895000", "174352.898000", "174352.901000", "174352.904000", "174352.907000", "174352.910000", "174352.914000", "174352.917000", "174352.920000", "174352.923000", "174352.935000", "174352.938000", "174352.955000"],
