{
  "AcquisitionMatrixPE": 104,
  "AcquisitionNumber": 1,
  "AcquisitionTime": "17:44:14.502500",
  "BandwidthPerPixelPhaseEncode": 17.17,
  "BaseResolution": 104,
  "BodyPartExamined": "BRAIN",
  "CoilString": "HC1-7;NC1_2",
  "ConsistencyInfo": "N4_VE11C_LATEST_20160120",
  "ConversionSoftware": "dcm2niix",
  "ConversionSoftwareVersion": "v1.0.20190902",
  "DerivedVendorReportedEchoSpacing": 0.000560011,
  "DeviceSerialNumber": "167006",
  "DwellTime": 2.1e-06,
  "EchoTime": 0.037,
  "EchoTrainLength": 104,
  "EffectiveEchoSpacing": 0.000560011,
  "FlipAngle": 52,
  "ImageComments": "Unaliased_MB4_PE3_LB",
  "ImageOrientationPatientDICOM": [0.999037, -0.04029, -0.0173654, 0.0310469, 0.9289, -0.369028],
  "ImageType": [
    "ORIGINAL",
    "PRIMARY",
    "M",
    "MB",
    "ND",
    "MOSAIC"
],
  "ImagingFrequency": 123.259,
  "InPlanePhaseEncodingDirectionDICOM": "COL",
  "InstitutionAddress": "Chemin_Queen-Mary_4565_Montreal_District_CA_H3W_1W5",
  "InstitutionName": "IUGM",
  "InstitutionalDepartmentName": "Department",
  "MRAcquisitionType": "2D",
  "MagneticFieldStrength": 3,
  "Manufacturer": "Siemens",
  "ManufacturersModelName": "Prisma_fit",
  "Modality": "MR",
  "MultibandAccelerationFactor": 4,
  "PartialFourier": 1,
  "PatientPosition": "HFS",
  "PercentPhaseFOV": 100,
  "PhaseEncodingDirection": "j",
  "PhaseEncodingSteps": 104,
  "PhaseResolution": 1,
  "PixelBandwidth": 2290,
  "ProcedureStepDescription": "video_friends",
  "ProtocolName": "func_task-friends-s02e22a",
  "PulseSequenceDetails": "%CustomerSeq%_cmrr_mbep2d_bold",
  "ReceiveCoilActiveElements": "HC1-7;NC1,2",
  "ReceiveCoilName": "HeadNeck_64",
  "ReconMatrixPE": 104,
  "RepetitionTime": 1.49,
  "SAR": 0.0347568,
  "ScanOptions": "FS",
  "ScanningSequence": "EP",
  "SequenceName": "epfid2d1_104",
  "SequenceVariant": "SK_SS",
  "SeriesDescription": "func_task-friends-s02e22a",
  "SeriesNumber": 13,
  "ShimSetting": [617, -7290, -8813, 445, 21, -434, 36, 27],
  "SliceThickness": 2,
  "SliceTiming": [0, 0.785, 0.0975, 0.8825, 0.195, 0.98, 0.295, 1.0775, 0.3925, 1.175, 0.49, 1.2725, 0.5875, 1.3725, 0.685, 0, 0.785, 0.0975, 0.8825, 0.195, 0.98, 0.295, 1.0775, 0.3925, 1.175, 0.49, 1.2725, 0.5875, 1.3725, 0.685, 0, 0.785, 0.0975, 0.8825, 0.195, 0.98, 0.295, 1.0775, 0.3925, 1.175, 0.49, 1.2725, 0.5875, 1.3725, 0.685, 0, 0.785, 0.0975, 0.8825, 0.195, 0.98, 0.295, 1.0775, 0.3925, 1.175, 0.49, 1.2725, 0.5875, 1.3725, 0.685],
  "SoftwareVersions": "syngo_MR_E11",
  "SpacingBetweenSlices": 2,
  "StationName": "MRC35049",
  "TaskName": "s02e22a",
  "TotalReadoutTime": 0.0576811,
  "TxRefAmp": 234.798,
  "WipMemBlock": "cb2e6c32-fe36-4d58-a50b-ed5738d65b8f||Sequence: R016 ve11c/master r/e634e98; Dec 19 2017 11:00:25 by eja",
  "dcmmeta_affine": [
    [-1.9980742931365967, 0.06209387257695198, -0.06199764087796211, 97.84911346435547],
    [0.0805799588561058, 1.8577994108200073, -0.7362664937973022, -73.60453796386719],
    [-0.03473076969385147, 0.738055408000946, 1.858512282371521, -60.104393005371094],
    [0.0, 0.0, 0.0, 1.0]
],
  "dcmmeta_reorient_transform": [
    [0.0, -1.0, 0.0, 103.0],
    [1.0, 0.0, 0.0, 0.0],
    [0.0, 0.0, 1.0, 0.0],
    [0.0, 0.0, 0.0, 1.0]
],
  "dcmmeta_shape": [104, 104, 60, 453],
  "dcmmeta_slice_dim": 2,
  "dcmmeta_version": 0.6,
  "global": {
    "const": {
      "AcquisitionMatrix": [104, 0, 0, 104],
      "AngioFlag": "N",
      "BitsAllocated": 16,
      "BitsStored": 16,
      "BodyPartExamined": "BRAIN",
      "Columns": 832,
      "EchoNumbers": 1,
      "EchoTime": 37.0,
      "EchoTrainLength": 104,
      "FlipAngle": 52.0,
      "HighBit": 15,
      "ImageOrientationPatient": [0.99903711689711, -0.0402899799938, -0.017365384361, 0.03104693664135, 0.9288996928148, -0.3690277068375],
      "ImagePositionPatient": [-854.14596967436, -764.65667034931, 297.20948438753],
      "ImageType": [
        "ORIGINAL",
        "PRIMARY",
        "M",
        "MB",
        "ND",
        "MOSAIC"
],
      "ImagedNucleus": "1H",
      "ImagingFrequency": 123.258804,
      "InPlanePhaseEncodingDirection": "COL",
      "MRAcquisitionType": "2D",
      "MagneticFieldStrength": 3.0,
      "Manufacturer": "SIEMENS",
      "ManufacturerModelName": "Prisma_fit",
      "Modality": "MR",
      "NumberOfAverages": 1.0,
      "NumberOfPhaseEncodingSteps": 104,
      "PercentPhaseFieldOfView": 100.0,
      "PercentSampling": 100.0,
      "PerformedProcedureStepStartTime": "170828.711000",
      "PhotometricInterpretation": "MONOCHROME2",
      "PixelBandwidth": 2290.0,
      "PixelRepresentation": 0,
      "PixelSpacing": [2.0, 2.0],
      "ProtocolName": "func_task-friends-s02e22a",
      "RepetitionTime": 1490.0,
      "Rows": 832,
      "SAR": 0.0347567997768,
      "SamplesPerPixel": 1,
      "ScanOptions": "FS",
      "ScanningSequence": "EP",
      "SequenceName": "epfid2d1_104",
      "SequenceVariant": [
        "SK",
        "SS"
],
      "SeriesDescription": "func_task-friends-s02e22a",
      "SeriesNumber": 13,
      "SeriesTime": "174545.516000",
      "SliceLocation": -31.789307971869,
      "SliceThickness": 2.0,
      "SmallestImagePixelValue": 0,
      "SoftwareVersions": "syngo MR E11",
      "SpacingBetweenSlices": 2.0000000276092,
      "SpecificCharacterSet": "ISO_IR 100",
      "StudyID": "1",
      "StudyTime": "170828.624000",
      "TransmitCoilName": "Body",
      "VariableFlipAngleFlag": "N",
      "WindowCenterWidthExplanation": "Algo1",
      "dBdt": 0.0},
    "slices": {}
  },
  "time": {
    "samples": {
      "AcquisitionNumber": [1, 2, 3, 4, 5, 6, 7, 8, 9, 10, 11, 12, 13, 14, 15, 16, 17, 18, 19, 20, 21, 22, 23, 24, 25, 26, 27, 28, 29, 30, 31, 32, 33, 34, 35, 36, 37, 38, 39, 40, 41, 42, 43, 44, 45, 46, 47, 48, 49, 50, 51, 52, 53, 54, 55, 56, 57, 58, 59, 60, 61, 62, 63, 64, 65, 66, 67, 68, 69, 70, 71, 72, 73, 74, 75, 76, 77, 78, 79, 80, 81, 82, 83, 84, 85, 86, 87, 88, 89, 90, 91, 92, 93, 94, 95, 96, 97, 98, 99, 100, 101, 102, 103, 104, 105, 106, 107, 108, 109, 110, 111, 112, 113, 114, 115, 116, 117, 118, 119, 120, 121, 122, 123, 124, 125, 126, 127, 128, 129, 130, 131, 132, 133, 134, 135, 136, 137, 138, 139, 140, 141, 142, 143, 144, 145, 146, 147, 148, 149, 150, 151, 152, 153, 154, 155, 156, 157, 158, 159, 160, 161, 162, 163, 164, 165, 166, 167, 168, 169, 170, 171, 172, 173, 174, 175, 176, 177, 178, 179, 180, 181, 182, 183, 184, 185, 186, 187, 188, 189, 190, 191, 192, 193, 194, 195, 196, 197, 198, 199, 200, 201, 202, 203, 204, 205, 206, 207, 208, 209, 210, 211, 212, 213, 214, 215, 216, 217, 218, 219, 220, 221, 222, 223, 224, 225, 226, 227, 228, 229, 230, 231, 232, 233, 234, 235, 236, 237, 238, 239, 240, 241, 242, 243, 244, 245, 246, 247, 248, 249, 250, 251, 252, 253, 254, 255, 256, 257, 258, 259, 260, 261, 262, 263, 264, 265, 266, 267, 268, 269, 270, 271, 272, 273, 274, 275, 276, 277, 278, 279, 280, 281, 282, 283, 284, 285, 286, 287, 288, 289, 290, 291, 292, 293, 294, 295, 296, 297, 298, 299, 300, 301, 302, 303, 304, 305, 306, 307, 308, 309, 310, 311, 312, 313, 314, 315, 316, 317, 318, 319, 320, 321, 322, 323, 324, 325, 326, 327, 328, 329, 330, 331, 332, 333, 334, 335, 336, 337, 338, 339, 340, 341, 342, 343, 344, 345, 346, 347, 348, 349, 350, 351, 352, 353, 354, 355, 356, 357, 358, 359, 360, 361, 362, 363, 364, 365, 366, 367, 368, 369, 370, 371, 372, 373, 374, 375, 376, 377, 378, 379, 380, 381, 382, 383, 384, 385, 386, 387, 388, 389, 390, 391, 392, 393, 394, 395, 396, 397, 398, 399, 400, 401, 402, 403, 404, 405, 406, 407, 408, 409, 410, 411, 412, 413, 414, 415, 416, 417, 418, 419, 420, 421, 422, 423, 424, 425, 426, 427, 428, 429, 430, 431, 432, 433, 434, 435, 436, 437, 438, 439, 440, 441, 442, 443, 444, 445, 446, 447, 448, 449, 450, 451, 452, 453],
      "AcquisitionTime": ["174414.502500", "174415.992500", "174417.482500", "174418.972500", "174420.462500", "174421.952500", "174423.442500", "174424.932500", "174426.422500", "174427.912500", "174429.402500", "174430.892500", "174432.382500", "174433.872500", "174435.362500", "174436.852500", "174438.342500", "174439.832500", "174441.322500", "174442.812500", "174444.302500", "174445.792500", "174447.282500", "174448.772500", "174450.262500", "174451.752500", "174453.242500", "174454.732500", "174456.222500", "174457.712500", "174459.202500", "174500.692500", "174502.182500", "174503.672500", "174505.162500", "174506.652500", "174508.142500", "174509.632500", "174511.122500", "174512.612500", "174514.102500", "174515.592500", "174517.082500", "174518.572500", "174520.062500", "174521.552500", "174523.042500", "174524.532500", "174526.022500", "174527.512500", "174529.002500", "174530.492500", "174531.982500", "174533.472500", "174534.962500", "174536.452500", "174537.942500", "174539.432500", "174540.922500", "174542.412500", "174543.902500", "174545.392500", "174546.882500", "174548.372500", "174549.862500", "174551.352500", "174552.842500", "174554.332500", "174555.822500", "174557.312500", "174558.802500", "174600.292500", "174601.782500", "174603.272500", "174604.762500", "174606.252500", "174607.742500", "174609.232500", "174610.722500", "174612.212500", "174613.702500", "174615.192500", "174616.682500", "174618.172500", "174619.662500", "174621.152500", "174622.642500", "174624.132500", "174625.622500", "174627.112500", "174628.602500", "174630.092500", "174631.582500", "174633.072500", "174634.562500", "174636.052500", "174637.542500", "174639.032500", "174640.522500", "174642.012500", "174643.502500", "174644.992500", "174646.482500", "174647.972500", "174649.462500", "174650.952500", "174652.442500", "174653.932500", "174655.422500", "174656.912500", "174658.402500", "174659.892500", "174701.382500", "174702.872500", "174704.362500", "174705.852500", "174707.342500", "174708.832500", "174710.322500", "174711.812500", "174713.302500", "174714.792500", "174716.282500", "174717.772500", "174719.262500", "174720.752500", "174722.242500", "174723.732500", "174725.222500", "174726.712500", "174728.202500", "174729.692500", "174731.182500", "174732.672500", "174734.162500", "174735.652500", "174737.142500", "174738.632500", "174740.122500", "174741.612500", "174743.102500", "174744.592500", "174746.082500", "174747.572500", "174749.062500", "174750.552500", "174752.042500", "174753.532500", "174755.022500", "174756.512500", "174758.002500", "174759.492500", "174800.982500", "174802.472500", "174803.962500", "174805.452500", "174806.942500", "174808.432500", "174809.922500", "174811.412500", "174812.902500", "174814.392500", "174815.882500", "174817.372500", "174818.862500", "174820.352500", "174821.842500", "174823.332500", "174824.822500", "174826.312500", "174827.802500", "174829.292500", "174830.782500", "174832.272500", "174833.762500", "174835.252500", "174836.742500", "174838.232500", "174839.722500", "174841.212500", "174842.702500", "174844.192500", "174845.682500", "174847.172500", "174848.662500", "174850.152500", "174851.642500", "174853.132500", "174854.622500", "174856.112500", "174857.602500", "174859.092500", "174900.582500", "174902.072500", "174903.562500", "174905.052500", "174906.542500", "174908.032500", "174909.522500", "174911.012500", "174912.502500", "174913.992500", "174915.482500", "174916.972500", "174918.462500", "174919.952500", "174921.442500", "174922.932500", "174924.422500", "174925.912500", "174927.402500", "174928.892500", "174930.382500", "174931.872500", "174933.362500", "174934.852500", "174936.342500", "174937.832500", "174939.322500", "174940.812500", "174942.302500", "174943.792500", "174945.282500", "174946.772500", "174948.262500", "174949.752500", "174951.242500", "174952.732500", "174954.222500", "174955.712500", "174957.202500", "174958.692500", "175000.182500", "175001.672500", "175003.162500", "175004.652500", "175006.142500", "175007.632500", "175009.122500", "175010.612500", "175012.102500", "175013.592500", "175015.082500", "175016.572500", "175018.062500", "175019.552500", "175021.042500", "175022.532500", "175024.022500", "175025.512500", "175027.002500", "175028.492500", "175029.982500", "175031.472500", "175032.962500", "175034.452500", "175035.942500", "175037.432500", "175038.922500", "175040.412500", "175041.902500", "175043.392500", "175044.882500", "175046.372500", "175047.862500", "175049.352500", "175050.842500", "175052.332500", "175053.822500", "175055.312500", "175056.802500", "175058.292500", "175059.782500", "175101.272500", "175102.762500", "175104.252500", "175105.742500", "175107.232500", "175108.722500", "175110.212500", "175111.702500", "175113.192500", "175114.682500", "175116.172500", "175117.662500", "175119.152500", "175120.642500", "175122.132500", "175123.622500", "175125.112500", "175126.602500", "175128.092500", "175129.582500", "175131.072500", "175132.562500", "175134.052500", "175135.542500", "175137.032500", "175138.522500", "175140.012500", "175141.502500", "175142.992500", "175144.482500", "175145.972500", "175147.462500", "175148.952500", "175150.442500", "175151.932500", "175153.422500", "175154.912500", "175156.402500", "175157.892500", "175159.382500", "175200.872500", "175202.362500", "175203.852500", "175205.342500", "175206.832500", "175208.322500", "175209.812500", "175211.302500", "175212.792500", "175214.282500", "175215.772500", "175217.262500", "175218.752500", "175220.242500", "175221.732500", "175223.222500", "175224.712500", "175226.202500", "175227.692500", "175229.182500", "175230.672500", "175232.162500", "175233.652500", "175235.142500", "175236.632500", "175238.122500", "175239.612500", "175241.102500", "175242.592500", "175244.082500", "175245.572500", "175247.062500", "175248.552500", "175250.042500", "175251.532500", "175253.022500", "175254.512500", "175256.002500", "175257.492500", "175258.982500", "175300.472500", "175301.962500", "175303.452500", "175304.942500", "175306.432500", "175307.922500", "175309.412500", "175310.902500", "175312.392500", "175313.882500", "175315.372500", "175316.862500", "175318.352500", "175319.842500", "175321.332500", "175322.822500", "175324.312500", "175325.802500", "175327.292500", "175328.782500", "175330.272500", "175331.762500", "175333.252500", "175334.742500", "175336.232500", "175337.722500", "175339.212500", "175340.702500", "175342.192500", "175343.682500", "175345.172500", "175346.662500", "175348.152500", "175349.642500", "175351.132500", "175352.622500", "175354.112500", "175355.602500", "175357.092500", "175358.582500", "175400.072500", "175401.562500", "175403.052500", "175404.542500", "175406.032500", "175407.522500", "175409.012500", "175410.502500", "175411.992500", "175413.482500", "175414.972500", "175416.462500", "175417.952500", "175419.442500", "175420.932500", "175422.422500", "175423.912500", "175425.402500", "175426.892500", "175428.382500", "175429.872500", "175431.362500", "175432.852500", "175434.342500", "175435.832500", "175437.322500", "175438.812500", "175440.302500", "175441.792500", "175443.282500", "175444.772500", "175446.262500", "175447.752500", "175449.242500", "175450.732500", "175452.222500", "175453.712500", "175455.202500", "175456.692500", "175458.182500", "175459.672500", "175501.162500", "175502.652500", "175504.142500", "175505.632500", "175507.122500", "175508.612500", "175510.102500", "175511.592500", "175513.082500", "175514.572500", "175516.062500", "175517.552500", "175519.042500", "175520.532500", "175522.022500", "175523.512500", "175525.002500", "175526.492500", "175527.982500"],
      "ContentTime": ["174545.519000", "174545.523000", "174545.533000", "174545.536000", "174545.539000", "174545.542000", "174545.545000", "174545.548000", "174545.551000", "174545.554000", "174545.557000", "174545.560000", "174545.563000", "174545.566000", "174545.569000", "174545.572000", "174545.575000", "174545.578000", "174545.581000", "174545.584000", "174545.587000", "174545.590000", "174545.593000", "174545.597000", "174545.600000", "174545.603000", "174545.606000", "174545.609000", "174545.613000", "174545.616000", "174545.619000", "174545.622000", "174545.625000", "174545.628000", "174545.631000", "174545.634000", "174605.488000", "174605.491000", "174605.494000", "174605.498000", "174605.501000", "174605.504000", "174605.507000", "174605.510000", "174605.513000", "174605.516000", "174605.519000", "174605.522000", "174605.525000", "174605.528000", "174605.531000", "174605.534000", "174605.537000", "174605.540000", "174605.543000", "174605.546000", "174605.549000", "174625.489000", "174625.492000", "174625.495000", "174625.498000", "174625.501000", "174625.504000", "174625.507000", "174625.510000", "174625.513000", "174625.516000", "174625.519000", "174625.522000", "174625.526000", "174625.529000", "174625.532000", "174625.535000", "174625.538000", "174625.541000", "174625.544000", "174625.547000", "174645.489000", "174645.492000", "174645.495000", "174645.498000", "174645.501000", "174645.504000", "174645.507000", "174645.510000", "174645.513000", "174645.516000", "174645.519000", "174645.522000", "174645.525000", "174645.528000", "174645.531000", "174645.534000", "174645.537000", "174645.540000", "174645.544000", "174645.547000", "174725.488000", "174725.491000", "174725.494000", "174725.497000", "174725.500000", "174725.503000", "174725.506000", "174725.509000", "174725.512000", "174725.515000", "174725.518000", "174725.521000", "174725.525000", "174725.528000", "174725.530000", "174725.533000", "174725.537000", "174725.540000", "174725.543000", "174725.546000", "174725.549000", "174725.552000", "174725.555000", "174725.558000", "174725.561000", "174725.564000", "174725.567000", "174725.570000", "174725.573000", "174725.576000", "174725.579000", "174805.488000", "174805.491000", "174805.494000", "174805.497000", "174805.500000", "174805.503000", "174805.506000", "174805.509000", "174805.512000", "174805.516000", "174805.519000", "174805.522000", "174805.525000", "174805.528000", "174805.531000", "174805.534000", "174805.537000", "174805.540000", "174805.543000", "174805.546000", "174805.549000", "174805.552000", "174805.555000", "174805.558000", "174805.562000", "174805.565000", "174845.489000", "174845.492000", "174845.495000", "174845.498000", "174845.501000", "174845.512000", "174845.515000", "174845.518000", "174845.521000", "174845.524000", "174845.527000", "174845.530000", "174845.533000", "174845.536000", "174845.539000", "174845.542000", "174845.545000", "174845.548000", "174845.551000", "174845.554000", "174845.557000", "174845.560000", "174845.563000", "174845.566000", "174845.569000", "174845.573000", "174845.576000", "174925.488000", "174925.491000", "174925.495000", "174925.497000", "174925.501000", "174925.504000", "174925.518000", "174925.522000", "174925.525000", "174925.528000", "174925.531000", "174925.534000", "174925.537000", "174925.540000", "174925.543000", "174925.546000", "174925.549000", "174925.552000", "174925.555000", "174925.558000", "174925.561000", "174925.564000", "174925.567000", "174925.570000", "174925.573000", "174925.576000", "174925.579000", "175005.488000", "175005.491000", "175005.494000", "175005.497000", "175005.500000", "175005.503000", "175005.506000", "175005.510000", "175005.513000", "175005.526000", "175005.529000", "175005.532000", "175005.535000", "175005.538000", "175005.541000", "175005.544000", "175005.547000", "175005.550000", "175005.553000", "175005.556000", "175005.559000", "175005.562000", "175005.565000", "175005.569000", "175005.572000", "175005.575000", "175005.578000", "175045.488000", "175045.491000", "175045.494000", "175045.497000", "175045.500000", "175045.503000", "175045.507000", "175045.510000", "175045.513000", "175045.516000", "175045.519000", "175045.522000", "175045.525000", "175045.528000", "175045.531000", "175045.534000", "175045.537000", "175045.540000", "175045.543000", "175045.546000", "175045.549000", "175045.552000", "175045.555000", "175045.558000", "175045.561000", "175045.564000", "175045.567000", "175125.489000", "175125.492000", "175125.495000", "175125.498000", "175125.501000", "175125.505000", "175125.508000", "175125.511000", "175125.514000", "175125.517000", "175125.520000", "175125.523000", "175125.526000", "175125.529000", "175125.532000", "175125.535000", "175125.538000", "175125.541000", "175125.544000", "175125.547000", "175125.550000", "175125.553000", "175125.556000", "175125.559000", "175125.562000", "175125.565000", "175125.568000", "175205.488000", "175205.492000", "175205.496000", "175205.499000", "175205.502000", "175205.505000", "175205.508000", "175205.511000", "175205.514000", "175205.517000", "175205.520000", "175205.523000", "175205.526000", "175205.529000", "175205.532000", "175205.535000", "175205.539000", "175205.542000", "175205.545000", "175205.548000", "175205.551000", "175205.554000", "175205.557000", "175205.560000", "175205.563000", "175205.566000", "175245.488000", "175245.491000", "175245.494000", "175245.497000", "175245.500000", "175245.503000", "175245.507000", "175245.510000", "175245.513000", "175245.516000", "175245.519000", "175245.522000", "175245.525000", "175245.528000", "175245.531000", "175245.534000", "175245.537000", "175245.540000", "175245.543000", "175245.546000", "175245.549000", "175245.552000", "175245.555000", "175245.558000", "175245.561000", "175245.564000", "175245.568000", "175325.489000", "175325.492000", "175325.495000", "175325.498000", "175325.501000", "175325.505000", "175325.508000", "175325.511000", "175325.514000", "175325.517000", "175325.520000", "175325.523000", "175325.526000", "175325.529000", "175325.532000", "175325.535000", "175325.538000", "175325.541000", "175325.544000", "175325.547000", "175325.550000", "175325.553000", "175325.557000", "175325.560000", "175325.563000", "175325.566000", "175325.569000", "175405.488000", "175405.491000", "175405.494000", "175405.497000", "175405.500000", "175405.503000", "175405.511000", "175405.514000", "175405.517000", "175405.520000", "175405.523000", "175405.526000", "175405.529000", "175405.532000", "175405.535000", "175405.538000", "175405.541000", "175405.544000", "175405.547000", "175405.550000", "175405.553000", "175405.556000", "175405.559000", "175405.562000", "175405.565000", "175405.568000", "175405.571000", "175445.488000", "175445.491000", "175445.494000", "175445.497000", "175445.500000", "175445.503000", "175445.507000", "175445.510000", "175445.513000", "175445.516000", "175445.519000", "175445.522000", "175445.525000", "175445.528000", "175445.531000", "175445.534000", "175445.537000", "175445.540000", "175445.543000", "175445.546000", "175445.549000", "175445.552000", "175445.555000", "175445.559000", "175445.562000", "175445.565000", "175445.568000", "175525.488000", "175525.491000", "175525.494000", "175525.497000", "175525.500000", "175525.503000", "175525.507000", "175525.510000", "175525.513000", "175525.516000", "175525.519000", "175525.522000", "175525.525000", "175525.528000", "175525.531000", "175525.534000", "175525.537000", "175525.540000", "175525.543000", "175525.546000", "175525.549000", "175525.552000", "175525.555000", "175525.558000", "175525.561000", "175525.564000", "175525.567000", "175529.673000", "175529.676000", "175529.679000"],
