{
  "AcquisitionMatrixPE": 104,
  "AcquisitionNumber": 1,
  "AcquisitionTime": "10:12:14.722500",
  "BandwidthPerPixelPhaseEncode": 17.17,
  "BaseResolution": 104,
  "BodyPartExamined": "BRAIN",
  "CoilCombinationMethod": "Sum of Squares",
  "ConsistencyInfo": "N4_VE11C_LATEST_20160120",
  "ConversionSoftware": "dcm2niix",
  "ConversionSoftwareVersion": "v1.0.20230411",
  "DerivedVendorReportedEchoSpacing": 0.000560011,
  "DeviceSerialNumber": "167006",
  "DwellTime": 2.1e-06,
  "EchoTime": 0.037,
  "EchoTrainLength": 104,
  "EffectiveEchoSpacing": 0.000560011,
  "FlipAngle": 52,
  "HeudiconvVersion": "0.5.3.post861+ge7d3c7f",
  "ImageComments": "Unaliased MB4/PE3/LB",
  "ImageOrientationPatientDICOM": [0.99916, -0.0405318, -0.00597232, 0.035939, 0.937102, -0.3472],
  "ImageOrientationText": "Tra>Cor(-20.3)>Sag(-1.1)",
  "ImageType": [
    "ORIGINAL",
    "PRIMARY",
    "M",
    "MB",
    "ND",
    "MOSAIC"
],
  "ImagingFrequency": 123.249746,
  "InPlanePhaseEncodingDirectionDICOM": "COL",
  "InstitutionAddress": "Chemin Queen-Mary 4565,Montreal,District,CA,H3W 1W5",
  "InstitutionName": "IUGM",
  "InstitutionalDepartmentName": "Department",
  "MRAcquisitionType": "2D",
  "MagneticFieldStrength": 3,
  "Manufacturer": "Siemens",
  "ManufacturersModelName": "Prisma_fit",
  "MatrixCoilMode": "SENSE",
  "Modality": "MR",
  "MultibandAccelerationFactor": 4,
  "NonlinearGradientCorrection": false,
  "PartialFourier": 1,
  "PatientPosition": "HFS",
  "PercentPhaseFOV": 100,
  "PercentSampling": 100,
  "PhaseEncodingDirection": "j",
  "PhaseEncodingSteps": 104,
  "PhaseResolution": 1,
  "PixelBandwidth": 2290,
  "ProcedureStepDescription": "video^friends",
  "ProtocolName": "func_task-friends-s07e17a",
  "PulseSequenceDetails": "%CustomerSeq%\\cmrr_mbep2d_bold",
  "ReceiveCoilActiveElements": "HC1-7;NC1,2",
  "ReceiveCoilName": "HeadNeck_64",
  "ReconMatrixPE": 104,
  "RepetitionTime": 1.49,
  "SAR": 0.0417793,
  "ScanOptions": "FS",
  "ScanningSequence": "EP",
  "SequenceName": "epfid2d1_104",
  "SequenceVariant": "SK\\SS",
  "SeriesDescription": "func_task-friends-s07e17a",
  "SeriesNumber": 10,
  "ShimSetting": [603, -7276, -8840, 509, 28, -225, -145, 30],
  "SliceThickness": 2,
  "SliceTiming": [0, 0.7825, 0.0975, 0.8825, 0.195, 0.98, 0.2925, 1.0775, 0.3925, 1.175, 0.49, 1.2725, 0.5875, 1.3725, 0.685, 0, 0.7825, 0.0975, 0.8825, 0.195, 0.98, 0.2925, 1.0775, 0.3925, 1.175, 0.49, 1.2725, 0.5875, 1.3725, 0.685, 0, 0.7825, 0.0975, 0.8825, 0.195, 0.98, 0.2925, 1.0775, 0.3925, 1.175, 0.49, 1.2725, 0.5875, 1.3725, 0.685, 0, 0.7825, 0.0975, 0.8825, 0.195, 0.98, 0.2925, 1.0775, 0.3925, 1.175, 0.49, 1.2725, 0.5875, 1.3725, 0.685],
  "SoftwareVersions": "syngo MR E11",
  "SpacingBetweenSlices": 2,
  "StationName": "MRC35049",
  "TaskName": "s07e17a",
  "TotalReadoutTime": 0.0576811,
  "TxRefAmp": 231.438,
  "WipMemBlock": "84c5b1bb-be7f-4a70-84ce-6c44a86603ea||Sequence: R017 ve11c/master r/75a17815+; Jun 28 2022 16:32:11 by eja",
  "dcmmeta_affine": [
    [-1.9983208179473877, 0.07187804579734802, -0.039338648319244385, 99.55200958251953],
    [0.08106361329555511, 1.874204158782959, -0.6933882236480713, -78.04803466796875],
    [-0.011944635771214962, 0.6944005489349365, 1.8755439519882202, -72.3010482788086],
    [0.0, 0.0, 0.0, 1.0]
],
  "dcmmeta_reorient_transform": [
    [0.0, -1.0, 0.0, 103.0],
    [1.0, 0.0, 0.0, 0.0],
    [0.0, 0.0, 1.0, 0.0],
    [0.0, 0.0, 0.0, 1.0]
],
  "dcmmeta_shape": [104, 104, 60, 433],
  "dcmmeta_slice_dim": 2,
  "dcmmeta_version": 0.6,
  "global": {
    "const": {
      "AcquisitionMatrix": [104, 0, 0, 104],
      "AngioFlag": "N",
      "BitsAllocated": 16,
      "BitsStored": 16,
      "BodyPartExamined": "BRAIN",
      "Columns": 832,
      "EchoNumbers": 1,
      "EchoTime": 37.0,
      "EchoTrainLength": 104,
      "FlipAngle": 52.0,
      "HighBit": 15,
      "ImageOrientationPatient": [0.99916039963669, -0.0405318050058, -0.0059723178764, 0.03593902398839, 0.93710210840521, -0.3472002663842],
      "ImagePositionPatient": [-860.50782715554, -767.69818424653, 256.3318500841],
      "ImageType": [
        "ORIGINAL",
        "PRIMARY",
        "M",
        "MB",
        "ND",
        "MOSAIC"
],
      "ImagedNucleus": "1H",
      "ImagingFrequency": 123.249746,
      "InPlanePhaseEncodingDirection": "COL",
      "MRAcquisitionType": "2D",
      "MagneticFieldStrength": 3.0,
      "Manufacturer": "SIEMENS",
      "ManufacturerModelName": "Prisma_fit",
      "Modality": "MR",
      "NumberOfAverages": 1.0,
      "NumberOfPhaseEncodingSteps": 104,
      "PercentPhaseFieldOfView": 100.0,
      "PercentSampling": 100.0,
      "PerformedProcedureStepStartTime": "100812.613000",
      "PhotometricInterpretation": "MONOCHROME2",
      "PixelBandwidth": 2290.0,
      "PixelRepresentation": 0,
      "PixelSpacing": [2.0, 2.0],
      "ProtocolName": "func_task-friends-s07e17a",
      "RepetitionTime": 1490.0,
      "Rows": 832,
      "SAR": 0.04177928047712,
      "SamplesPerPixel": 1,
      "ScanOptions": "FS",
      "ScanningSequence": "EP",
      "SequenceName": "epfid2d1_104",
      "SequenceVariant": [
        "SK",
        "SS"
],
      "SeriesDescription": "func_task-friends-s07e17a",
      "SeriesNumber": 10,
      "SeriesTime": "101309.615000",
      "SliceLocation": -42.701223543721,
      "SliceThickness": 2.0,
      "SmallestImagePixelValue": 0,
      "SoftwareVersions": "syngo MR E11",
      "SpacingBetweenSlices": 1.999999974391,
      "SpecificCharacterSet": "ISO_IR 100",
      "StudyID": "1",
      "StudyTime": "100812.539000",
      "TransmitCoilName": "Body",
      "VariableFlipAngleFlag": "N",
      "WindowCenterWidthExplanation": "Algo1",
      "dBdt": 0.0},
    "slices": {}
  },
  "time": {
    "samples": {
      "AcquisitionNumber": [1, 2, 3, 4, 5, 6, 7, 8, 9, 10, 11, 12, 13, 14, 15, 16, 17, 18, 19, 20, 21, 22, 23, 24, 25, 26, 27, 28, 29, 30, 31, 32, 33, 34, 35, 36, 37, 38, 39, 40, 41, 42, 43, 44, 45, 46, 47, 48, 49, 50, 51, 52, 53, 54, 55, 56, 57, 58, 59, 60, 61, 62, 63, 64, 65, 66, 67, 68, 69, 70, 71, 72, 73, 74, 75, 76, 77, 78, 79, 80, 81, 82, 83, 84, 85, 86, 87, 88, 89, 90, 91, 92, 93, 94, 95, 96, 97, 98, 99, 100, 101, 102, 103, 104, 105, 106, 107, 108, 109, 110, 111, 112, 113, 114, 115, 116, 117, 118, 119, 120, 121, 122, 123, 124, 125, 126, 127, 128, 129, 130, 131, 132, 133, 134, 135, 136, 137, 138, 139, 140, 141, 142, 143, 144, 145, 146, 147, 148, 149, 150, 151, 152, 153, 154, 155, 156, 157, 158, 159, 160, 161, 162, 163, 164, 165, 166, 167, 168, 169, 170, 171, 172, 173, 174, 175, 176, 177, 178, 179, 180, 181, 182, 183, 184, 185, 186, 187, 188, 189, 190, 191, 192, 193, 194, 195, 196, 197, 198, 199, 200, 201, 202, 203, 204, 205, 206, 207, 208, 209, 210, 211, 212, 213, 214, 215, 216, 217, 218, 219, 220, 221, 222, 223, 224, 225, 226, 227, 228, 229, 230, 231, 232, 233, 234, 235, 236, 237, 238, 239, 240, 241, 242, 243, 244, 245, 246, 247, 248, 249, 250, 251, 252, 253, 254, 255, 256, 257, 258, 259, 260, 261, 262, 263, 264, 265, 266, 267, 268, 269, 270, 271, 272, 273, 274, 275, 276, 277, 278, 279, 280, 281, 282, 283, 284, 285, 286, 287, 288, 289, 290, 291, 292, 293, 294, 295, 296, 297, 298, 299, 300, 301, 302, 303, 304, 305, 306, 307, 308, 309, 310, 311, 312, 313, 314, 315, 316, 317, 318, 319, 320, 321, 322, 323, 324, 325, 326, 327, 328, 329, 330, 331, 332, 333, 334, 335, 336, 337, 338, 339, 340, 341, 342, 343, 344, 345, 346, 347, 348, 349, 350, 351, 352, 353, 354, 355, 356, 357, 358, 359, 360, 361, 362, 363, 364, 365, 366, 367, 368, 369, 370, 371, 372, 373, 374, 375, 376, 377, 378, 379, 380, 381, 382, 383, 384, 385, 386, 387, 388, 389, 390, 391, 392, 393, 394, 395, 396, 397, 398, 399, 400, 401, 402, 403, 404, 405, 406, 407, 408, 409, 410, 411, 412, 413, 414, 415, 416, 417, 418, 419, 420, 421, 422, 423, 424, 425, 426, 427, 428, 429, 430, 431, 432, 433],
      "AcquisitionTime": ["101214.722500", "101216.212500", "101217.702500", "101219.192500", "101220.682500", "101222.172500", "101223.662500", "101225.152500", "101226.642500", "101228.132500", "101229.622500", "101231.112500", "101232.602500", "101234.092500", "101235.582500", "101237.072500", "101238.562500", "101240.052500", "101241.542500", "101243.032500", "101244.522500", "101246.012500", "101247.502500", "101248.992500", "101250.482500", "101251.972500", "101253.462500", "101254.952500", "101256.442500", "101257.932500", "101259.422500", "101300.912500", "101302.402500", "101303.892500", "101305.382500", "101306.872500", "101308.362500", "101309.852500", "101311.342500", "101312.832500", "101314.322500", "101315.812500", "101317.302500", "101318.792500", "101320.282500", "101321.772500", "101323.262500", "101324.752500", "101326.242500", "101327.732500", "101329.222500", "101330.712500", "101332.202500", "101333.692500", "101335.182500", "101336.672500", "101338.162500", "101339.652500", "101341.142500", "101342.632500", "101344.122500", "101345.612500", "101347.102500", "101348.592500", "101350.082500", "101351.572500", "101353.062500", "101354.552500", "101356.042500", "101357.532500", "101359.022500", "101400.512500", "101402.002500", "101403.492500", "101404.982500", "101406.472500", "101407.962500", "101409.452500", "101410.942500", "101412.432500", "101413.922500", "101415.412500", "101416.902500", "101418.392500", "101419.882500", "101421.372500", "101422.862500", "101424.352500", "101425.842500", "101427.332500", "101428.822500", "101430.312500", "101431.802500", "101433.292500", "101434.782500", "101436.272500", "101437.762500", "101439.252500", "101440.742500", "101442.232500", "101443.722500", "101445.212500", "101446.702500", "101448.192500", "101449.682500", "101451.172500", "101452.662500", "101454.152500", "101455.642500", "101457.132500", "101458.622500", "101500.112500", "101501.602500", "101503.092500", "101504.582500", "101506.072500", "101507.562500", "101509.052500", "101510.542500", "101512.032500", "101513.522500", "101515.012500", "101516.502500", "101517.992500", "101519.482500", "101520.972500", "101522.462500", "101523.952500", "101525.442500", "101526.932500", "101528.422500", "101529.912500", "101531.402500", "101532.892500", "101534.382500", "101535.872500", "101537.362500", "101538.852500", "101540.342500", "101541.832500", "101543.322500", "101544.812500", "101546.302500", "101547.792500", "101549.282500", "101550.772500", "101552.262500", "101553.752500", "101555.242500", "101556.732500", "101558.222500", "101559.712500", "101601.202500", "101602.692500", "101604.182500", "101605.672500", "101607.162500", "101608.652500", "101610.142500", "101611.632500", "101613.122500", "101614.612500", "101616.102500", "101617.592500", "101619.082500", "101620.572500", "101622.062500", "101623.552500", "101625.042500", "101626.532500", "101628.022500", "101629.512500", "101631.002500", "101632.492500", "101633.982500", "101635.472500", "101636.962500", "101638.452500", "101639.942500", "101641.432500", "101642.922500", "101644.412500", "101645.902500", "101647.392500", "101648.882500", "101650.372500", "101651.862500", "101653.352500", "101654.842500", "101656.332500", "101657.822500", "101659.312500", "101700.802500", "101702.292500", "101703.782500", "101705.272500", "101706.762500", "101708.252500", "101709.742500", "101711.232500", "101712.722500", "101714.212500", "101715.702500", "101717.192500", "101718.682500", "101720.172500", "101721.662500", "101723.152500", "101724.642500", "101726.132500", "101727.622500", "101729.112500", "101730.602500", "101732.092500", "101733.582500", "101735.072500", "101736.562500", "101738.052500", "101739.542500", "101741.032500", "101742.522500", "101744.012500", "101745.502500", "101746.992500", "101748.482500", "101749.972500", "101751.462500", "101752.952500", "101754.442500", "101755.932500", "101757.422500", "101758.912500", "101800.402500", "101801.892500", "101803.382500", "101804.872500", "101806.362500", "101807.852500", "101809.342500", "101810.832500", "101812.322500", "101813.812500", "101815.302500", "101816.792500", "101818.282500", "101819.772500", "101821.262500", "101822.752500", "101824.242500", "101825.732500", "101827.222500", "101828.712500", "101830.202500", "101831.692500", "101833.182500", "101834.672500", "101836.162500", "101837.652500", "101839.142500", "101840.632500", "101842.122500", "101843.612500", "101845.102500", "101846.592500", "101848.082500", "101849.572500", "101851.062500", "101852.552500", "101854.042500", "101855.532500", "101857.022500", "101858.512500", "101900.002500", "101901.492500", "101902.982500", "101904.472500", "101905.962500", "101907.452500", "101908.942500", "101910.432500", "101911.922500", "101913.412500", "101914.902500", "101916.392500", "101917.882500", "101919.372500", "101920.862500", "101922.352500", "101923.842500", "101925.332500", "101926.822500", "101928.312500", "101929.802500", "101931.292500", "101932.782500", "101934.272500", "101935.762500", "101937.252500", "101938.742500", "101940.232500", "101941.722500", "101943.212500", "101944.702500", "101946.192500", "101947.682500", "101949.172500", "101950.662500", "101952.152500", "101953.642500", "101955.132500", "101956.622500", "101958.112500", "101959.602500", "102001.092500", "102002.582500", "102004.072500", "102005.562500", "102007.052500", "102008.542500", "102010.032500", "102011.522500", "102013.012500", "102014.502500", "102015.992500", "102017.482500", "102018.972500", "102020.462500", "102021.952500", "102023.442500", "102024.932500", "102026.422500", "102027.912500", "102029.402500", "102030.892500", "102032.382500", "102033.872500", "102035.362500", "102036.852500", "102038.342500", "102039.832500", "102041.322500", "102042.812500", "102044.302500", "102045.792500", "102047.282500", "102048.772500", "102050.262500", "102051.752500", "102053.242500", "102054.732500", "102056.222500", "102057.712500", "102059.202500", "102100.692500", "102102.182500", "102103.672500", "102105.162500", "102106.652500", "102108.142500", "102109.632500", "102111.122500", "102112.612500", "102114.102500", "102115.592500", "102117.082500", "102118.572500", "102120.062500", "102121.552500", "102123.042500", "102124.532500", "102126.022500", "102127.512500", "102129.002500", "102130.492500", "102131.982500", "102133.472500", "102134.962500", "102136.452500", "102137.942500", "102139.432500", "102140.922500", "102142.412500", "102143.902500", "102145.392500", "102146.882500", "102148.372500", "102149.862500", "102151.352500", "102152.842500", "102154.332500", "102155.822500", "102157.312500", "102158.802500", "102200.292500", "102201.782500", "102203.272500", "102204.762500", "102206.252500", "102207.742500", "102209.232500", "102210.722500", "102212.212500", "102213.702500", "102215.192500", "102216.682500", "102218.172500", "102219.662500", "102221.152500", "102222.642500", "102224.132500", "102225.622500", "102227.112500", "102228.602500", "102230.092500", "102231.582500", "102233.072500", "102234.562500", "102236.052500", "102237.542500", "102239.032500", "102240.522500", "102242.012500", "102243.502500", "102244.992500", "102246.482500", "102247.972500", "102249.462500", "102250.952500", "102252.442500", "102253.932500", "102255.422500", "102256.912500", "102258.402500"],
      "ContentTime": ["101309.618000", "101309.622000", "101309.625000", "101309.641000", "101309.644000", "101309.647000", "101309.650000", "101329.589000", "101329.592000", "101329.595000", "101329.598000", "101329.605000", "101329.608000", "101329.611000", "101329.618000", "101329.621000", "101329.624000", "101329.627000", "101329.630000", "101329.633000", "101329.636000", "101329.639000", "101329.642000", "101329.645000", "101329.648000", "101329.651000", "101329.654000", "101349.589000", "101349.592000", "101349.595000", "101349.598000", "101349.622000", "101349.625000", "101349.633000", "101349.636000", "101349.639000", "101349.642000", "101349.645000", "101349.648000", "101349.651000", "101349.654000", "101349.657000", "101349.660000", "101349.663000", "101349.666000", "101349.669000", "101349.671000", "101409.588000", "101409.591000", "101409.594000", "101409.597000", "101409.600000", "101409.603000", "101409.606000", "101409.609000", "101409.612000", "101409.615000", "101409.618000", "101409.621000", "101409.624000", "101409.627000", "101409.630000", "101409.633000", "101409.641000", "101409.644000", "101409.647000", "101409.650000", "101409.653000", "101429.588000", "101429.591000", "101429.594000", "101429.597000", "101429.600000", "101429.603000", "101429.606000", "101429.608000", "101429.611000", "101429.614000", "101429.617000", "101429.621000", "101429.623000", "101429.626000", "101429.629000", "101429.632000", "101429.635000", "101429.638000", "101429.641000", "101429.650000", "101509.589000", "101509.592000", "101509.595000", "101509.598000", "101509.614000", "101509.617000", "101509.620000", "101509.630000", "101509.633000", "101509.636000", "101509.639000", "101509.642000", "101509.645000", "101509.648000", "101509.651000", "101509.654000", "101509.657000", "101509.660000", "101509.663000", "101509.666000", "101509.669000", "101509.672000", "101509.675000", "101509.677000", "101509.680000", "101509.683000", "101509.686000", "101509.689000", "101549.589000", "101549.592000", "101549.595000", "101549.598000", "101549.601000", "101549.604000", "101549.607000", "101549.610000", "101549.613000", "101549.616000", "101549.619000", "101549.622000", "101549.625000", "101549.628000", "101549.631000", "101549.634000", "101549.637000", "101549.640000", "101549.642000", "101549.645000", "101549.648000", "101549.651000", "101549.654000", "101549.657000", "101549.660000", "101549.663000", "101549.666000", "101629.588000", "101629.591000", "101629.594000", "101629.597000", "101629.600000", "101629.603000", "101629.606000", "101629.609000", "101629.612000", "101629.615000", "101629.618000", "101629.621000", "101629.624000", "101629.627000", "101629.630000", "101629.633000", "101629.636000", "101629.639000", "101629.642000", "101629.645000", "101629.648000", "101629.651000", "101629.654000", "101629.657000", "101629.659000", "101629.662000", "101629.665000", "101709.589000", "101709.592000", "101709.595000", "101709.598000", "101709.601000", "101709.604000", "101709.607000", "101709.610000", "101709.613000", "101709.616000", "101709.619000", "101709.622000", "101709.625000", "101709.628000", "101709.631000", "101709.634000", "101709.636000", "101709.640000", "101709.642000", "101709.645000", "101709.648000", "101709.651000", "101709.654000", "101709.657000", "101709.660000", "101709.663000", "101709.666000", "101749.589000", "101749.592000", "101749.595000", "101749.598000", "101749.601000", "101749.604000", "101749.607000", "101749.610000", "101749.613000", "101749.616000", "101749.619000", "101749.622000", "101749.625000", "101749.628000", "101749.631000", "101749.633000", "101749.636000", "101749.639000", "101749.642000", "101749.645000", "101749.648000", "101749.651000", "101749.654000", "101749.657000", "101749.660000", "101749.663000", "101749.666000", "101829.589000", "101829.592000", "101829.595000", "101829.598000", "101829.601000", "101829.604000", "101829.607000", "101829.610000", "101829.613000", "101829.616000", "101829.619000", "101829.622000", "101829.625000", "101829.627000", "101829.630000", "101829.633000", "101829.636000", "101829.639000", "101829.642000", "101829.645000", "101829.648000", "101829.651000", "101829.654000", "101829.657000", "101829.660000", "101829.663000", "101829.666000", "101909.588000", "101909.591000", "101909.594000", "101909.597000", "101909.600000", "101909.604000", "101909.607000", "101909.610000", "101909.613000", "101909.616000", "101909.619000", "101909.622000", "101909.625000", "101909.628000", "101909.631000", "101909.634000", "101909.637000", "101909.640000", "101909.643000", "101909.646000", "101909.649000", "101909.652000", "101909.655000", "101909.658000", "101909.670000", "101909.673000", "101949.589000", "101949.592000", "101949.595000", "101949.598000", "101949.614000", "101949.617000", "101949.620000", "101949.623000", "101949.626000", "101949.629000", "101949.632000", "101949.635000", "101949.638000", "101949.641000", "101949.643000", "101949.646000", "101949.649000", "101949.652000", "101949.655000", "101949.658000", "101949.661000", "101949.664000", "101949.667000", "101949.670000", "101949.673000", "101949.676000", "101949.679000", "102029.589000", "102029.592000", "102029.595000", "102029.598000", "102029.601000", "102029.604000", "102029.607000", "102029.610000", "102029.613000", "102029.616000", "102029.619000", "102029.622000", "102029.625000", "102029.628000", "102029.631000", "102029.634000", "102029.637000", "102029.640000", "102029.642000", "102029.645000", "102029.648000", "102029.652000", "102029.654000", "102029.657000", "102029.669000", "102029.672000", "102029.675000", "102049.589000", "102049.592000", "102049.595000", "102049.598000", "102049.601000", "102049.604000", "102049.607000", "102049.610000", "102049.613000", "102049.616000", "102049.619000", "102049.622000", "102049.625000", "102049.627000", "102129.588000", "102129.591000", "102129.594000", "102129.597000", "102129.600000", "102129.603000", "102129.606000", "102129.609000", "102129.612000", "102129.615000", "102129.618000", "102129.621000", "102129.624000", "102129.627000", "102129.630000", "102129.633000", "102129.636000", "102129.639000", "102129.642000", "102129.645000", "102129.648000", "102129.650000", "102129.653000", "102129.656000", "102129.660000", "102129.664000", "102209.589000", "102209.592000", "102209.595000", "102209.598000", "102209.602000", "102209.605000", "102209.608000", "102209.611000", "102209.614000", "102209.617000", "102209.620000", "102209.623000", "102209.626000", "102209.629000", "102209.632000", "102209.635000", "102209.638000", "102209.641000", "102209.644000", "102209.647000", "102209.650000", "102209.653000", "102209.656000", "102209.658000", "102209.661000", "102209.664000", "102209.667000", "102249.589000", "102249.592000", "102249.595000", "102249.598000", "102249.601000", "102249.604000", "102249.607000", "102249.610000", "102249.613000", "102249.616000", "102249.619000", "102249.622000", "102249.625000", "102249.628000", "102249.631000", "102249.634000", "102249.637000", "102249.640000", "102249.643000", "102249.646000", "102249.649000", "102249.652000", "102249.655000", "102249.658000", "102249.661000", "102249.664000", "102249.667000", "102300.619000", "102300.622000", "102300.625000", "102300.628000", "102300.631000", "102300.634000", "102300.637000", "102300.640000"],
      "InstanceCreationTime": ["101309.618000", "101309.622000", "101309.625000", "101309.641000", "101309.644000", "101309.647000", "101309.650000", "101329.589000", "101329.592000", "101329.595000", "101329.598000", "101329.605000", "101329.608000", "101329.611000", "101329.618000", "101329.621000", "101329.624000", "101329.627000", "101329.630000", "101329.633000", "101329.636000", "101329.639000", "101329.642000", "101329.645000", "101329.648000", "101329.651000", "101329.654000", "101349.589000", "101349.592000", "101349.595000", "101349.598000", "101349.622000", "101349.625000", "101349.633000", "101349.636000", "101349.639000", "101349.642000", "101349.645000", "101349.648000", "101349.651000", "101349.654000", "101349.657000", "101349.660000", "101349.663000", "101349.666000", "101349.669000", "101349.671000", "101409.588000", "101409.591000", "101409.594000", "101409.597000", "101409.600000", "101409.603000", "101409.606000", "101409.609000", "101409.612000", "101409.615000", "101409.618000", "101409.621000", "101409.624000", "101409.627000", "101409.630000", "101409.633000", "101409.641000", "101409.644000", "101409.647000", "101409.650000", "101409.653000", "101429.588000", "101429.591000", "101429.594000", "101429.597000", "101429.600000", "101429.603000", "101429.606000", "101429.608000", "101429.611000", "101429.614000", "101429.617000", "101429.621000", "101429.623000", "101429.626000", "101429.629000", "101429.632000", "101429.635000", "101429.638000", "101429.641000", "101429.650000", "101509.589000", "101509.592000", "101509.595000", "101509.598000", "101509.614000", "101509.617000", "101509.620000", "101509.630000", "101509.633000", "101509.636000", "101509.639000", "101509.642000", "101509.645000", "101509.648000", "101509.651000", "101509.654000", "101509.657000", "101509.660000", "101509.663000", "101509.666000", "101509.669000", "101509.672000", "101509.675000", "101509.677000", "101509.680000", "101509.683000", "101509.686000", "101509.689000", "101549.589000", "101549.592000", "101549.595000", "101549.598000", "101549.601000", "101549.604000", "101549.607000", "101549.610000", "101549.613000", "101549.616000", "101549.619000", "101549.622000", "101549.625000", "101549.628000", "101549.631000", "101549.634000", "101549.637000", "101549.640000", "101549.642000", "101549.645000", "101549.648000", "101549.651000", "101549.654000", "101549.657000", "101549.660000", "101549.663000", "101549.666000", "101629.588000", "101629.591000", "101629.594000", "101629.597000", "101629.600000", "101629.603000", "101629.606000", "101629.609000", "101629.612000", "101629.615000", "101629.618000", "101629.621000", "101629.624000", "101629.627000", "101629.630000", "101629.633000", "101629.636000", "101629.639000", "101629.642000", "101629.645000", "101629.648000", "101629.651000", "101629.654000", "101629.657000", "101629.659000", "101629.662000", "101629.665000", "101709.589000", "101709.592000", "101709.595000", "101709.598000", "101709.601000", "101709.604000", "101709.607000", "101709.610000", "101709.613000", "101709.616000", "101709.619000", "101709.622000", "101709.625000", "101709.628000", "101709.631000", "101709.634000", "101709.636000", "101709.640000", "101709.642000", "101709.645000", "101709.648000", "101709.651000", "101709.654000", "101709.657000", "101709.660000", "101709.663000", "101709.666000", "101749.589000", "101749.592000", "101749.595000", "101749.598000", "101749.601000", "101749.604000", "101749.607000", "101749.610000", "101749.613000", "101749.616000", "101749.619000", "101749.622000", "101749.625000", "101749.628000", "101749.631000", "101749.633000", "101749.636000", "101749.639000", "101749.642000", "101749.645000", "101749.648000", "101749.651000", "101749.654000", "101749.657000", "101749.660000", "101749.663000", "101749.666000", "101829.589000", "101829.592000", "101829.595000", "101829.598000", "101829.601000", "101829.604000", "101829.607000", "101829.610000", "101829.613000", "101829.616000", "101829.619000", "101829.622000", "101829.625000", "101829.627000", "101829.630000", "101829.633000", "101829.636000", "101829.639000", "101829.642000", "101829.645000", "101829.648000", "101829.651000", "101829.654000", "101829.657000", "101829.660000", "101829.663000", "101829.666000", "101909.588000", "101909.591000", "101909.594000", "101909.597000", "101909.600000", "101909.604000", "101909.607000", "101909.610000", "101909.613000", "101909.616000", "101909.619000", "101909.622000", "101909.625000", "101909.628000", "101909.631000", "101909.634000", "101909.637000", "101909.640000", "101909.643000", "101909.646000", "101909.649000", "101909.652000", "101909.655000", "101909.658000", "101909.670000", "101909.673000", "101949.589000", "101949.592000", "101949.595000", "101949.598000", "101949.614000", "101949.617000", "101949.620000", "101949.623000", "101949.626000", "101949.629000", "101949.632000", "101949.635000", "101949.638000", "101949.641000", "101949.643000", "101949.646000", "101949.649000", "101949.652000", "101949.655000", "101949.658000", "101949.661000", "101949.664000", "101949.667000", "101949.670000", "101949.673000", "101949.676000", "101949.679000", "102029.589000", "102029.592000", "102029.595000", "102029.598000", "102029.601000", "102029.604000", "102029.607000", "102029.610000", "102029.613000", "102029.616000", "102029.619000", "102029.622000", "102029.625000", "102029.628000", "102029.631000", "102029.634000", "102029.637000", "102029.640000", "102029.642000", "102029.645000", "102029.648000", "102029.652000", "102029.654000", "102029.657000", "102029.669000", "102029.672000", "102029.675000", "102049.589000", "102049.592000", "102049.595000", "102049.598000", "102049.601000", "102049.604000", "102049.607000", "102049.610000", "102049.613000", "102049.616000", "102049.619000", "102049.622000", "102049.625000", "102049.627000", "102129.588000", "102129.591000", "102129.594000", "102129.597000", "102129.600000", "102129.603000", "102129.606000", "102129.609000", "102129.612000", "102129.615000", "102129.618000", "102129.621000", "102129.624000", "102129.627000", "102129.630000", "102129.633000", "102129.636000", "102129.639000", "102129.642000", "102129.645000", "102129.648000", "102129.650000", "102129.653000", "102129.656000", "102129.660000", "102129.664000", "102209.589000", "102209.592000", "102209.595000", "102209.598000", "102209.602000", "102209.605000", "102209.608000", "102209.611000", "102209.614000", "102209.617000", "102209.620000", "102209.623000", "102209.626000", "102209.629000", "102209.632000", "102209.635000", "102209.638000", "102209.641000", "102209.644000", "102209.647000", "102209.650000", "102209.653000", "102209.656000", "102209.658000", "102209.661000", "102209.664000", "102209.667000", "102249.589000", "102249.592000", "102249.595000", "102249.598000", "102249.601000", "102249.604000", "102249.607000", "102249.610000", "102249.613000", "102249.616000", "102249.619000", "102249.622000", "102249.625000", "102249.628000", "102249.631000", "102249.634000", "102249.637000", "102249.640000", "102249.643000", "102249.646000", "102249.649000", "102249.652000", "102249.655000", "102249.658000", "102249.661000", "102249.664000", "102249.667000", "102300.619000", "102300.622000", "102300.625000", "102300.628000", "102300.631000", "102300.634000", "102300.637000", "102300.640000"],
