{
  "AcquisitionMatrixPE": 104,
  "AcquisitionNumber": 1,
  "AcquisitionTime": "10:27:8.565000",
  "BandwidthPerPixelPhaseEncode": 17.17,
  "BaseResolution": 104,
  "BodyPartExamined": "BRAIN",
  "CoilString": "HC1-7;NC1_2",
  "ConsistencyInfo": "N4_VE11C_LATEST_20160120",
  "ConversionSoftware": "dcm2niix",
  "ConversionSoftwareVersion": "v1.0.20190720  (JP2:OpenJPEG) GCC7.3.0",
  "DerivedVendorReportedEchoSpacing": 0.000560011,
  "DeviceSerialNumber": "167006",
  "DwellTime": 2.1e-06,
  "EchoTime": 0.037,
  "EchoTrainLength": 104,
  "EffectiveEchoSpacing": 0.000560011,
  "FlipAngle": 52,
  "ImageComments": "Unaliased_MB4_PE3_LB",
  "ImageOrientationPatientDICOM": [0.998163, -0.00660189, -0.0602188, -0.00540062, 0.980389, -0.197],
  "ImageType": [
    "ORIGINAL",
    "PRIMARY",
    "M",
    "MB",
    "ND",
    "MOSAIC"
],
  "ImagingFrequency": 123.259,
  "InPlanePhaseEncodingDirectionDICOM": "COL",
  "InstitutionAddress": "Chemin_Queen-Mary_4565_Montreal_District_CA_H3W_1W5",
  "InstitutionName": "IUGM",
  "InstitutionalDepartmentName": "Department",
  "MRAcquisitionType": "2D",
  "MagneticFieldStrength": 3,
  "Manufacturer": "Siemens",
  "ManufacturersModelName": "Prisma_fit",
  "Modality": "MR",
  "MultibandAccelerationFactor": 4,
  "PartialFourier": 1,
  "PatientPosition": "HFS",
  "PercentPhaseFOV": 100,
  "PhaseEncodingDirection": "j",
  "PhaseEncodingSteps": 104,
  "PhaseResolution": 1,
  "PixelBandwidth": 2290,
  "ProcedureStepDescription": "video_friends",
  "ProtocolName": "func_task-friends-s01e15b",
  "PulseSequenceDetails": "%CustomerSeq%_cmrr_mbep2d_bold",
  "ReceiveCoilActiveElements": "HC1-7;NC1,2",
  "ReceiveCoilName": "HeadNeck_64",
  "ReconMatrixPE": 104,
  "RepetitionTime": 1.49,
  "SAR": 0.0326459,
  "ScanOptions": "FS",
  "ScanningSequence": "EP",
  "SequenceName": "epfid2d1_104",
  "SequenceVariant": "SK_SS",
  "SeriesDescription": "func_task-friends-s01e15b",
  "SeriesNumber": 17,
  "ShimSetting": [597, -7263, -8816, 593, -62, -320, 49, 54],
  "SliceThickness": 2,
  "SliceTiming": [0, 0.7825, 0.0975, 0.88, 0.195, 0.98, 0.2925, 1.0775, 0.39, 1.175, 0.49, 1.2725, 0.5875, 1.37, 0.685, 0, 0.7825, 0.0975, 0.88, 0.195, 0.98, 0.2925, 1.0775, 0.39, 1.175, 0.49, 1.2725, 0.5875, 1.37, 0.685, 0, 0.7825, 0.0975, 0.88, 0.195, 0.98, 0.2925, 1.0775, 0.39, 1.175, 0.49, 1.2725, 0.5875, 1.37, 0.685, 0, 0.7825, 0.0975, 0.88, 0.195, 0.98, 0.2925, 1.0775, 0.39, 1.175, 0.49, 1.2725, 0.5875, 1.37, 0.685],
  "SoftwareVersions": "syngo_MR_E11",
  "SpacingBetweenSlices": 2,
  "StationName": "MRC35049",
  "TaskName": "friends",
  "TotalReadoutTime": 0.0576811,
  "TxRefAmp": 215.499,
  "WipMemBlock": "fa478a01-fbe3-4d36-86b1-cf43a314377e||Sequence: R016 ve11c/master r/e634e98; Dec 19 2017 11:00:25 by eja",
  "dcmmeta_affine": [
    [-1.9963266849517822, -0.010801248252391815, -0.12067675590515137, 102.39408111572266],
    [0.013203781098127365, 1.9607770442962646, -0.39392760396003723, -84.41083526611328],
    [-0.12043756246566772, 0.394000768661499, 1.9571045637130737, -40.86989212036133],
    [0.0, 0.0, 0.0, 1.0]
],
  "dcmmeta_reorient_transform": [
    [0.0, -1.0, 0.0, 103.0],
    [1.0, 0.0, 0.0, 0.0],
    [0.0, 0.0, 1.0, 0.0],
    [0.0, 0.0, 0.0, 1.0]
],
  "dcmmeta_shape": [104, 104, 60, 477],
  "dcmmeta_slice_dim": 2,
  "dcmmeta_version": 0.6,
  "global": {
    "const": {
      "AcquisitionMatrix": [104, 0, 0, 104],
      "AngioFlag": "N",
      "BitsAllocated": 16,
      "BitsStored": 16,
      "BodyPartExamined": "BRAIN",
      "Columns": 832,
      "EchoNumbers": 1,
      "EchoTime": 37.0,
      "EchoTrainLength": 104,
      "FlipAngle": 52.0,
      "HighBit": 15,
      "ImageOrientationPatient": [0.9981633702145, -0.0066018907482, -0.0602187794677, -0.0054006240885, 0.98038853469379, -0.197000391625],
      "ImagePositionPatient": [-824.01283393619, -826.46588220239, 186.96774561277],
      "ImageType": [
        "ORIGINAL",
        "PRIMARY",
        "M",
        "MB",
        "ND",
        "MOSAIC"
],
      "ImagedNucleus": "1H",
      "ImagingFrequency": 123.259108,
      "InPlanePhaseEncodingDirection": "COL",
      "MRAcquisitionType": "2D",
      "MagneticFieldStrength": 3.0,
      "Manufacturer": "SIEMENS",
      "ManufacturerModelName": "Prisma_fit",
      "Modality": "MR",
      "NumberOfAverages": 1.0,
      "NumberOfPhaseEncodingSteps": 104,
      "PercentPhaseFieldOfView": 100.0,
      "PercentSampling": 100.0,
      "PerformedProcedureStepStartTime": "094257.070000",
      "PhotometricInterpretation": "MONOCHROME2",
      "PixelBandwidth": 2290.0,
      "PixelRepresentation": 0,
      "PixelSpacing": [2.0, 2.0],
      "ProtocolName": "func_task-friends-s01e15b",
      "RepetitionTime": 1490.0,
      "Rows": 832,
      "SAR": 0.03264594351074,
      "SamplesPerPixel": 1,
      "ScanOptions": "FS",
      "ScanningSequence": "EP",
      "SequenceName": "epfid2d1_104",
      "SequenceVariant": [
        "SK",
        "SS"
],
      "SeriesDescription": "func_task-friends-s01e15b",
      "SeriesNumber": 17,
      "SeriesTime": "102824.875000",
      "SliceLocation": -29.545740045736,
      "SliceThickness": 2.0,
      "SmallestImagePixelValue": 0,
      "SoftwareVersions": "syngo MR E11",
      "SpacingBetweenSlices": 2.0000000230077,
      "SpecificCharacterSet": "ISO_IR 100",
      "StudyID": "1",
      "StudyTime": "094256.899000",
      "TransmitCoilName": "Body",
      "VariableFlipAngleFlag": "N",
      "WindowCenterWidthExplanation": "Algo1",
      "dBdt": 0.0},
    "slices": {}
  },
  "time": {
    "samples": {
      "AcquisitionNumber": [1, 2, 3, 4, 5, 6, 7, 8, 9, 10, 11, 12, 13, 14, 15, 16, 17, 18, 19, 20, 21, 22, 23, 24, 25, 26, 27, 28, 29, 30, 31, 32, 33, 34, 35, 36, 37, 38, 39, 40, 41, 42, 43, 44, 45, 46, 47, 48, 49, 50, 51, 52, 53, 54, 55, 56, 57, 58, 59, 60, 61, 62, 63, 64, 65, 66, 67, 68, 69, 70, 71, 72, 73, 74, 75, 76, 77, 78, 79, 80, 81, 82, 83, 84, 85, 86, 87, 88, 89, 90, 91, 92, 93, 94, 95, 96, 97, 98, 99, 100, 101, 102, 103, 104, 105, 106, 107, 108, 109, 110, 111, 112, 113, 114, 115, 116, 117, 118, 119, 120, 121, 122, 123, 124, 125, 126, 127, 128, 129, 130, 131, 132, 133, 134, 135, 136, 137, 138, 139, 140, 141, 142, 143, 144, 145, 146, 147, 148, 149, 150, 151, 152, 153, 154, 155, 156, 157, 158, 159, 160, 161, 162, 163, 164, 165, 166, 167, 168, 169, 170, 171, 172, 173, 174, 175, 176, 177, 178, 179, 180, 181, 182, 183, 184, 185, 186, 187, 188, 189, 190, 191, 192, 193, 194, 195, 196, 197, 198, 199, 200, 201, 202, 203, 204, 205, 206, 207, 208, 209, 210, 211, 212, 213, 214, 215, 216, 217, 218, 219, 220, 221, 222, 223, 224, 225, 226, 227, 228, 229, 230, 231, 232, 233, 234, 235, 236, 237, 238, 239, 240, 241, 242, 243, 244, 245, 246, 247, 248, 249, 250, 251, 252, 253, 254, 255, 256, 257, 258, 259, 260, 261, 262, 263, 264, 265, 266, 267, 268, 269, 270, 271, 272, 273, 274, 275, 276, 277, 278, 279, 280, 281, 282, 283, 284, 285, 286, 287, 288, 289, 290, 291, 292, 293, 294, 295, 296, 297, 298, 299, 300, 301, 302, 303, 304, 305, 306, 307, 308, 309, 310, 311, 312, 313, 314, 315, 316, 317, 318, 319, 320, 321, 322, 323, 324, 325, 326, 327, 328, 329, 330, 331, 332, 333, 334, 335, 336, 337, 338, 339, 340, 341, 342, 343, 344, 345, 346, 347, 348, 349, 350, 351, 352, 353, 354, 355, 356, 357, 358, 359, 360, 361, 362, 363, 364, 365, 366, 367, 368, 369, 370, 371, 372, 373, 374, 375, 376, 377, 378, 379, 380, 381, 382, 383, 384, 385, 386, 387, 388, 389, 390, 391, 392, 393, 394, 395, 396, 397, 398, 399, 400, 401, 402, 403, 404, 405, 406, 407, 408, 409, 410, 411, 412, 413, 414, 415, 416, 417, 418, 419, 420, 421, 422, 423, 424, 425, 426, 427, 428, 429, 430, 431, 432, 433, 434, 435, 436, 437, 438, 439, 440, 441, 442, 443, 444, 445, 446, 447, 448, 449, 450, 451, 452, 453, 454, 455, 456, 457, 458, 459, 460, 461, 462, 463, 464, 465, 466, 467, 468, 469, 470, 471, 472, 473, 474, 475, 476, 477],
      "AcquisitionTime": ["102708.565000", "102710.055000", "102711.545000", "102713.035000", "102714.525000", "102716.015000", "102717.505000", "102718.995000", "102720.485000", "102721.975000", "102723.465000", "102724.955000", "102726.445000", "102727.935000", "102729.425000", "102730.915000", "102732.405000", "102733.895000", "102735.385000", "102736.875000", "102738.365000", "102739.855000", "102741.345000", "102742.835000", "102744.325000", "102745.815000", "102747.305000", "102748.795000", "102750.285000", "102751.775000", "102753.265000", "102754.755000", "102756.245000", "102757.735000", "102759.225000", "102800.715000", "102802.205000", "102803.695000", "102805.185000", "102806.675000", "102808.165000", "102809.655000", "102811.145000", "102812.635000", "102814.125000", "102815.615000", "102817.105000", "102818.595000", "102820.085000", "102821.575000", "102823.065000", "102824.555000", "102826.045000", "102827.535000", "102829.025000", "102830.515000", "102832.005000", "102833.495000", "102834.985000", "102836.475000", "102837.965000", "102839.455000", "102840.945000", "102842.435000", "102843.925000", "102845.415000", "102846.905000", "102848.395000", "102849.885000", "102851.375000", "102852.865000", "102854.355000", "102855.845000", "102857.335000", "102858.825000", "102900.315000", "102901.805000", "102903.295000", "102904.785000", "102906.275000", "102907.765000", "102909.255000", "102910.745000", "102912.235000", "102913.725000", "102915.215000", "102916.705000", "102918.195000", "102919.685000", "102921.175000", "102922.665000", "102924.155000", "102925.645000", "102927.135000", "102928.625000", "102930.115000", "102931.605000", "102933.095000", "102934.585000", "102936.075000", "102937.565000", "102939.055000", "102940.545000", "102942.035000", "102943.525000", "102945.015000", "102946.505000", "102947.995000", "102949.485000", "102950.975000", "102952.465000", "102953.955000", "102955.445000", "102956.935000", "102958.425000", "102959.915000", "103001.405000", "103002.895000", "103004.385000", "103005.875000", "103007.365000", "103008.855000", "103010.345000", "103011.835000", "103013.325000", "103014.815000", "103016.305000", "103017.795000", "103019.285000", "103020.775000", "103022.265000", "103023.755000", "103025.245000", "103026.735000", "103028.225000", "103029.715000", "103031.205000", "103032.695000", "103034.185000", "103035.675000", "103037.165000", "103038.655000", "103040.145000", "103041.635000", "103043.125000", "103044.615000", "103046.105000", "103047.595000", "103049.085000", "103050.575000", "103052.065000", "103053.555000", "103055.045000", "103056.535000", "103058.025000", "103059.515000", "103101.005000", "103102.495000", "103103.985000", "103105.475000", "103106.965000", "103108.455000", "103109.945000", "103111.435000", "103112.925000", "103114.415000", "103115.905000", "103117.395000", "103118.885000", "103120.375000", "103121.865000", "103123.355000", "103124.845000", "103126.335000", "103127.825000", "103129.315000", "103130.805000", "103132.295000", "103133.785000", "103135.275000", "103136.765000", "103138.255000", "103139.745000", "103141.235000", "103142.725000", "103144.215000", "103145.705000", "103147.195000", "103148.685000", "103150.175000", "103151.665000", "103153.155000", "103154.645000", "103156.135000", "103157.625000", "103159.115000", "103200.605000", "103202.095000", "103203.585000", "103205.075000", "103206.565000", "103208.055000", "103209.545000", "103211.035000", "103212.525000", "103214.015000", "103215.505000", "103216.995000", "103218.485000", "103219.975000", "103221.465000", "103222.955000", "103224.445000", "103225.935000", "103227.425000", "103228.915000", "103230.405000", "103231.895000", "103233.385000", "103234.875000", "103236.365000", "103237.855000", "103239.345000", "103240.835000", "103242.325000", "103243.815000", "103245.305000", "103246.795000", "103248.285000", "103249.775000", "103251.265000", "103252.755000", "103254.245000", "103255.735000", "103257.225000", "103258.715000", "103300.205000", "103301.695000", "103303.185000", "103304.675000", "103306.165000", "103307.655000", "103309.145000", "103310.635000", "103312.125000", "103313.615000", "103315.105000", "103316.595000", "103318.085000", "103319.575000", "103321.065000", "103322.555000", "103324.045000", "103325.535000", "103327.025000", "103328.515000", "103330.005000", "103331.495000", "103332.985000", "103334.475000", "103335.965000", "103337.455000", "103338.945000", "103340.435000", "103341.925000", "103343.415000", "103344.905000", "103346.395000", "103347.885000", "103349.375000", "103350.865000", "103352.355000", "103353.845000", "103355.335000", "103356.825000", "103358.315000", "103359.805000", "103401.295000", "103402.785000", "103404.275000", "103405.765000", "103407.255000", "103408.745000", "103410.235000", "103411.725000", "103413.215000", "103414.705000", "103416.195000", "103417.685000", "103419.175000", "103420.665000", "103422.155000", "103423.645000", "103425.135000", "103426.625000", "103428.115000", "103429.605000", "103431.095000", "103432.585000", "103434.075000", "103435.565000", "103437.055000", "103438.545000", "103440.035000", "103441.525000", "103443.015000", "103444.505000", "103445.995000", "103447.485000", "103448.975000", "103450.465000", "103451.955000", "103453.445000", "103454.935000", "103456.425000", "103457.915000", "103459.405000", "103500.895000", "103502.385000", "103503.875000", "103505.365000", "103506.855000", "103508.345000", "103509.835000", "103511.325000", "103512.815000", "103514.305000", "103515.795000", "103517.285000", "103518.775000", "103520.265000", "103521.755000", "103523.245000", "103524.735000", "103526.225000", "103527.715000", "103529.205000", "103530.695000", "103532.185000", "103533.675000", "103535.165000", "103536.655000", "103538.145000", "103539.635000", "103541.125000", "103542.615000", "103544.105000", "103545.595000", "103547.085000", "103548.575000", "103550.065000", "103551.555000", "103553.045000", "103554.535000", "103556.025000", "103557.515000", "103559.005000", "103600.495000", "103601.985000", "103603.475000", "103604.965000", "103606.455000", "103607.945000", "103609.435000", "103610.925000", "103612.415000", "103613.905000", "103615.395000", "103616.885000", "103618.375000", "103619.865000", "103621.355000", "103622.845000", "103624.335000", "103625.825000", "103627.315000", "103628.805000", "103630.295000", "103631.785000", "103633.275000", "103634.765000", "103636.255000", "103637.745000", "103639.235000", "103640.725000", "103642.215000", "103643.705000", "103645.195000", "103646.685000", "103648.175000", "103649.665000", "103651.155000", "103652.645000", "103654.135000", "103655.625000", "103657.115000", "103658.605000", "103700.095000", "103701.585000", "103703.075000", "103704.565000", "103706.055000", "103707.545000", "103709.035000", "103710.525000", "103712.015000", "103713.505000", "103714.995000", "103716.485000", "103717.975000", "103719.465000", "103720.955000", "103722.445000", "103723.935000", "103725.425000", "103726.915000", "103728.405000", "103729.895000", "103731.385000", "103732.875000", "103734.365000", "103735.855000", "103737.345000", "103738.835000", "103740.325000", "103741.815000", "103743.305000", "103744.795000", "103746.285000", "103747.775000", "103749.265000", "103750.755000", "103752.245000", "103753.735000", "103755.225000", "103756.715000", "103758.205000", "103759.695000", "103801.185000", "103802.675000", "103804.165000", "103805.655000", "103807.145000", "103808.635000", "103810.125000", "103811.615000", "103813.105000", "103814.595000", "103816.085000", "103817.575000", "103819.065000", "103820.555000", "103822.045000", "103823.535000", "103825.025000", "103826.515000", "103828.005000", "103829.495000", "103830.985000", "103832.475000", "103833.965000", "103835.455000", "103836.945000", "103838.435000", "103839.925000", "103841.415000", "103842.905000", "103844.395000", "103845.885000", "103847.375000", "103848.865000", "103850.355000", "103851.845000", "103853.335000", "103854.825000", "103856.315000", "103857.805000"],
      "ContentTime": ["102824.878000", "102824.881000", "102824.884000", "102824.887000", "102824.890000", "102824.903000", "102824.906000", "102824.909000", "102824.912000", "102824.915000", "102824.918000", "102824.920000", "102824.926000", "102824.929000", "102824.936000", "102824.939000", "102824.942000", "102824.945000", "102824.948000", "102824.951000", "102824.953000", "102824.956000", "102844.838000", "102844.841000", "102844.844000", "102844.847000", "102844.850000", "102844.853000", "102844.855000", "102844.858000", "102844.861000", "102844.864000", "102844.867000", "102844.870000", "102844.873000", "102844.876000", "102844.879000", "102844.881000", "102844.884000", "102844.887000", "102844.890000", "102844.893000", "102904.838000", "102904.841000", "102904.844000", "102904.847000", "102904.849000", "102904.852000", "102904.855000", "102904.858000", "102904.861000", "102904.864000", "102904.867000", "102904.870000", "102904.872000", "102904.875000", "102904.878000", "102904.881000", "102904.884000", "102904.887000", "102904.889000", "102904.892000", "102904.895000", "102924.838000", "102924.841000", "102924.844000", "102924.847000", "102924.850000", "102924.853000", "102924.856000", "102924.858000", "102924.861000", "102924.864000", "102924.867000", "102924.870000", "102924.873000", "102924.876000", "102924.878000", "102924.881000", "102924.884000", "102924.887000", "102924.890000", "102924.893000", "102944.838000", "102944.841000", "102944.844000", "102944.847000", "102944.850000", "102944.853000", "102944.855000", "102944.858000", "102944.861000", "102944.864000", "102944.867000", "102944.870000", "102944.873000", "102944.876000", "102944.878000", "102944.881000", "102944.884000", "102944.887000", "102944.890000", "102944.893000", "103024.839000", "103024.842000", "103024.845000", "103024.848000", "103024.851000", "103024.854000", "103024.857000", "103024.859000", "103024.862000", "103024.865000", "103024.868000", "103024.871000", "103024.874000", "103024.877000", "103024.879000", "103024.882000", "103024.885000", "103024.888000", "103024.896000", "103024.899000", "103024.902000", "103024.905000", "103024.908000", "103024.911000", "103024.913000", "103024.916000", "103024.919000", "103024.922000", "103104.838000", "103104.841000", "103104.844000", "103104.847000", "103104.850000", "103104.852000", "103104.855000", "103104.858000", "103104.861000", "103104.864000", "103104.873000", "103104.876000", "103104.879000", "103104.882000", "103104.890000", "103104.893000", "103104.896000", "103104.899000", "103104.902000", "103104.905000", "103104.908000", "103104.911000", "103104.914000", "103104.916000", "103104.919000", "103104.922000", "103104.925000", "103144.838000", "103144.841000", "103144.844000", "103144.847000", "103144.850000", "103144.853000", "103144.856000", "103144.859000", "103144.862000", "103144.865000", "103144.867000", "103144.870000", "103144.873000", "103144.876000", "103144.879000", "103144.882000", "103144.885000", "103144.888000", "103144.891000", "103144.894000", "103144.897000", "103144.900000", "103144.903000", "103144.906000", "103144.909000", "103144.912000", "103224.838000", "103224.841000", "103224.844000", "103224.852000", "103224.855000", "103224.858000", "103224.861000", "103224.864000", "103224.867000", "103224.870000", "103224.872000", "103224.875000", "103224.878000", "103224.881000", "103224.884000", "103224.887000", "103224.890000", "103224.893000", "103224.895000", "103224.898000", "103224.901000", "103224.904000", "103224.907000", "103224.910000", "103224.913000", "103224.916000", "103224.918000", "103304.838000", "103304.841000", "103304.844000", "103304.847000", "103304.850000", "103304.853000", "103304.856000", "103304.858000", "103304.861000", "103304.864000", "103304.867000", "103304.870000", "103304.873000", "103304.876000", "103304.878000", "103304.881000", "103304.884000", "103304.887000", "103304.890000", "103304.893000", "103304.896000", "103304.899000", "103304.901000", "103304.904000", "103304.907000", "103304.910000", "103304.913000", "103344.838000", "103344.841000", "103344.844000", "103344.847000", "103344.850000", "103344.853000", "103344.856000", "103344.859000", "103344.861000", "103344.865000", "103344.867000", "103344.870000", "103344.873000", "103344.876000", "103344.879000", "103344.882000", "103344.885000", "103344.888000", "103344.891000", "103344.894000", "103344.897000", "103344.900000", "103344.903000", "103344.906000", "103344.908000", "103344.911000", "103344.914000", "103424.838000", "103424.841000", "103424.844000", "103424.847000", "103424.850000", "103424.853000", "103424.856000", "103424.858000", "103424.861000", "103424.864000", "103424.867000", "103424.870000", "103424.873000", "103424.876000", "103424.879000", "103424.881000", "103424.884000", "103424.887000", "103424.890000", "103424.893000", "103424.896000", "103424.899000", "103424.902000", "103424.904000", "103424.907000", "103424.910000", "103424.913000", "103504.839000", "103504.842000", "103504.845000", "103504.848000", "103504.851000", "103504.854000", "103504.857000", "103504.860000", "103504.863000", "103504.865000", "103504.868000", "103504.871000", "103504.874000", "103504.877000", "103504.880000", "103504.883000", "103504.886000", "103504.889000", "103504.892000", "103504.895000", "103504.898000", "103504.901000", "103504.909000", "103504.912000", "103504.915000", "103504.918000", "103504.921000", "103544.838000", "103544.841000", "103544.844000", "103544.847000", "103544.850000", "103544.853000", "103544.856000", "103544.859000", "103544.862000", "103544.865000", "103544.868000", "103544.871000", "103544.874000", "103544.877000", "103544.884000", "103544.887000", "103544.896000", "103544.899000", "103544.902000", "103544.905000", "103544.908000", "103544.911000", "103544.913000", "103544.916000", "103544.919000", "103544.922000", "103624.838000", "103624.841000", "103624.844000", "103624.847000", "103624.850000", "103624.853000", "103624.856000", "103624.859000", "103624.862000", "103624.865000", "103624.867000", "103624.870000", "103624.873000", "103624.876000", "103624.879000", "103624.882000", "103624.885000", "103624.888000", "103624.891000", "103624.894000", "103624.897000", "103624.900000", "103624.902000", "103624.905000", "103624.915000", "103624.918000", "103624.920000", "103704.838000", "103704.841000", "103704.844000", "103704.847000", "103704.850000", "103704.853000", "103704.856000", "103704.859000", "103704.862000", "103704.864000", "103704.867000", "103704.870000", "103704.873000", "103704.876000", "103704.879000", "103704.882000", "103704.885000", "103704.888000", "103704.890000", "103704.893000", "103704.896000", "103704.899000", "103704.902000", "103704.905000", "103704.908000", "103704.910000", "103704.913000", "103744.838000", "103744.841000", "103744.844000", "103744.847000", "103744.850000", "103744.853000", "103744.856000", "103744.859000", "103744.861000", "103744.864000", "103744.867000", "103744.870000", "103744.873000", "103744.876000", "103744.879000", "103744.882000", "103744.885000", "103744.888000", "103744.890000", "103744.893000", "103744.896000", "103744.899000", "103744.902000", "103744.921000", "103744.924000", "103744.927000", "103744.929000", "103824.838000", "103824.841000", "103824.844000", "103824.847000", "103824.850000", "103824.853000", "103824.856000", "103824.859000", "103824.861000", "103824.864000", "103824.867000", "103824.870000", "103824.873000", "103824.876000", "103824.879000", "103824.882000", "103824.885000", "103824.888000", "103824.891000", "103824.894000", "103824.896000", "103824.906000", "103824.909000", "103824.912000", "103824.915000", "103824.918000", "103824.921000", "103900.157000", "103900.161000", "103900.163000", "103900.166000", "103900.169000", "103900.172000", "103900.175000", "103900.178000", "103900.181000", "103900.184000", "103900.187000", "103900.189000", "103900.192000", "103900.195000", "103900.198000", "103900.201000", "103900.204000", "103900.207000", "103900.210000", "103900.213000", "103900.216000", "103900.219000", "103900.221000", "103900.224000"],
