{
  "AcquisitionMatrixPE": 104,
  "AcquisitionNumber": 1,
  "AcquisitionTime": "10:13:27.112500",
  "BandwidthPerPixelPhaseEncode": 17.17,
  "BaseResolution": 104,
  "BodyPartExamined": "BRAIN",
  "CoilString": "HC1-7;NC1_2",
  "ConsistencyInfo": "N4_VE11C_LATEST_20160120",
  "ConversionSoftware": "dcm2niix",
  "ConversionSoftwareVersion": "v1.0.20190720  (JP2:OpenJPEG) GCC7.3.0",
  "DerivedVendorReportedEchoSpacing": 0.000560011,
  "DeviceSerialNumber": "167006",
  "DwellTime": 2.1e-06,
  "EchoTime": 0.037,
  "EchoTrainLength": 104,
  "EffectiveEchoSpacing": 0.000560011,
  "FlipAngle": 52,
  "ImageComments": "Unaliased_MB4_PE3_LB",
  "ImageOrientationPatientDICOM": [0.998163, -0.00660189, -0.0602188, -0.00540062, 0.980389, -0.197],
  "ImageType": [
    "ORIGINAL",
    "PRIMARY",
    "M",
    "MB",
    "ND",
    "MOSAIC"
],
  "ImagingFrequency": 123.259,
  "InPlanePhaseEncodingDirectionDICOM": "COL",
  "InstitutionAddress": "Chemin_Queen-Mary_4565_Montreal_District_CA_H3W_1W5",
  "InstitutionName": "IUGM",
  "InstitutionalDepartmentName": "Department",
  "MRAcquisitionType": "2D",
  "MagneticFieldStrength": 3,
  "Manufacturer": "Siemens",
  "ManufacturersModelName": "Prisma_fit",
  "Modality": "MR",
  "MultibandAccelerationFactor": 4,
  "PartialFourier": 1,
  "PatientPosition": "HFS",
  "PercentPhaseFOV": 100,
  "PhaseEncodingDirection": "j",
  "PhaseEncodingSteps": 104,
  "PhaseResolution": 1,
  "PixelBandwidth": 2290,
  "ProcedureStepDescription": "video_friends",
  "ProtocolName": "func_task-s01e15a",
  "PulseSequenceDetails": "%CustomerSeq%_cmrr_mbep2d_bold",
  "ReceiveCoilActiveElements": "HC1-7;NC1,2",
  "ReceiveCoilName": "HeadNeck_64",
  "ReconMatrixPE": 104,
  "RepetitionTime": 1.49,
  "SAR": 0.0326459,
  "ScanOptions": "FS",
  "ScanningSequence": "EP",
  "SequenceName": "epfid2d1_104",
  "SequenceVariant": "SK_SS",
  "SeriesDescription": "func_task-s01e15a",
  "SeriesNumber": 15,
  "ShimSetting": [597, -7263, -8816, 593, -62, -320, 49, 54],
  "SliceThickness": 2,
  "SliceTiming": [0, 0.7825, 0.0975, 0.8825, 0.195, 0.98, 0.295, 1.0775, 0.3925, 1.175, 0.49, 1.2725, 0.5875, 1.3725, 0.685, 0, 0.7825, 0.0975, 0.8825, 0.195, 0.98, 0.295, 1.0775, 0.3925, 1.175, 0.49, 1.2725, 0.5875, 1.3725, 0.685, 0, 0.7825, 0.0975, 0.8825, 0.195, 0.98, 0.295, 1.0775, 0.3925, 1.175, 0.49, 1.2725, 0.5875, 1.3725, 0.685, 0, 0.7825, 0.0975, 0.8825, 0.195, 0.98, 0.295, 1.0775, 0.3925, 1.175, 0.49, 1.2725, 0.5875, 1.3725, 0.685],
  "SoftwareVersions": "syngo_MR_E11",
  "SpacingBetweenSlices": 2,
  "StationName": "MRC35049",
  "TaskName": "friends",
  "TotalReadoutTime": 0.0576811,
  "TxRefAmp": 215.499,
  "WipMemBlock": "df18497f-4619-41c7-a1b4-7d3a7d69c9d4||Sequence: R016 ve11c/master r/e634e98; Dec 19 2017 11:00:25 by eja",
  "dcmmeta_affine": [
    [-1.9963266849517822, -0.010801248252391815, -0.12067675590515137, 102.39408111572266],
    [0.013203781098127365, 1.9607770442962646, -0.39392760396003723, -84.41083526611328],
    [-0.12043756246566772, 0.394000768661499, 1.9571045637130737, -40.86989212036133],
    [0.0, 0.0, 0.0, 1.0]
],
  "dcmmeta_reorient_transform": [
    [0.0, -1.0, 0.0, 103.0],
    [1.0, 0.0, 0.0, 0.0],
    [0.0, 0.0, 1.0, 0.0],
    [0.0, 0.0, 0.0, 1.0]
],
  "dcmmeta_shape": [104, 104, 60, 477],
  "dcmmeta_slice_dim": 2,
  "dcmmeta_version": 0.6,
  "global": {
    "const": {
      "AcquisitionMatrix": [104, 0, 0, 104],
      "AngioFlag": "N",
      "BitsAllocated": 16,
      "BitsStored": 16,
      "BodyPartExamined": "BRAIN",
      "Columns": 832,
      "EchoNumbers": 1,
      "EchoTime": 37.0,
      "EchoTrainLength": 104,
      "FlipAngle": 52.0,
      "HighBit": 15,
      "ImageOrientationPatient": [0.9981633702145, -0.0066018907482, -0.0602187794677, -0.0054006240885, 0.98038853469379, -0.197000391625],
      "ImagePositionPatient": [-824.01283393619, -826.46588220239, 186.96774561277],
      "ImageType": [
        "ORIGINAL",
        "PRIMARY",
        "M",
        "MB",
        "ND",
        "MOSAIC"
],
      "ImagedNucleus": "1H",
      "ImagingFrequency": 123.259104,
      "InPlanePhaseEncodingDirection": "COL",
      "MRAcquisitionType": "2D",
      "MagneticFieldStrength": 3.0,
      "Manufacturer": "SIEMENS",
      "ManufacturerModelName": "Prisma_fit",
      "Modality": "MR",
      "NumberOfAverages": 1.0,
      "NumberOfPhaseEncodingSteps": 104,
      "PercentPhaseFieldOfView": 100.0,
      "PercentSampling": 100.0,
      "PerformedProcedureStepStartTime": "094257.070000",
      "PhotometricInterpretation": "MONOCHROME2",
      "PixelBandwidth": 2290.0,
      "PixelRepresentation": 0,
      "PixelSpacing": [2.0, 2.0],
      "ProtocolName": "func_task-s01e15a",
      "RepetitionTime": 1490.0,
      "Rows": 832,
      "SAR": 0.03264594351074,
      "SamplesPerPixel": 1,
      "ScanOptions": "FS",
      "ScanningSequence": "EP",
      "SequenceName": "epfid2d1_104",
      "SequenceVariant": [
        "SK",
        "SS"
],
      "SeriesDescription": "func_task-s01e15a",
      "SeriesNumber": 15,
      "SeriesTime": "101454.740000",
      "SliceLocation": -29.545740045736,
      "SliceThickness": 2.0,
      "SmallestImagePixelValue": 0,
      "SoftwareVersions": "syngo MR E11",
      "SpacingBetweenSlices": 2.0000000230077,
      "SpecificCharacterSet": "ISO_IR 100",
      "StudyID": "1",
      "StudyTime": "094256.899000",
      "TransmitCoilName": "Body",
      "VariableFlipAngleFlag": "N",
      "WindowCenterWidthExplanation": "Algo1",
      "dBdt": 0.0},
    "slices": {}
  },
  "time": {
    "samples": {
      "AcquisitionNumber": [1, 2, 3, 4, 5, 6, 7, 8, 9, 10, 11, 12, 13, 14, 15, 16, 17, 18, 19, 20, 21, 22, 23, 24, 25, 26, 27, 28, 29, 30, 31, 32, 33, 34, 35, 36, 37, 38, 39, 40, 41, 42, 43, 44, 45, 46, 47, 48, 49, 50, 51, 52, 53, 54, 55, 56, 57, 58, 59, 60, 61, 62, 63, 64, 65, 66, 67, 68, 69, 70, 71, 72, 73, 74, 75, 76, 77, 78, 79, 80, 81, 82, 83, 84, 85, 86, 87, 88, 89, 90, 91, 92, 93, 94, 95, 96, 97, 98, 99, 100, 101, 102, 103, 104, 105, 106, 107, 108, 109, 110, 111, 112, 113, 114, 115, 116, 117, 118, 119, 120, 121, 122, 123, 124, 125, 126, 127, 128, 129, 130, 131, 132, 133, 134, 135, 136, 137, 138, 139, 140, 141, 142, 143, 144, 145, 146, 147, 148, 149, 150, 151, 152, 153, 154, 155, 156, 157, 158, 159, 160, 161, 162, 163, 164, 165, 166, 167, 168, 169, 170, 171, 172, 173, 174, 175, 176, 177, 178, 179, 180, 181, 182, 183, 184, 185, 186, 187, 188, 189, 190, 191, 192, 193, 194, 195, 196, 197, 198, 199, 200, 201, 202, 203, 204, 205, 206, 207, 208, 209, 210, 211, 212, 213, 214, 215, 216, 217, 218, 219, 220, 221, 222, 223, 224, 225, 226, 227, 228, 229, 230, 231, 232, 233, 234, 235, 236, 237, 238, 239, 240, 241, 242, 243, 244, 245, 246, 247, 248, 249, 250, 251, 252, 253, 254, 255, 256, 257, 258, 259, 260, 261, 262, 263, 264, 265, 266, 267, 268, 269, 270, 271, 272, 273, 274, 275, 276, 277, 278, 279, 280, 281, 282, 283, 284, 285, 286, 287, 288, 289, 290, 291, 292, 293, 294, 295, 296, 297, 298, 299, 300, 301, 302, 303, 304, 305, 306, 307, 308, 309, 310, 311, 312, 313, 314, 315, 316, 317, 318, 319, 320, 321, 322, 323, 324, 325, 326, 327, 328, 329, 330, 331, 332, 333, 334, 335, 336, 337, 338, 339, 340, 341, 342, 343, 344, 345, 346, 347, 348, 349, 350, 351, 352, 353, 354, 355, 356, 357, 358, 359, 360, 361, 362, 363, 364, 365, 366, 367, 368, 369, 370, 371, 372, 373, 374, 375, 376, 377, 378, 379, 380, 381, 382, 383, 384, 385, 386, 387, 388, 389, 390, 391, 392, 393, 394, 395, 396, 397, 398, 399, 400, 401, 402, 403, 404, 405, 406, 407, 408, 409, 410, 411, 412, 413, 414, 415, 416, 417, 418, 419, 420, 421, 422, 423, 424, 425, 426, 427, 428, 429, 430, 431, 432, 433, 434, 435, 436, 437, 438, 439, 440, 441, 442, 443, 444, 445, 446, 447, 448, 449, 450, 451, 452, 453, 454, 455, 456, 457, 458, 459, 460, 461, 462, 463, 464, 465, 466, 467, 468, 469, 470, 471, 472, 473, 474, 475, 476, 477],
      "AcquisitionTime": ["101327.112500", "101328.602500", "101330.092500", "101331.582500", "101333.072500", "101334.562500", "101336.052500", "101337.542500", "101339.032500", "101340.522500", "101342.012500", "101343.502500", "101344.992500", "101346.482500", "101347.972500", "101349.462500", "101350.952500", "101352.442500", "101353.932500", "101355.422500", "101356.912500", "101358.402500", "101359.892500", "101401.382500", "101402.872500", "101404.362500", "101405.852500", "101407.342500", "101408.832500", "101410.322500", "101411.812500", "101413.302500", "101414.792500", "101416.282500", "101417.772500", "101419.262500", "101420.752500", "101422.242500", "101423.732500", "101425.222500", "101426.712500", "101428.202500", "101429.692500", "101431.182500", "101432.672500", "101434.162500", "101435.652500", "101437.142500", "101438.632500", "101440.122500", "101441.612500", "101443.102500", "101444.592500", "101446.082500", "101447.572500", "101449.062500", "101450.552500", "101452.042500", "101453.532500", "101455.022500", "101456.512500", "101458.002500", "101459.492500", "101500.982500", "101502.472500", "101503.962500", "101505.452500", "101506.942500", "101508.432500", "101509.922500", "101511.412500", "101512.902500", "101514.392500", "101515.882500", "101517.372500", "101518.862500", "101520.352500", "101521.842500", "101523.332500", "101524.822500", "101526.312500", "101527.802500", "101529.292500", "101530.782500", "101532.272500", "101533.762500", "101535.252500", "101536.742500", "101538.232500", "101539.722500", "101541.212500", "101542.702500", "101544.192500", "101545.682500", "101547.172500", "101548.662500", "101550.152500", "101551.642500", "101553.132500", "101554.622500", "101556.112500", "101557.602500", "101559.092500", "101600.582500", "101602.072500", "101603.562500", "101605.052500", "101606.542500", "101608.032500", "101609.522500", "101611.012500", "101612.502500", "101613.992500", "101615.482500", "101616.972500", "101618.462500", "101619.952500", "101621.442500", "101622.932500", "101624.422500", "101625.912500", "101627.402500", "101628.892500", "101630.382500", "101631.872500", "101633.362500", "101634.852500", "101636.342500", "101637.832500", "101639.322500", "101640.812500", "101642.302500", "101643.792500", "101645.282500", "101646.772500", "101648.262500", "101649.752500", "101651.242500", "101652.732500", "101654.222500", "101655.712500", "101657.202500", "101658.692500", "101700.182500", "101701.672500", "101703.162500", "101704.652500", "101706.142500", "101707.632500", "101709.122500", "101710.612500", "101712.102500", "101713.592500", "101715.082500", "101716.572500", "101718.062500", "101719.552500", "101721.042500", "101722.532500", "101724.022500", "101725.512500", "101727.002500", "101728.492500", "101729.982500", "101731.472500", "101732.962500", "101734.452500", "101735.942500", "101737.432500", "101738.922500", "101740.412500", "101741.902500", "101743.392500", "101744.882500", "101746.372500", "101747.862500", "101749.352500", "101750.842500", "101752.332500", "101753.822500", "101755.312500", "101756.802500", "101758.292500", "101759.782500", "101801.272500", "101802.762500", "101804.252500", "101805.742500", "101807.232500", "101808.722500", "101810.212500", "101811.702500", "101813.192500", "101814.682500", "101816.172500", "101817.662500", "101819.152500", "101820.642500", "101822.132500", "101823.622500", "101825.112500", "101826.602500", "101828.092500", "101829.582500", "101831.072500", "101832.562500", "101834.052500", "101835.542500", "101837.032500", "101838.522500", "101840.012500", "101841.502500", "101842.992500", "101844.482500", "101845.972500", "101847.462500", "101848.952500", "101850.442500", "101851.932500", "101853.422500", "101854.912500", "101856.402500", "101857.892500", "101859.382500", "101900.872500", "101902.362500", "101903.852500", "101905.342500", "101906.832500", "101908.322500", "101909.812500", "101911.302500", "101912.792500", "101914.282500", "101915.772500", "101917.262500", "101918.752500", "101920.242500", "101921.732500", "101923.222500", "101924.712500", "101926.202500", "101927.692500", "101929.182500", "101930.672500", "101932.162500", "101933.652500", "101935.142500", "101936.632500", "101938.122500", "101939.612500", "101941.102500", "101942.592500", "101944.082500", "101945.572500", "101947.062500", "101948.552500", "101950.042500", "101951.532500", "101953.022500", "101954.512500", "101956.002500", "101957.492500", "101958.982500", "102000.472500", "102001.962500", "102003.452500", "102004.942500", "102006.432500", "102007.922500", "102009.412500", "102010.902500", "102012.392500", "102013.882500", "102015.372500", "102016.862500", "102018.352500", "102019.842500", "102021.332500", "102022.822500", "102024.312500", "102025.802500", "102027.292500", "102028.782500", "102030.272500", "102031.762500", "102033.252500", "102034.742500", "102036.232500", "102037.722500", "102039.212500", "102040.702500", "102042.192500", "102043.682500", "102045.172500", "102046.662500", "102048.152500", "102049.642500", "102051.132500", "102052.622500", "102054.112500", "102055.602500", "102057.092500", "102058.582500", "102100.072500", "102101.562500", "102103.052500", "102104.542500", "102106.032500", "102107.522500", "102109.012500", "102110.502500", "102111.992500", "102113.482500", "102114.972500", "102116.462500", "102117.952500", "102119.442500", "102120.932500", "102122.422500", "102123.912500", "102125.402500", "102126.892500", "102128.382500", "102129.872500", "102131.362500", "102132.852500", "102134.342500", "102135.832500", "102137.322500", "102138.812500", "102140.302500", "102141.792500", "102143.282500", "102144.772500", "102146.262500", "102147.752500", "102149.242500", "102150.732500", "102152.222500", "102153.712500", "102155.202500", "102156.692500", "102158.182500", "102159.672500", "102201.162500", "102202.652500", "102204.142500", "102205.632500", "102207.122500", "102208.612500", "102210.102500", "102211.592500", "102213.082500", "102214.572500", "102216.062500", "102217.552500", "102219.042500", "102220.532500", "102222.022500", "102223.512500", "102225.002500", "102226.492500", "102227.982500", "102229.472500", "102230.962500", "102232.452500", "102233.942500", "102235.432500", "102236.922500", "102238.412500", "102239.902500", "102241.392500", "102242.882500", "102244.372500", "102245.862500", "102247.352500", "102248.842500", "102250.332500", "102251.822500", "102253.312500", "102254.802500", "102256.292500", "102257.782500", "102259.272500", "102300.762500", "102302.252500", "102303.742500", "102305.232500", "102306.722500", "102308.212500", "102309.702500", "102311.192500", "102312.682500", "102314.172500", "102315.662500", "102317.152500", "102318.642500", "102320.132500", "102321.622500", "102323.112500", "102324.602500", "102326.092500", "102327.582500", "102329.072500", "102330.562500", "102332.052500", "102333.542500", "102335.032500", "102336.522500", "102338.012500", "102339.502500", "102340.992500", "102342.482500", "102343.972500", "102345.462500", "102346.952500", "102348.442500", "102349.932500", "102351.422500", "102352.912500", "102354.402500", "102355.892500", "102357.382500", "102358.872500", "102400.362500", "102401.852500", "102403.342500", "102404.832500", "102406.322500", "102407.812500", "102409.302500", "102410.792500", "102412.282500", "102413.772500", "102415.262500", "102416.752500", "102418.242500", "102419.732500", "102421.222500", "102422.712500", "102424.202500", "102425.692500", "102427.182500", "102428.672500", "102430.162500", "102431.652500", "102433.142500", "102434.632500", "102436.122500", "102437.612500", "102439.102500", "102440.592500", "102442.082500", "102443.572500", "102445.062500", "102446.552500", "102448.042500", "102449.532500", "102451.022500", "102452.512500", "102454.002500", "102455.492500", "102456.982500", "102458.472500", "102459.962500", "102501.452500", "102502.942500", "102504.432500", "102505.922500", "102507.412500", "102508.902500", "102510.392500", "102511.882500", "102513.372500", "102514.862500", "102516.352500"],
      "ContentTime": ["101454.743000", "101454.746000", "101454.749000", "101454.752000", "101454.755000", "101454.758000", "101454.761000", "101454.764000", "101454.769000", "101454.772000", "101454.774000", "101454.777000", "101454.780000", "101454.783000", "101454.786000", "101454.789000", "101454.792000", "101454.795000", "101454.798000", "101454.800000", "101454.809000", "101454.812000", "101454.815000", "101454.818000", "101454.821000", "101454.824000", "101454.827000", "101454.829000", "101454.832000", "101454.835000", "101454.838000", "101454.841000", "101454.844000", "101454.852000", "101454.854000", "101514.713000", "101514.716000", "101514.719000", "101514.721000", "101514.724000", "101514.727000", "101514.730000", "101514.733000", "101514.736000", "101514.739000", "101514.742000", "101514.745000", "101514.747000", "101514.750000", "101514.753000", "101514.756000", "101514.759000", "101514.776000", "101514.779000", "101514.782000", "101534.714000", "101534.717000", "101534.720000", "101534.722000", "101534.725000", "101534.728000", "101534.731000", "101534.734000", "101534.737000", "101534.740000", "101534.743000", "101534.746000", "101534.749000", "101534.752000", "101534.755000", "101534.757000", "101534.760000", "101534.763000", "101534.766000", "101534.769000", "101554.714000", "101554.717000", "101554.720000", "101554.723000", "101554.726000", "101554.729000", "101554.732000", "101554.735000", "101554.738000", "101554.740000", "101554.743000", "101554.746000", "101554.749000", "101554.752000", "101554.755000", "101554.757000", "101554.761000", "101554.764000", "101554.766000", "101554.770000", "101634.714000", "101634.717000", "101634.720000", "101634.723000", "101634.726000", "101634.729000", "101634.731000", "101634.734000", "101634.737000", "101634.740000", "101634.743000", "101634.746000", "101634.749000", "101634.752000", "101634.755000", "101634.758000", "101634.761000", "101634.764000", "101634.766000", "101634.877000", "101634.882000", "101634.885000", "101634.888000", "101634.891000", "101634.894000", "101634.897000", "101634.900000", "101634.903000", "101634.906000", "101634.909000", "101714.713000", "101714.716000", "101714.719000", "101714.722000", "101714.725000", "101714.728000", "101714.730000", "101714.733000", "101714.736000", "101714.739000", "101714.742000", "101714.745000", "101714.748000", "101714.751000", "101714.754000", "101714.757000", "101714.760000", "101714.762000", "101714.766000", "101714.769000", "101714.772000", "101714.775000", "101714.778000", "101714.781000", "101714.784000", "101714.786000", "101714.790000", "101754.714000", "101754.717000", "101754.727000", "101754.730000", "101754.733000", "101754.736000", "101754.739000", "101754.742000", "101754.745000", "101754.748000", "101754.751000", "101754.754000", "101754.762000", "101754.765000", "101754.768000", "101754.771000", "101754.774000", "101754.776000", "101754.779000", "101754.782000", "101754.785000", "101754.788000", "101754.791000", "101754.794000", "101754.797000", "101754.800000", "101754.803000", "101814.714000", "101814.717000", "101814.720000", "101814.723000", "101814.726000", "101814.729000", "101814.731000", "101814.735000", "101814.737000", "101814.740000", "101814.743000", "101814.746000", "101814.749000", "101854.714000", "101854.725000", "101854.728000", "101854.731000", "101854.734000", "101854.736000", "101854.739000", "101854.742000", "101854.745000", "101854.748000", "101854.751000", "101854.754000", "101854.757000", "101854.760000", "101854.763000", "101854.765000", "101854.769000", "101854.772000", "101854.774000", "101854.777000", "101854.788000", "101854.791000", "101854.794000", "101854.797000", "101854.800000", "101854.803000", "101854.806000", "101934.713000", "101934.716000", "101934.719000", "101934.722000", "101934.725000", "101934.728000", "101934.731000", "101934.734000", "101934.737000", "101934.740000", "101934.743000", "101934.746000", "101934.749000", "101934.751000", "101934.754000", "101934.757000", "101934.760000", "101934.763000", "101934.766000", "101934.769000", "101934.772000", "101934.775000", "101934.778000", "101934.781000", "101934.784000", "101934.787000", "101934.790000", "102014.714000", "102014.717000", "102014.720000", "102014.723000", "102014.726000", "102014.729000", "102014.732000", "102014.735000", "102014.756000", "102014.759000", "102014.762000", "102014.765000", "102014.768000", "102014.770000", "102014.773000", "102014.776000", "102014.779000", "102014.782000", "102014.785000", "102014.788000", "102014.791000", "102014.794000", "102014.797000", "102014.800000", "102014.803000", "102014.805000", "102014.809000", "102054.714000", "102054.717000", "102054.720000", "102054.723000", "102054.726000", "102054.729000", "102054.731000", "102054.735000", "102054.737000", "102054.740000", "102054.743000", "102054.746000", "102054.749000", "102054.752000", "102054.755000", "102054.758000", "102054.761000", "102054.764000", "102054.767000", "102054.771000", "102054.775000", "102054.778000", "102054.781000", "102054.784000", "102054.787000", "102054.790000", "102134.714000", "102134.717000", "102134.720000", "102134.723000", "102134.726000", "102134.728000", "102134.731000", "102134.734000", "102134.737000", "102134.740000", "102134.743000", "102134.746000", "102134.749000", "102134.752000", "102134.755000", "102134.758000", "102134.761000", "102134.764000", "102134.767000", "102134.797000", "102134.800000", "102134.803000", "102134.806000", "102134.809000", "102134.812000", "102134.814000", "102134.817000", "102214.713000", "102214.716000", "102214.719000", "102214.722000", "102214.725000", "102214.728000", "102214.731000", "102214.734000", "102214.736000", "102214.739000", "102214.742000", "102214.745000", "102214.748000", "102214.751000", "102214.754000", "102214.757000", "102214.760000", "102214.763000", "102214.766000", "102214.769000", "102214.772000", "102214.775000", "102214.778000", "102214.781000", "102214.783000", "102214.786000", "102214.789000", "102254.714000", "102254.717000", "102254.720000", "102254.723000", "102254.726000", "102254.729000", "102254.731000", "102254.734000", "102254.737000", "102254.740000", "102254.743000", "102254.746000", "102254.749000", "102254.752000", "102254.755000", "102254.758000", "102254.761000", "102254.763000", "102254.766000", "102254.769000", "102254.772000", "102254.775000", "102254.778000", "102254.781000", "102254.784000", "102254.787000", "102254.790000", "102334.714000", "102334.717000", "102334.720000", "102334.723000", "102334.726000", "102334.729000", "102334.732000", "102334.735000", "102334.738000", "102334.740000", "102334.743000", "102334.746000", "102334.749000", "102334.752000", "102334.755000", "102334.758000", "102334.761000", "102334.763000", "102334.766000", "102334.769000", "102334.772000", "102334.775000", "102334.778000", "102334.781000", "102334.784000", "102334.787000", "102334.790000", "102414.713000", "102414.716000", "102414.719000", "102414.722000", "102414.725000", "102414.727000", "102414.730000", "102414.733000", "102414.736000", "102414.739000", "102414.742000", "102414.745000", "102414.748000", "102414.751000", "102414.754000", "102414.756000", "102414.759000", "102414.762000", "102414.765000", "102414.768000", "102414.771000", "102414.774000", "102414.777000", "102414.780000", "102414.783000", "102414.786000", "102414.788000", "102454.714000", "102454.717000", "102454.720000", "102454.723000", "102454.725000", "102454.728000", "102454.731000", "102454.734000", "102454.750000", "102454.753000", "102454.756000", "102454.759000", "102454.762000", "102454.765000", "102454.768000", "102454.771000", "102454.774000", "102454.776000", "102454.779000", "102454.782000", "102454.785000", "102454.788000", "102454.791000", "102454.794000", "102454.797000", "102454.800000", "102454.802000", "102518.544000", "102518.548000", "102518.551000", "102518.553000", "102518.556000", "102518.559000", "102518.562000", "102518.565000", "102518.568000", "102518.571000", "102518.574000", "102518.577000", "102518.580000", "102518.583000", "102518.586000", "102518.589000"],
