{
  "AcquisitionMatrixPE": 104,
  "AcquisitionNumber": 1,
  "AcquisitionTime": "18:27:29.942500",
  "BandwidthPerPixelPhaseEncode": 17.17,
  "BaseResolution": 104,
  "BodyPartExamined": "BRAIN",
  "CoilString": "HC1-7;NC1_2",
  "ConsistencyInfo": "N4_VE11C_LATEST_20160120",
  "ConversionSoftware": "dcm2niix",
  "ConversionSoftwareVersion": "v1.0.20190720  (JP2:OpenJPEG) GCC7.3.0",
  "DerivedVendorReportedEchoSpacing": 0.000560011,
  "DeviceSerialNumber": "167006",
  "DwellTime": 2.1e-06,
  "EchoTime": 0.037,
  "EchoTrainLength": 104,
  "EffectiveEchoSpacing": 0.000560011,
  "FlipAngle": 52,
  "ImageComments": "Unaliased_MB4_PE3_LB",
  "ImageOrientationPatientDICOM": [0.999854, -0.0132422, -0.0107974, 0.00802746, 0.921917, -0.387304],
  "ImageType": [
    "ORIGINAL",
    "PRIMARY",
    "M",
    "MB",
    "ND",
    "MOSAIC"
],
  "ImagingFrequency": 123.259,
  "InPlanePhaseEncodingDirectionDICOM": "COL",
  "InstitutionAddress": "Chemin_Queen-Mary_4565_Montreal_District_CA_H3W_1W5",
  "InstitutionName": "IUGM",
  "InstitutionalDepartmentName": "Department",
  "MRAcquisitionType": "2D",
  "MagneticFieldStrength": 3,
  "Manufacturer": "Siemens",
  "ManufacturersModelName": "Prisma_fit",
  "Modality": "MR",
  "MultibandAccelerationFactor": 4,
  "PartialFourier": 1,
  "PatientPosition": "HFS",
  "PercentPhaseFOV": 100,
  "PhaseEncodingDirection": "j",
  "PhaseEncodingSteps": 104,
  "PhaseResolution": 1,
  "PixelBandwidth": 2290,
  "ProcedureStepDescription": "video_friends",
  "ProtocolName": "func_task-s02e02a",
  "PulseSequenceDetails": "%CustomerSeq%_cmrr_mbep2d_bold",
  "ReceiveCoilActiveElements": "HC1-7;NC1,2",
  "ReceiveCoilName": "HeadNeck_64",
  "ReconMatrixPE": 104,
  "RepetitionTime": 1.49,
  "SAR": 0.0323465,
  "ScanOptions": "FS",
  "ScanningSequence": "EP",
  "SequenceName": "epfid2d1_104",
  "SequenceVariant": "SK_SS",
  "SeriesDescription": "func_task-s02e02a",
  "SeriesNumber": 9,
  "ShimSetting": [610, -7261, -8853, 409, -8, -459, 4, 34],
  "SliceThickness": 2,
  "SliceTiming": [0, 0.7825, 0.0975, 0.88, 0.195, 0.9775, 0.2925, 1.0775, 0.39, 1.175, 0.49, 1.2725, 0.5875, 1.37, 0.685, 0, 0.7825, 0.0975, 0.88, 0.195, 0.9775, 0.2925, 1.0775, 0.39, 1.175, 0.49, 1.2725, 0.5875, 1.37, 0.685, 0, 0.7825, 0.0975, 0.88, 0.195, 0.9775, 0.2925, 1.0775, 0.39, 1.175, 0.49, 1.2725, 0.5875, 1.37, 0.685, 0, 0.7825, 0.0975, 0.88, 0.195, 0.9775, 0.2925, 1.0775, 0.39, 1.175, 0.49, 1.2725, 0.5875, 1.37, 0.685],
  "SoftwareVersions": "syngo_MR_E11",
  "SpacingBetweenSlices": 2,
  "StationName": "MRC35049",
  "TaskName": "friends",
  "TotalReadoutTime": 0.0576811,
  "TxRefAmp": 233.046,
  "WipMemBlock": "3a02e022-1987-4baf-9617-353167ca2228||Sequence: R016 ve11c/master r/e634e98; Dec 19 2017 11:00:25 by eja",
  "dcmmeta_affine": [
    [-1.9997080564498901, 0.0160549134016037, -0.0301661379635334, 99.83773040771484],
    [0.02648431621491909, 1.8438340425491333, -0.7743218541145325, -69.74796295166016],
    [-0.02159484289586544, 0.774608314037323, 1.8437775373458862, -76.148681640625],
    [0.0, 0.0, 0.0, 1.0]
],
  "dcmmeta_reorient_transform": [
    [0.0, -1.0, 0.0, 103.0],
    [1.0, 0.0, 0.0, 0.0],
    [0.0, 0.0, 1.0, 0.0],
    [0.0, 0.0, 0.0, 1.0]
],
  "dcmmeta_shape": [104, 104, 60, 450],
  "dcmmeta_slice_dim": 2,
  "dcmmeta_version": 0.6,
  "global": {
    "const": {
      "AcquisitionMatrix": [104, 0, 0, 104],
      "AngioFlag": "N",
      "BitsAllocated": 16,
      "BitsStored": 16,
      "BodyPartExamined": "BRAIN",
      "Columns": 832,
      "EchoNumbers": 1,
      "EchoTime": 37.0,
      "EchoTrainLength": 104,
      "FlipAngle": 52.0,
      "HighBit": 15,
      "ImageOrientationPatient": [0.99985401982113, -0.0132421578088, -0.0107974211779, 0.0080274567593, 0.92191704983191, -0.3873041610507],
      "ImagePositionPatient": [-835.22910305922, -781.6822669381, 293.45392629577],
      "ImageType": [
        "ORIGINAL",
        "PRIMARY",
        "M",
        "MB",
        "ND",
        "MOSAIC"
],
      "ImagedNucleus": "1H",
      "ImagingFrequency": 123.259102,
      "InPlanePhaseEncodingDirection": "COL",
      "MRAcquisitionType": "2D",
      "MagneticFieldStrength": 3.0,
      "Manufacturer": "SIEMENS",
      "ManufacturerModelName": "Prisma_fit",
      "Modality": "MR",
      "NumberOfAverages": 1.0,
      "NumberOfPhaseEncodingSteps": 104,
      "PercentPhaseFieldOfView": 100.0,
      "PercentSampling": 100.0,
      "PerformedProcedureStepStartTime": "180717.497000",
      "PhotometricInterpretation": "MONOCHROME2",
      "PixelBandwidth": 2290.0,
      "PixelRepresentation": 0,
      "PixelSpacing": [2.0, 2.0],
      "ProtocolName": "func_task-s02e02a",
      "RepetitionTime": 1490.0,
      "Rows": 832,
      "SAR": 0.03234646205867,
      "SamplesPerPixel": 1,
      "ScanOptions": "FS",
      "ScanningSequence": "EP",
      "SequenceName": "epfid2d1_104",
      "SequenceVariant": [
        "SK",
        "SS"
],
      "SeriesDescription": "func_task-s02e02a",
      "SeriesNumber": 9,
      "SeriesTime": "182855.014000",
      "SliceLocation": -44.702786039578,
      "SliceThickness": 2.0,
      "SmallestImagePixelValue": 0,
      "SoftwareVersions": "syngo MR E11",
      "SpacingBetweenSlices": 1.9999999463414,
      "SpecificCharacterSet": "ISO_IR 100",
      "StudyID": "1",
      "StudyTime": "180717.362000",
      "TransmitCoilName": "Body",
      "VariableFlipAngleFlag": "N",
      "WindowCenterWidthExplanation": "Algo1",
      "dBdt": 0.0},
    "slices": {}
  },
  "time": {
    "samples": {
      "AcquisitionNumber": [1, 2, 3, 4, 5, 6, 7, 8, 9, 10, 11, 12, 13, 14, 15, 16, 17, 18, 19, 20, 21, 22, 23, 24, 25, 26, 27, 28, 29, 30, 31, 32, 33, 34, 35, 36, 37, 38, 39, 40, 41, 42, 43, 44, 45, 46, 47, 48, 49, 50, 51, 52, 53, 54, 55, 56, 57, 58, 59, 60, 61, 62, 63, 64, 65, 66, 67, 68, 69, 70, 71, 72, 73, 74, 75, 76, 77, 78, 79, 80, 81, 82, 83, 84, 85, 86, 87, 88, 89, 90, 91, 92, 93, 94, 95, 96, 97, 98, 99, 100, 101, 102, 103, 104, 105, 106, 107, 108, 109, 110, 111, 112, 113, 114, 115, 116, 117, 118, 119, 120, 121, 122, 123, 124, 125, 126, 127, 128, 129, 130, 131, 132, 133, 134, 135, 136, 137, 138, 139, 140, 141, 142, 143, 144, 145, 146, 147, 148, 149, 150, 151, 152, 153, 154, 155, 156, 157, 158, 159, 160, 161, 162, 163, 164, 165, 166, 167, 168, 169, 170, 171, 172, 173, 174, 175, 176, 177, 178, 179, 180, 181, 182, 183, 184, 185, 186, 187, 188, 189, 190, 191, 192, 193, 194, 195, 196, 197, 198, 199, 200, 201, 202, 203, 204, 205, 206, 207, 208, 209, 210, 211, 212, 213, 214, 215, 216, 217, 218, 219, 220, 221, 222, 223, 224, 225, 226, 227, 228, 229, 230, 231, 232, 233, 234, 235, 236, 237, 238, 239, 240, 241, 242, 243, 244, 245, 246, 247, 248, 249, 250, 251, 252, 253, 254, 255, 256, 257, 258, 259, 260, 261, 262, 263, 264, 265, 266, 267, 268, 269, 270, 271, 272, 273, 274, 275, 276, 277, 278, 279, 280, 281, 282, 283, 284, 285, 286, 287, 288, 289, 290, 291, 292, 293, 294, 295, 296, 297, 298, 299, 300, 301, 302, 303, 304, 305, 306, 307, 308, 309, 310, 311, 312, 313, 314, 315, 316, 317, 318, 319, 320, 321, 322, 323, 324, 325, 326, 327, 328, 329, 330, 331, 332, 333, 334, 335, 336, 337, 338, 339, 340, 341, 342, 343, 344, 345, 346, 347, 348, 349, 350, 351, 352, 353, 354, 355, 356, 357, 358, 359, 360, 361, 362, 363, 364, 365, 366, 367, 368, 369, 370, 371, 372, 373, 374, 375, 376, 377, 378, 379, 380, 381, 382, 383, 384, 385, 386, 387, 388, 389, 390, 391, 392, 393, 394, 395, 396, 397, 398, 399, 400, 401, 402, 403, 404, 405, 406, 407, 408, 409, 410, 411, 412, 413, 414, 415, 416, 417, 418, 419, 420, 421, 422, 423, 424, 425, 426, 427, 428, 429, 430, 431, 432, 433, 434, 435, 436, 437, 438, 439, 440, 441, 442, 443, 444, 445, 446, 447, 448, 449, 450],
      "AcquisitionTime": ["182729.942500", "182731.432500", "182732.922500", "182734.412500", "182735.902500", "182737.392500", "182738.882500", "182740.372500", "182741.862500", "182743.352500", "182744.842500", "182746.332500", "182747.822500", "182749.312500", "182750.802500", "182752.292500", "182753.782500", "182755.272500", "182756.762500", "182758.252500", "182759.742500", "182801.232500", "182802.722500", "182804.212500", "182805.702500", "182807.192500", "182808.682500", "182810.172500", "182811.662500", "182813.152500", "182814.642500", "182816.132500", "182817.622500", "182819.112500", "182820.602500", "182822.092500", "182823.582500", "182825.072500", "182826.562500", "182828.052500", "182829.542500", "182831.032500", "182832.522500", "182834.012500", "182835.502500", "182836.992500", "182838.482500", "182839.972500", "182841.462500", "182842.952500", "182844.442500", "182845.932500", "182847.422500", "182848.912500", "182850.402500", "182851.892500", "182853.382500", "182854.872500", "182856.362500", "182857.852500", "182859.342500", "182900.832500", "182902.322500", "182903.812500", "182905.302500", "182906.792500", "182908.282500", "182909.772500", "182911.262500", "182912.752500", "182914.242500", "182915.732500", "182917.222500", "182918.712500", "182920.202500", "182921.692500", "182923.182500", "182924.672500", "182926.162500", "182927.652500", "182929.142500", "182930.632500", "182932.122500", "182933.612500", "182935.102500", "182936.592500", "182938.082500", "182939.572500", "182941.062500", "182942.552500", "182944.042500", "182945.532500", "182947.022500", "182948.512500", "182950.002500", "182951.492500", "182952.982500", "182954.472500", "182955.962500", "182957.452500", "182958.942500", "183000.432500", "183001.922500", "183003.412500", "183004.902500", "183006.392500", "183007.882500", "183009.372500", "183010.862500", "183012.352500", "183013.842500", "183015.332500", "183016.822500", "183018.312500", "183019.802500", "183021.292500", "183022.782500", "183024.272500", "183025.762500", "183027.252500", "183028.742500", "183030.232500", "183031.722500", "183033.212500", "183034.702500", "183036.192500", "183037.682500", "183039.172500", "183040.662500", "183042.152500", "183043.642500", "183045.132500", "183046.622500", "183048.112500", "183049.602500", "183051.092500", "183052.582500", "183054.072500", "183055.562500", "183057.052500", "183058.542500", "183100.032500", "183101.522500", "183103.012500", "183104.502500", "183105.992500", "183107.482500", "183108.972500", "183110.462500", "183111.952500", "183113.442500", "183114.932500", "183116.422500", "183117.912500", "183119.402500", "183120.892500", "183122.382500", "183123.872500", "183125.362500", "183126.852500", "183128.342500", "183129.832500", "183131.322500", "183132.812500", "183134.302500", "183135.792500", "183137.282500", "183138.772500", "183140.262500", "183141.752500", "183143.242500", "183144.732500", "183146.222500", "183147.712500", "183149.202500", "183150.692500", "183152.182500", "183153.672500", "183155.162500", "183156.652500", "183158.142500", "183159.632500", "183201.122500", "183202.612500", "183204.102500", "183205.592500", "183207.082500", "183208.572500", "183210.062500", "183211.552500", "183213.042500", "183214.532500", "183216.022500", "183217.512500", "183219.002500", "183220.492500", "183221.982500", "183223.472500", "183224.962500", "183226.452500", "183227.942500", "183229.432500", "183230.922500", "183232.412500", "183233.902500", "183235.392500", "183236.882500", "183238.372500", "183239.862500", "183241.352500", "183242.842500", "183244.332500", "183245.822500", "183247.312500", "183248.802500", "183250.292500", "183251.782500", "183253.272500", "183254.762500", "183256.252500", "183257.742500", "183259.232500", "183300.722500", "183302.212500", "183303.702500", "183305.192500", "183306.682500", "183308.172500", "183309.662500", "183311.152500", "183312.642500", "183314.132500", "183315.622500", "183317.112500", "183318.602500", "183320.092500", "183321.582500", "183323.072500", "183324.562500", "183326.052500", "183327.542500", "183329.032500", "183330.522500", "183332.012500", "183333.502500", "183334.992500", "183336.482500", "183337.972500", "183339.462500", "183340.952500", "183342.442500", "183343.932500", "183345.422500", "183346.912500", "183348.402500", "183349.892500", "183351.382500", "183352.872500", "183354.362500", "183355.852500", "183357.342500", "183358.832500", "183400.322500", "183401.812500", "183403.302500", "183404.792500", "183406.282500", "183407.772500", "183409.262500", "183410.752500", "183412.242500", "183413.732500", "183415.222500", "183416.712500", "183418.202500", "183419.692500", "183421.182500", "183422.672500", "183424.162500", "183425.652500", "183427.142500", "183428.632500", "183430.122500", "183431.612500", "183433.102500", "183434.592500", "183436.082500", "183437.572500", "183439.062500", "183440.552500", "183442.042500", "183443.532500", "183445.022500", "183446.512500", "183448.002500", "183449.492500", "183450.982500", "183452.472500", "183453.962500", "183455.452500", "183456.942500", "183458.432500", "183459.922500", "183501.412500", "183502.902500", "183504.392500", "183505.882500", "183507.372500", "183508.862500", "183510.352500", "183511.842500", "183513.332500", "183514.822500", "183516.312500", "183517.802500", "183519.292500", "183520.782500", "183522.272500", "183523.762500", "183525.252500", "183526.742500", "183528.232500", "183529.722500", "183531.212500", "183532.702500", "183534.192500", "183535.682500", "183537.172500", "183538.662500", "183540.152500", "183541.642500", "183543.132500", "183544.622500", "183546.112500", "183547.602500", "183549.092500", "183550.582500", "183552.072500", "183553.562500", "183555.052500", "183556.542500", "183558.032500", "183559.522500", "183601.012500", "183602.502500", "183603.992500", "183605.482500", "183606.972500", "183608.462500", "183609.952500", "183611.442500", "183612.932500", "183614.422500", "183615.912500", "183617.402500", "183618.892500", "183620.382500", "183621.872500", "183623.362500", "183624.852500", "183626.342500", "183627.832500", "183629.322500", "183630.812500", "183632.302500", "183633.792500", "183635.282500", "183636.772500", "183638.262500", "183639.752500", "183641.242500", "183642.732500", "183644.222500", "183645.712500", "183647.202500", "183648.692500", "183650.182500", "183651.672500", "183653.162500", "183654.652500", "183656.142500", "183657.632500", "183659.122500", "183700.612500", "183702.102500", "183703.592500", "183705.082500", "183706.572500", "183708.062500", "183709.552500", "183711.042500", "183712.532500", "183714.022500", "183715.512500", "183717.002500", "183718.492500", "183719.982500", "183721.472500", "183722.962500", "183724.452500", "183725.942500", "183727.432500", "183728.922500", "183730.412500", "183731.902500", "183733.392500", "183734.882500", "183736.372500", "183737.862500", "183739.352500", "183740.842500", "183742.332500", "183743.822500", "183745.312500", "183746.802500", "183748.292500", "183749.782500", "183751.272500", "183752.762500", "183754.252500", "183755.742500", "183757.232500", "183758.722500", "183800.212500", "183801.702500", "183803.192500", "183804.682500", "183806.172500", "183807.662500", "183809.152500", "183810.642500", "183812.132500", "183813.622500", "183815.112500", "183816.602500", "183818.092500", "183819.582500", "183821.072500", "183822.562500", "183824.052500", "183825.542500", "183827.032500", "183828.522500", "183830.012500", "183831.502500", "183832.992500", "183834.482500", "183835.972500", "183837.462500", "183838.952500"],
      "ContentTime": ["182855.017000", "182855.020000", "182855.023000", "182855.026000", "182855.029000", "182855.032000", "182855.035000", "182855.038000", "182855.045000", "182855.048000", "182855.051000", "182855.054000", "182855.057000", "182855.060000", "182855.062000", "182855.065000", "182855.068000", "182855.071000", "182855.074000", "182855.077000", "182855.080000", "182934.981000", "182934.984000", "182934.987000", "182934.990000", "182934.993000", "182934.996000", "182935.000000", "182935.003000", "182935.006000", "182935.009000", "182935.012000", "182935.015000", "182935.018000", "182935.021000", "182935.024000", "182935.027000", "182935.030000", "182935.033000", "182935.044000", "182935.047000", "182935.050000", "182935.053000", "182935.056000", "182935.059000", "182935.062000", "182935.065000", "182935.068000", "182935.071000", "182935.074000", "182935.077000", "182935.080000", "182935.082000", "182935.085000", "182935.088000", "182935.093000", "182935.096000", "182935.099000", "182935.102000", "182935.105000", "182954.981000", "182954.984000", "182954.987000", "182954.990000", "182954.993000", "182954.996000", "182955.000000", "182955.003000", "182955.006000", "182955.009000", "182955.012000", "182955.015000", "182955.017000", "182955.020000", "182955.023000", "182955.026000", "182955.038000", "182955.041000", "182955.044000", "182955.047000", "183014.982000", "183014.985000", "183014.988000", "183014.991000", "183014.994000", "183014.996000", "183014.999000", "183015.002000", "183015.005000", "183015.008000", "183015.011000", "183015.014000", "183015.035000", "183015.038000", "183015.041000", "183015.044000", "183015.046000", "183015.049000", "183015.052000", "183015.055000", "183015.058000", "183034.982000", "183034.985000", "183034.988000", "183034.991000", "183034.994000", "183034.997000", "183035.001000", "183035.004000", "183035.007000", "183035.010000", "183035.013000", "183035.016000", "183035.019000", "183035.022000", "183035.024000", "183035.027000", "183035.030000", "183035.033000", "183035.036000", "183035.039000", "183114.981000", "183114.984000", "183114.987000", "183114.990000", "183114.993000", "183114.996000", "183115.000000", "183115.003000", "183115.005000", "183115.008000", "183115.011000", "183115.014000", "183115.017000", "183115.020000", "183115.030000", "183115.033000", "183115.036000", "183115.039000", "183115.042000", "183115.044000", "183115.047000", "183115.050000", "183115.053000", "183115.056000", "183115.059000", "183115.062000", "183115.065000", "183115.068000", "183115.071000", "183154.981000", "183154.984000", "183154.987000", "183154.990000", "183154.993000", "183154.996000", "183155.000000", "183155.003000", "183155.006000", "183155.009000", "183155.012000", "183155.015000", "183155.018000", "183155.020000", "183155.023000", "183155.026000", "183155.029000", "183155.032000", "183155.035000", "183155.038000", "183155.041000", "183155.044000", "183155.047000", "183155.050000", "183155.053000", "183155.056000", "183155.058000", "183234.982000", "183234.985000", "183234.988000", "183234.991000", "183234.994000", "183234.997000", "183235.000000", "183235.003000", "183235.006000", "183235.008000", "183235.011000", "183235.014000", "183235.017000", "183235.020000", "183235.027000", "183235.030000", "183235.033000", "183235.036000", "183235.039000", "183235.042000", "183235.045000", "183235.048000", "183235.051000", "183235.054000", "183235.057000", "183235.060000", "183235.063000", "183314.981000", "183314.984000", "183314.987000", "183314.990000", "183314.993000", "183314.996000", "183315.000000", "183315.003000", "183315.006000", "183315.009000", "183315.012000", "183315.015000", "183315.018000", "183315.021000", "183315.024000", "183315.027000", "183315.030000", "183315.033000", "183315.035000", "183315.038000", "183315.041000", "183315.044000", "183315.047000", "183315.050000", "183315.062000", "183315.065000", "183315.067000", "183354.981000", "183354.984000", "183354.987000", "183354.990000", "183354.993000", "183354.996000", "183355.000000", "183355.003000", "183355.006000", "183355.010000", "183355.013000", "183355.016000", "183355.019000", "183355.022000", "183355.025000", "183355.028000", "183355.031000", "183355.034000", "183355.037000", "183355.040000", "183355.043000", "183355.046000", "183355.049000", "183355.052000", "183355.056000", "183355.059000", "183434.981000", "183434.984000", "183434.987000", "183434.990000", "183434.993000", "183434.996000", "183435.000000", "183435.003000", "183435.006000", "183435.009000", "183435.012000", "183435.015000", "183435.018000", "183435.021000", "183435.024000", "183435.027000", "183435.030000", "183435.033000", "183435.036000", "183435.039000", "183435.042000", "183435.045000", "183435.047000", "183435.050000", "183435.053000", "183435.056000", "183435.059000", "183514.982000", "183514.985000", "183514.988000", "183514.991000", "183515.004000", "183515.007000", "183515.010000", "183515.013000", "183515.016000", "183515.019000", "183515.037000", "183515.040000", "183515.043000", "183515.045000", "183515.048000", "183515.051000", "183515.054000", "183515.057000", "183515.060000", "183515.063000", "183515.066000", "183515.069000", "183515.072000", "183515.075000", "183515.078000", "183515.081000", "183515.084000", "183554.981000", "183554.984000", "183554.987000", "183554.990000", "183554.993000", "183554.996000", "183555.000000", "183555.003000", "183555.006000", "183555.009000", "183555.012000", "183555.015000", "183555.018000", "183555.021000", "183555.024000", "183555.026000", "183555.029000", "183555.032000", "183555.035000", "183555.038000", "183555.041000", "183555.044000", "183555.047000", "183555.050000", "183555.053000", "183555.056000", "183555.059000", "183634.981000", "183634.984000", "183634.987000", "183634.990000", "183634.993000", "183634.996000", "183635.000000", "183635.002000", "183635.005000", "183635.008000", "183635.011000", "183635.014000", "183635.017000", "183635.020000", "183635.023000", "183635.026000", "183635.029000", "183635.032000", "183635.034000", "183635.037000", "183635.040000", "183635.043000", "183635.046000", "183635.049000", "183635.052000", "183635.055000", "183635.058000", "183714.982000", "183714.985000", "183714.988000", "183714.991000", "183714.994000", "183714.997000", "183715.007000", "183715.010000", "183715.013000", "183715.016000", "183715.019000", "183715.022000", "183715.025000", "183715.028000", "183715.031000", "183715.034000", "183715.037000", "183715.040000", "183715.042000", "183715.045000", "183715.048000", "183715.051000", "183715.054000", "183715.057000", "183715.060000", "183715.063000", "183715.066000", "183754.981000", "183754.984000", "183754.987000", "183754.990000", "183754.993000", "183754.996000", "183755.000000", "183755.003000", "183755.006000", "183755.009000", "183755.012000", "183755.015000", "183755.018000", "183755.021000", "183755.024000", "183755.027000", "183755.030000", "183755.032000", "183755.035000", "183755.038000", "183755.041000", "183755.044000", "183755.047000", "183755.050000", "183755.053000", "183755.056000", "183834.981000", "183834.984000", "183834.987000", "183834.995000", "183834.998000", "183835.002000", "183835.005000", "183835.008000", "183835.011000", "183835.014000", "183835.017000", "183835.020000", "183835.023000", "183835.026000", "183835.029000", "183835.032000", "183835.034000", "183835.037000", "183835.040000", "183835.043000", "183835.046000", "183835.049000", "183835.052000", "183835.055000", "183835.058000", "183835.061000", "183835.064000", "183841.316000", "183841.320000", "183841.322000", "183841.326000", "183841.329000"],
