{
  "AcquisitionMatrixPE": 104,
  "AcquisitionNumber": 1,
  "AcquisitionTime": "19:05:51.012500",
  "BandwidthPerPixelPhaseEncode": 17.17,
  "BaseResolution": 104,
  "BodyPartExamined": "BRAIN",
  "CoilString": "HC1-7;NC1_2",
  "ConsistencyInfo": "N4_VE11C_LATEST_20160120",
  "ConversionSoftware": "dcm2niix",
  "ConversionSoftwareVersion": "v1.0.20190720  (JP2:OpenJPEG) GCC7.3.0",
  "DerivedVendorReportedEchoSpacing": 0.000560011,
  "DeviceSerialNumber": "167006",
  "DwellTime": 2.1e-06,
  "EchoTime": 0.037,
  "EchoTrainLength": 104,
  "EffectiveEchoSpacing": 0.000560011,
  "FlipAngle": 52,
  "ImageComments": "Unaliased_MB4_PE3_LB",
  "ImageOrientationPatientDICOM": [0.999854, -0.0132422, -0.0107974, 0.00802746, 0.921917, -0.387304],
  "ImageType": [
    "ORIGINAL",
    "PRIMARY",
    "M",
    "MB",
    "ND",
    "MOSAIC"
],
  "ImagingFrequency": 123.259,
  "InPlanePhaseEncodingDirectionDICOM": "COL",
  "InstitutionAddress": "Chemin_Queen-Mary_4565_Montreal_District_CA_H3W_1W5",
  "InstitutionName": "IUGM",
  "InstitutionalDepartmentName": "Department",
  "MRAcquisitionType": "2D",
  "MagneticFieldStrength": 3,
  "Manufacturer": "Siemens",
  "ManufacturersModelName": "Prisma_fit",
  "Modality": "MR",
  "MultibandAccelerationFactor": 4,
  "PartialFourier": 1,
  "PatientPosition": "HFS",
  "PercentPhaseFOV": 100,
  "PhaseEncodingDirection": "j",
  "PhaseEncodingSteps": 104,
  "PhaseResolution": 1,
  "PixelBandwidth": 2290,
  "ProcedureStepDescription": "video_friends",
  "ProtocolName": "func_task-friends-s02e03b",
  "PulseSequenceDetails": "%CustomerSeq%_cmrr_mbep2d_bold",
  "ReceiveCoilActiveElements": "HC1-7;NC1,2",
  "ReceiveCoilName": "HeadNeck_64",
  "ReconMatrixPE": 104,
  "RepetitionTime": 1.49,
  "SAR": 0.0323507,
  "ScanOptions": "FS",
  "ScanningSequence": "EP",
  "SequenceName": "epfid2d1_104",
  "SequenceVariant": "SK_SS",
  "SeriesDescription": "func_task-friends-s02e03b",
  "SeriesNumber": 15,
  "ShimSetting": [610, -7261, -8853, 409, -8, -459, 4, 34],
  "SliceThickness": 2,
  "SliceTiming": [0, 0.785, 0.0975, 0.8825, 0.195, 0.98, 0.295, 1.0775, 0.3925, 1.175, 0.49, 1.275, 0.5875, 1.3725, 0.685, 0, 0.785, 0.0975, 0.8825, 0.195, 0.98, 0.295, 1.0775, 0.3925, 1.175, 0.49, 1.275, 0.5875, 1.3725, 0.685, 0, 0.785, 0.0975, 0.8825, 0.195, 0.98, 0.295, 1.0775, 0.3925, 1.175, 0.49, 1.275, 0.5875, 1.3725, 0.685, 0, 0.785, 0.0975, 0.8825, 0.195, 0.98, 0.295, 1.0775, 0.3925, 1.175, 0.49, 1.275, 0.5875, 1.3725, 0.685],
  "SoftwareVersions": "syngo_MR_E11",
  "SpacingBetweenSlices": 2,
  "StationName": "MRC35049",
  "TaskName": "friends",
  "TotalReadoutTime": 0.0576811,
  "TxRefAmp": 233.046,
  "WipMemBlock": "96f24ce0-01f9-4bf4-acf0-e4ab8fe9b8b2||Sequence: R016 ve11c/master r/e634e98; Dec 19 2017 11:00:25 by eja",
  "dcmmeta_affine": [
    [-1.9997080564498901, 0.0160549134016037, -0.0301661379635334, 99.83773040771484],
    [0.02648431621491909, 1.8438340425491333, -0.7743218541145325, -69.74796295166016],
    [-0.02159484289586544, 0.774608314037323, 1.8437775373458862, -76.148681640625],
    [0.0, 0.0, 0.0, 1.0]
],
  "dcmmeta_reorient_transform": [
    [0.0, -1.0, 0.0, 103.0],
    [1.0, 0.0, 0.0, 0.0],
    [0.0, 0.0, 1.0, 0.0],
    [0.0, 0.0, 0.0, 1.0]
],
  "dcmmeta_shape": [104, 104, 60, 464],
  "dcmmeta_slice_dim": 2,
  "dcmmeta_version": 0.6,
  "global": {
    "const": {
      "AcquisitionMatrix": [104, 0, 0, 104],
      "AngioFlag": "N",
      "BitsAllocated": 16,
      "BitsStored": 16,
      "BodyPartExamined": "BRAIN",
      "Columns": 832,
      "EchoNumbers": 1,
      "EchoTime": 37.0,
      "EchoTrainLength": 104,
      "FlipAngle": 52.0,
      "HighBit": 15,
      "ImageOrientationPatient": [0.99985401982113, -0.0132421578088, -0.0107974211779, 0.0080274567593, 0.92191704983191, -0.3873041610507],
      "ImagePositionPatient": [-835.22910305922, -781.6822669381, 293.45392629577],
      "ImageType": [
        "ORIGINAL",
        "PRIMARY",
        "M",
        "MB",
        "ND",
        "MOSAIC"
],
      "ImagedNucleus": "1H",
      "ImagingFrequency": 123.259127,
      "InPlanePhaseEncodingDirection": "COL",
      "MRAcquisitionType": "2D",
      "MagneticFieldStrength": 3.0,
      "Manufacturer": "SIEMENS",
      "ManufacturerModelName": "Prisma_fit",
      "Modality": "MR",
      "NumberOfAverages": 1.0,
      "NumberOfPhaseEncodingSteps": 104,
      "PercentPhaseFieldOfView": 100.0,
      "PercentSampling": 100.0,
      "PerformedProcedureStepStartTime": "180717.497000",
      "PhotometricInterpretation": "MONOCHROME2",
      "PixelBandwidth": 2290.0,
      "PixelRepresentation": 0,
      "PixelSpacing": [2.0, 2.0],
      "ProtocolName": "func_task-friends-s02e03b",
      "RepetitionTime": 1490.0,
      "Rows": 832,
      "SAR": 0.03235074219932,
      "SamplesPerPixel": 1,
      "ScanOptions": "FS",
      "ScanningSequence": "EP",
      "SequenceName": "epfid2d1_104",
      "SequenceVariant": [
        "SK",
        "SS"
],
      "SeriesDescription": "func_task-friends-s02e03b",
      "SeriesNumber": 15,
      "SeriesTime": "190655.017000",
      "SliceLocation": -44.702786039578,
      "SliceThickness": 2.0,
      "SmallestImagePixelValue": 0,
      "SoftwareVersions": "syngo MR E11",
      "SpacingBetweenSlices": 1.9999999463414,
      "SpecificCharacterSet": "ISO_IR 100",
      "StudyID": "1",
      "StudyTime": "180717.362000",
      "TransmitCoilName": "Body",
      "VariableFlipAngleFlag": "N",
      "WindowCenterWidthExplanation": "Algo1",
      "dBdt": 0.0},
    "slices": {}
  },
  "time": {
    "samples": {
      "AcquisitionNumber": [1, 2, 3, 4, 5, 6, 7, 8, 9, 10, 11, 12, 13, 14, 15, 16, 17, 18, 19, 20, 21, 22, 23, 24, 25, 26, 27, 28, 29, 30, 31, 32, 33, 34, 35, 36, 37, 38, 39, 40, 41, 42, 43, 44, 45, 46, 47, 48, 49, 50, 51, 52, 53, 54, 55, 56, 57, 58, 59, 60, 61, 62, 63, 64, 65, 66, 67, 68, 69, 70, 71, 72, 73, 74, 75, 76, 77, 78, 79, 80, 81, 82, 83, 84, 85, 86, 87, 88, 89, 90, 91, 92, 93, 94, 95, 96, 97, 98, 99, 100, 101, 102, 103, 104, 105, 106, 107, 108, 109, 110, 111, 112, 113, 114, 115, 116, 117, 118, 119, 120, 121, 122, 123, 124, 125, 126, 127, 128, 129, 130, 131, 132, 133, 134, 135, 136, 137, 138, 139, 140, 141, 142, 143, 144, 145, 146, 147, 148, 149, 150, 151, 152, 153, 154, 155, 156, 157, 158, 159, 160, 161, 162, 163, 164, 165, 166, 167, 168, 169, 170, 171, 172, 173, 174, 175, 176, 177, 178, 179, 180, 181, 182, 183, 184, 185, 186, 187, 188, 189, 190, 191, 192, 193, 194, 195, 196, 197, 198, 199, 200, 201, 202, 203, 204, 205, 206, 207, 208, 209, 210, 211, 212, 213, 214, 215, 216, 217, 218, 219, 220, 221, 222, 223, 224, 225, 226, 227, 228, 229, 230, 231, 232, 233, 234, 235, 236, 237, 238, 239, 240, 241, 242, 243, 244, 245, 246, 247, 248, 249, 250, 251, 252, 253, 254, 255, 256, 257, 258, 259, 260, 261, 262, 263, 264, 265, 266, 267, 268, 269, 270, 271, 272, 273, 274, 275, 276, 277, 278, 279, 280, 281, 282, 283, 284, 285, 286, 287, 288, 289, 290, 291, 292, 293, 294, 295, 296, 297, 298, 299, 300, 301, 302, 303, 304, 305, 306, 307, 308, 309, 310, 311, 312, 313, 314, 315, 316, 317, 318, 319, 320, 321, 322, 323, 324, 325, 326, 327, 328, 329, 330, 331, 332, 333, 334, 335, 336, 337, 338, 339, 340, 341, 342, 343, 344, 345, 346, 347, 348, 349, 350, 351, 352, 353, 354, 355, 356, 357, 358, 359, 360, 361, 362, 363, 364, 365, 366, 367, 368, 369, 370, 371, 372, 373, 374, 375, 376, 377, 378, 379, 380, 381, 382, 383, 384, 385, 386, 387, 388, 389, 390, 391, 392, 393, 394, 395, 396, 397, 398, 399, 400, 401, 402, 403, 404, 405, 406, 407, 408, 409, 410, 411, 412, 413, 414, 415, 416, 417, 418, 419, 420, 421, 422, 423, 424, 425, 426, 427, 428, 429, 430, 431, 432, 433, 434, 435, 436, 437, 438, 439, 440, 441, 442, 443, 444, 445, 446, 447, 448, 449, 450, 451, 452, 453, 454, 455, 456, 457, 458, 459, 460, 461, 462, 463, 464],
      "AcquisitionTime": ["190551.012500", "190552.502500", "190553.992500", "190555.482500", "190556.972500", "190558.462500", "190559.952500", "190601.442500", "190602.932500", "190604.422500", "190605.912500", "190607.402500", "190608.892500", "190610.382500", "190611.872500", "190613.362500", "190614.852500", "190616.342500", "190617.832500", "190619.322500", "190620.812500", "190622.302500", "190623.792500", "190625.282500", "190626.772500", "190628.262500", "190629.752500", "190631.242500", "190632.732500", "190634.222500", "190635.712500", "190637.202500", "190638.692500", "190640.182500", "190641.672500", "190643.162500", "190644.652500", "190646.142500", "190647.632500", "190649.122500", "190650.612500", "190652.102500", "190653.592500", "190655.082500", "190656.572500", "190658.062500", "190659.552500", "190701.042500", "190702.532500", "190704.022500", "190705.512500", "190707.002500", "190708.492500", "190709.982500", "190711.472500", "190712.962500", "190714.452500", "190715.942500", "190717.432500", "190718.922500", "190720.412500", "190721.902500", "190723.392500", "190724.882500", "190726.372500", "190727.862500", "190729.352500", "190730.842500", "190732.332500", "190733.822500", "190735.312500", "190736.802500", "190738.292500", "190739.782500", "190741.272500", "190742.762500", "190744.252500", "190745.742500", "190747.232500", "190748.722500", "190750.212500", "190751.702500", "190753.192500", "190754.682500", "190756.172500", "190757.662500", "190759.152500", "190800.642500", "190802.132500", "190803.622500", "190805.112500", "190806.602500", "190808.092500", "190809.582500", "190811.072500", "190812.562500", "190814.052500", "190815.542500", "190817.032500", "190818.522500", "190820.012500", "190821.502500", "190822.992500", "190824.482500", "190825.972500", "190827.462500", "190828.952500", "190830.442500", "190831.932500", "190833.422500", "190834.912500", "190836.402500", "190837.892500", "190839.382500", "190840.872500", "190842.362500", "190843.852500", "190845.342500", "190846.832500", "190848.322500", "190849.812500", "190851.302500", "190852.792500", "190854.282500", "190855.772500", "190857.262500", "190858.752500", "190900.242500", "190901.732500", "190903.222500", "190904.712500", "190906.202500", "190907.692500", "190909.182500", "190910.672500", "190912.162500", "190913.652500", "190915.142500", "190916.632500", "190918.122500", "190919.612500", "190921.102500", "190922.592500", "190924.082500", "190925.572500", "190927.062500", "190928.552500", "190930.042500", "190931.532500", "190933.022500", "190934.512500", "190936.002500", "190937.492500", "190938.982500", "190940.472500", "190941.962500", "190943.452500", "190944.942500", "190946.432500", "190947.922500", "190949.412500", "190950.902500", "190952.392500", "190953.882500", "190955.372500", "190956.862500", "190958.352500", "190959.842500", "191001.332500", "191002.822500", "191004.312500", "191005.802500", "191007.292500", "191008.782500", "191010.272500", "191011.762500", "191013.252500", "191014.742500", "191016.232500", "191017.722500", "191019.212500", "191020.702500", "191022.192500", "191023.682500", "191025.172500", "191026.662500", "191028.152500", "191029.642500", "191031.132500", "191032.622500", "191034.112500", "191035.602500", "191037.092500", "191038.582500", "191040.072500", "191041.562500", "191043.052500", "191044.542500", "191046.032500", "191047.522500", "191049.012500", "191050.502500", "191051.992500", "191053.482500", "191054.972500", "191056.462500", "191057.952500", "191059.442500", "191100.932500", "191102.422500", "191103.912500", "191105.402500", "191106.892500", "191108.382500", "191109.872500", "191111.362500", "191112.852500", "191114.342500", "191115.832500", "191117.322500", "191118.812500", "191120.302500", "191121.792500", "191123.282500", "191124.772500", "191126.262500", "191127.752500", "191129.242500", "191130.732500", "191132.222500", "191133.712500", "191135.202500", "191136.692500", "191138.182500", "191139.672500", "191141.162500", "191142.652500", "191144.142500", "191145.632500", "191147.122500", "191148.612500", "191150.102500", "191151.592500", "191153.082500", "191154.572500", "191156.062500", "191157.552500", "191159.042500", "191200.532500", "191202.022500", "191203.512500", "191205.002500", "191206.492500", "191207.982500", "191209.472500", "191210.962500", "191212.452500", "191213.942500", "191215.432500", "191216.922500", "191218.412500", "191219.902500", "191221.392500", "191222.882500", "191224.372500", "191225.862500", "191227.352500", "191228.842500", "191230.332500", "191231.822500", "191233.312500", "191234.802500", "191236.292500", "191237.782500", "191239.272500", "191240.762500", "191242.252500", "191243.742500", "191245.232500", "191246.722500", "191248.212500", "191249.702500", "191251.192500", "191252.682500", "191254.172500", "191255.662500", "191257.152500", "191258.642500", "191300.132500", "191301.622500", "191303.112500", "191304.602500", "191306.092500", "191307.582500", "191309.072500", "191310.562500", "191312.052500", "191313.542500", "191315.032500", "191316.522500", "191318.012500", "191319.502500", "191320.992500", "191322.482500", "191323.972500", "191325.462500", "191326.952500", "191328.442500", "191329.932500", "191331.422500", "191332.912500", "191334.402500", "191335.892500", "191337.382500", "191338.872500", "191340.362500", "191341.852500", "191343.342500", "191344.832500", "191346.322500", "191347.812500", "191349.302500", "191350.792500", "191352.282500", "191353.772500", "191355.262500", "191356.752500", "191358.242500", "191359.732500", "191401.222500", "191402.712500", "191404.202500", "191405.692500", "191407.182500", "191408.672500", "191410.162500", "191411.652500", "191413.142500", "191414.632500", "191416.122500", "191417.612500", "191419.102500", "191420.592500", "191422.082500", "191423.572500", "191425.062500", "191426.552500", "191428.042500", "191429.532500", "191431.022500", "191432.512500", "191434.002500", "191435.492500", "191436.982500", "191438.472500", "191439.962500", "191441.452500", "191442.942500", "191444.432500", "191445.922500", "191447.412500", "191448.902500", "191450.392500", "191451.882500", "191453.372500", "191454.862500", "191456.352500", "191457.842500", "191459.332500", "191500.822500", "191502.312500", "191503.802500", "191505.292500", "191506.782500", "191508.272500", "191509.762500", "191511.252500", "191512.742500", "191514.232500", "191515.722500", "191517.212500", "191518.702500", "191520.192500", "191521.682500", "191523.172500", "191524.662500", "191526.152500", "191527.642500", "191529.132500", "191530.622500", "191532.112500", "191533.602500", "191535.092500", "191536.582500", "191538.072500", "191539.562500", "191541.052500", "191542.542500", "191544.032500", "191545.522500", "191547.012500", "191548.502500", "191549.992500", "191551.482500", "191552.972500", "191554.462500", "191555.952500", "191557.442500", "191558.932500", "191600.422500", "191601.912500", "191603.402500", "191604.892500", "191606.382500", "191607.872500", "191609.362500", "191610.852500", "191612.342500", "191613.832500", "191615.322500", "191616.812500", "191618.302500", "191619.792500", "191621.282500", "191622.772500", "191624.262500", "191625.752500", "191627.242500", "191628.732500", "191630.222500", "191631.712500", "191633.202500", "191634.692500", "191636.182500", "191637.672500", "191639.162500", "191640.652500", "191642.142500", "191643.632500", "191645.122500", "191646.612500", "191648.102500", "191649.592500", "191651.082500", "191652.572500", "191654.062500", "191655.552500", "191657.042500", "191658.532500", "191700.022500", "191701.512500", "191703.002500", "191704.492500", "191705.982500", "191707.472500", "191708.962500", "191710.452500", "191711.942500", "191713.432500", "191714.922500", "191716.412500", "191717.902500", "191719.392500", "191720.882500"],
      "ContentTime": ["190655.020000", "190655.023000", "190655.026000", "190655.037000", "190655.040000", "190655.043000", "190655.046000", "190655.049000", "190655.052000", "190714.982000", "190714.985000", "190714.988000", "190715.001000", "190715.004000", "190715.007000", "190715.010000", "190715.012000", "190715.015000", "190715.018000", "190715.021000", "190715.024000", "190715.027000", "190715.030000", "190715.033000", "190715.036000", "190715.039000", "190715.042000", "190715.044000", "190715.055000", "190715.058000", "190734.982000", "190734.985000", "190734.988000", "190734.991000", "190734.994000", "190734.996000", "190735.000000", "190735.003000", "190735.006000", "190735.009000", "190735.012000", "190735.015000", "190735.018000", "190735.021000", "190735.024000", "190735.026000", "190735.029000", "190735.032000", "190735.035000", "190735.038000", "190754.982000", "190754.985000", "190754.988000", "190754.991000", "190754.994000", "190754.997000", "190755.001000", "190755.004000", "190755.006000", "190755.009000", "190755.012000", "190755.015000", "190755.018000", "190755.021000", "190755.024000", "190755.027000", "190755.029000", "190755.032000", "190755.035000", "190755.038000", "190814.981000", "190814.984000", "190814.987000", "190814.990000", "190814.992000", "190814.995000", "190814.998000", "190815.002000", "190815.005000", "190815.008000", "190815.017000", "190815.020000", "190815.023000", "190815.026000", "190815.029000", "190815.032000", "190815.034000", "190815.037000", "190815.040000", "190815.043000", "190854.981000", "190854.984000", "190854.987000", "190854.990000", "190855.001000", "190855.004000", "190855.007000", "190855.009000", "190855.012000", "190855.015000", "190855.018000", "190855.021000", "190855.024000", "190855.027000", "190855.030000", "190855.033000", "190855.036000", "190855.039000", "190855.042000", "190855.045000", "190855.048000", "190855.051000", "190855.053000", "190855.056000", "190855.059000", "190855.062000", "190855.065000", "190855.068000", "190855.071000", "190855.074000", "190855.077000", "190855.080000", "190855.083000", "190934.982000", "190934.985000", "190934.988000", "190934.991000", "190934.994000", "190934.997000", "190935.000000", "190935.003000", "190935.006000", "190935.009000", "190935.012000", "190935.015000", "190935.018000", "190935.021000", "190935.024000", "190935.027000", "190935.030000", "190935.033000", "190935.036000", "190935.039000", "190935.042000", "190935.045000", "190935.048000", "190935.051000", "190935.053000", "190935.056000", "190935.059000", "191014.981000", "191014.984000", "191014.987000", "191014.990000", "191014.993000", "191014.996000", "191015.000000", "191015.003000", "191015.006000", "191015.009000", "191015.012000", "191015.015000", "191015.018000", "191015.021000", "191015.031000", "191015.034000", "191015.037000", "191015.041000", "191015.044000", "191015.047000", "191015.050000", "191015.053000", "191015.056000", "191015.059000", "191015.062000", "191015.065000", "191054.981000", "191054.984000", "191054.987000", "191054.990000", "191054.993000", "191054.996000", "191055.000000", "191055.003000", "191055.006000", "191055.009000", "191055.012000", "191055.015000", "191055.018000", "191055.021000", "191055.024000", "191055.027000", "191055.030000", "191055.032000", "191055.035000", "191055.038000", "191055.041000", "191055.044000", "191055.047000", "191055.050000", "191055.053000", "191055.056000", "191055.059000", "191134.981000", "191134.984000", "191134.987000", "191134.990000", "191134.993000", "191134.996000", "191135.000000", "191135.003000", "191135.006000", "191135.009000", "191135.024000", "191135.027000", "191135.030000", "191135.033000", "191135.036000", "191135.039000", "191135.052000", "191135.055000", "191135.058000", "191135.061000", "191135.064000", "191135.067000", "191135.070000", "191135.073000", "191135.076000", "191135.079000", "191135.082000", "191214.982000", "191214.985000", "191214.988000", "191214.991000", "191214.994000", "191214.997000", "191215.001000", "191215.004000", "191215.007000", "191215.010000", "191215.013000", "191215.016000", "191215.018000", "191215.021000", "191215.024000", "191215.027000", "191215.030000", "191215.033000", "191215.036000", "191215.039000", "191215.042000", "191215.045000", "191215.048000", "191215.051000", "191215.054000", "191215.057000", "191215.059000", "191254.981000", "191254.984000", "191254.987000", "191254.990000", "191254.993000", "191254.996000", "191255.000000", "191255.003000", "191255.006000", "191255.009000", "191255.012000", "191255.015000", "191255.017000", "191255.020000", "191255.023000", "191255.026000", "191255.029000", "191255.032000", "191255.035000", "191255.038000", "191255.041000", "191255.044000", "191255.047000", "191255.050000", "191255.053000", "191255.056000", "191255.059000", "191334.981000", "191334.984000", "191334.987000", "191334.990000", "191334.993000", "191334.996000", "191335.005000", "191335.008000", "191335.011000", "191335.014000", "191335.017000", "191335.020000", "191335.023000", "191335.026000", "191335.029000", "191335.032000", "191335.035000", "191335.038000", "191335.041000", "191335.044000", "191335.047000", "191335.050000", "191335.052000", "191335.055000", "191335.058000", "191335.061000", "191335.064000", "191414.982000", "191414.985000", "191414.988000", "191414.991000", "191414.994000", "191414.997000", "191415.000000", "191415.003000", "191415.006000", "191415.009000", "191415.012000", "191415.025000", "191415.028000", "191415.031000", "191415.034000", "191415.037000", "191415.040000", "191415.047000", "191415.050000", "191415.053000", "191415.056000", "191415.059000", "191415.062000", "191415.065000", "191415.068000", "191415.071000", "191454.981000", "191454.984000", "191454.987000", "191454.990000", "191454.993000", "191454.996000", "191455.000000", "191455.003000", "191455.006000", "191455.009000", "191455.012000", "191455.015000", "191455.018000", "191455.021000", "191455.024000", "191455.027000", "191455.030000", "191455.033000", "191455.036000", "191455.039000", "191455.042000", "191455.045000", "191455.048000", "191455.051000", "191455.054000", "191455.057000", "191455.059000", "191534.981000", "191534.984000", "191534.987000", "191534.990000", "191534.993000", "191534.996000", "191535.000000", "191535.003000", "191535.006000", "191535.009000", "191535.012000", "191535.015000", "191535.018000", "191535.020000", "191535.023000", "191535.026000", "191535.029000", "191535.032000", "191535.035000", "191535.038000", "191535.041000", "191535.044000", "191535.047000", "191535.050000", "191535.053000", "191535.056000", "191535.059000", "191554.981000", "191554.984000", "191554.987000", "191554.990000", "191554.993000", "191554.996000", "191555.000000", "191555.003000", "191555.006000", "191555.009000", "191555.012000", "191555.022000", "191555.025000", "191555.028000", "191634.982000", "191634.986000", "191634.989000", "191634.992000", "191634.995000", "191634.998000", "191635.001000", "191635.004000", "191635.007000", "191635.010000", "191635.013000", "191635.016000", "191635.018000", "191635.029000", "191635.032000", "191635.035000", "191635.038000", "191635.041000", "191635.044000", "191635.047000", "191635.050000", "191635.053000", "191635.056000", "191635.059000", "191635.062000", "191635.065000", "191714.981000", "191714.984000", "191714.987000", "191714.990000", "191714.993000", "191714.996000", "191715.000000", "191715.003000", "191715.006000", "191715.009000", "191715.012000", "191715.015000", "191715.018000", "191715.021000", "191715.024000", "191715.027000", "191715.029000", "191715.032000", "191715.035000", "191715.038000", "191715.041000", "191715.044000", "191715.047000", "191715.050000", "191715.053000", "191715.056000", "191715.059000", "191722.834000", "191722.837000", "191722.840000", "191722.843000", "191722.846000", "191722.849000"],
