{
  "AcquisitionMatrixPE": 104,
  "AcquisitionNumber": 1,
  "AcquisitionTime": "14:04:2.987500",
  "BandwidthPerPixelPhaseEncode": 17.17,
  "BaseResolution": 104,
  "BodyPartExamined": "BRAIN",
  "CoilString": "HC1-7;NC1_2",
  "ConsistencyInfo": "N4_VE11C_LATEST_20160120",
  "ConversionSoftware": "dcm2niix",
  "ConversionSoftwareVersion": "v1.0.20190902",
  "DerivedVendorReportedEchoSpacing": 0.000560011,
  "DeviceSerialNumber": "167006",
  "DwellTime": 2.1e-06,
  "EchoTime": 0.037,
  "EchoTrainLength": 104,
  "EffectiveEchoSpacing": 0.000560011,
  "FlipAngle": 52,
  "ImageComments": "Unaliased_MB4_PE3_LB",
  "ImageOrientationPatientDICOM": [0.999847, 0.0164276, 0.0059266, -0.0109943, 0.855767, -0.517245],
  "ImageType": [
    "ORIGINAL",
    "PRIMARY",
    "M",
    "MB",
    "ND",
    "MOSAIC"
],
  "ImagingFrequency": 123.259,
  "InPlanePhaseEncodingDirectionDICOM": "COL",
  "InstitutionAddress": "Chemin_Queen-Mary_4565_Montreal_District_CA_H3W_1W5",
  "InstitutionName": "IUGM",
  "InstitutionalDepartmentName": "Department",
  "MRAcquisitionType": "2D",
  "MagneticFieldStrength": 3,
  "Manufacturer": "Siemens",
  "ManufacturersModelName": "Prisma_fit",
  "Modality": "MR",
  "MultibandAccelerationFactor": 4,
  "PartialFourier": 1,
  "PatientPosition": "HFS",
  "PercentPhaseFOV": 100,
  "PhaseEncodingDirection": "j",
  "PhaseEncodingSteps": 104,
  "PhaseResolution": 1,
  "PixelBandwidth": 2290,
  "ProcedureStepDescription": "video_friends",
  "ProtocolName": "func_task-friends-s05e15b",
  "PulseSequenceDetails": "%CustomerSeq%_cmrr_mbep2d_bold",
  "ReceiveCoilActiveElements": "HC1-7;NC1,2",
  "ReceiveCoilName": "HeadNeck_64",
  "ReconMatrixPE": 104,
  "RepetitionTime": 1.49,
  "SAR": 0.0351386,
  "ScanOptions": "FS",
  "ScanningSequence": "EP",
  "SequenceName": "epfid2d1_104",
  "SequenceVariant": "SK_SS",
  "SeriesDescription": "func_task-friends-s05e15b",
  "SeriesNumber": 13,
  "ShimSetting": [628, -7209, -8874, 390, -23, -211, 41, -15],
  "SliceThickness": 2,
  "SliceTiming": [0, 0.785, 0.0975, 0.8825, 0.195, 0.98, 0.295, 1.0775, 0.3925, 1.175, 0.49, 1.275, 0.5875, 1.3725, 0.685, 0, 0.785, 0.0975, 0.8825, 0.195, 0.98, 0.295, 1.0775, 0.3925, 1.175, 0.49, 1.275, 0.5875, 1.3725, 0.685, 0, 0.785, 0.0975, 0.8825, 0.195, 0.98, 0.295, 1.0775, 0.3925, 1.175, 0.49, 1.275, 0.5875, 1.3725, 0.685, 0, 0.785, 0.0975, 0.8825, 0.195, 0.98, 0.295, 1.0775, 0.3925, 1.175, 0.49, 1.275, 0.5875, 1.3725, 0.685],
  "SoftwareVersions": "syngo_MR_E11",
  "SpacingBetweenSlices": 2,
  "StationName": "MRC35049",
  "TaskName": "s05e15b",
  "TotalReadoutTime": 0.0576811,
  "TxRefAmp": 248.262,
  "WipMemBlock": "fe1c81b6-7028-48d8-a182-e9405b4898e0||Sequence: R016 ve11c/master r/e634e98; Dec 19 2017 11:00:25 by eja",
  "dcmmeta_affine": [
    [-1.9996949434280396, -0.02198868617415428, 0.027137720957398415, 103.7494125366211],
    [-0.032855138182640076, 1.711533546447754, -1.034201979637146, -57.22982406616211],
    [0.011853190138936043, 1.0344899892807007, 1.7116336822509766, -102.2320327758789],
    [0.0, 0.0, 0.0, 1.0]
],
  "dcmmeta_reorient_transform": [
    [0.0, -1.0, 0.0, 103.0],
    [1.0, 0.0, 0.0, 0.0],
    [0.0, 0.0, 1.0, 0.0],
    [0.0, 0.0, 0.0, 1.0]
],
  "dcmmeta_shape": [104, 104, 60, 477],
  "dcmmeta_slice_dim": 2,
  "dcmmeta_version": 0.6,
  "global": {
    "const": {
      "AcquisitionMatrix": [104, 0, 0, 104],
      "AngioFlag": "N",
      "BitsAllocated": 16,
      "BitsStored": 16,
      "BodyPartExamined": "BRAIN",
      "Columns": 832,
      "EchoNumbers": 1,
      "EchoTime": 37.0,
      "EchoTrainLength": 104,
      "FlipAngle": 52.0,
      "HighBit": 15,
      "ImageOrientationPatient": [0.99984749359312, 0.01642756917938, 0.0059265948419, -0.0109943426271, 0.85576675016297, -0.5172450035967],
      "ImagePositionPatient": [-821.3696735992, -754.01559015096, 376.56024188962],
      "ImageType": [
        "ORIGINAL",
        "PRIMARY",
        "M",
        "MB",
        "ND",
        "MOSAIC"
],
      "ImagedNucleus": "1H",
      "ImagingFrequency": 123.259022,
      "InPlanePhaseEncodingDirection": "COL",
      "MRAcquisitionType": "2D",
      "MagneticFieldStrength": 3.0,
      "Manufacturer": "SIEMENS",
      "ManufacturerModelName": "Prisma_fit",
      "Modality": "MR",
      "NumberOfAverages": 1.0,
      "NumberOfPhaseEncodingSteps": 104,
      "PercentPhaseFieldOfView": 100.0,
      "PercentSampling": 100.0,
      "PerformedProcedureStepStartTime": "134008.412000",
      "PhotometricInterpretation": "MONOCHROME2",
      "PixelBandwidth": 2290.0,
      "PixelRepresentation": 0,
      "PixelSpacing": [2.0, 2.0],
      "ProtocolName": "func_task-friends-s05e15b",
      "RepetitionTime": 1490.0,
      "Rows": 832,
      "SAR": 0.03513856186652,
      "SamplesPerPixel": 1,
      "ScanOptions": "FS",
      "ScanningSequence": "EP",
      "SequenceName": "epfid2d1_104",
      "SequenceVariant": [
        "SK",
        "SS"
],
      "SeriesDescription": "func_task-friends-s05e15b",
      "SeriesNumber": 13,
      "SeriesTime": "140532.361000",
      "SliceLocation": -56.490535478435,
      "SliceThickness": 2.0,
      "SmallestImagePixelValue": 0,
      "SoftwareVersions": "syngo MR E11",
      "SpacingBetweenSlices": 1.999999998051,
      "SpecificCharacterSet": "ISO_IR 100",
      "StudyID": "1",
      "StudyTime": "134008.342000",
      "TransmitCoilName": "Body",
      "VariableFlipAngleFlag": "N",
      "WindowCenterWidthExplanation": "Algo1",
      "dBdt": 0.0},
    "slices": {}
  },
  "time": {
    "samples": {
      "AcquisitionNumber": [1, 2, 3, 4, 5, 6, 7, 8, 9, 10, 11, 12, 13, 14, 15, 16, 17, 18, 19, 20, 21, 22, 23, 24, 25, 26, 27, 28, 29, 30, 31, 32, 33, 34, 35, 36, 37, 38, 39, 40, 41, 42, 43, 44, 45, 46, 47, 48, 49, 50, 51, 52, 53, 54, 55, 56, 57, 58, 59, 60, 61, 62, 63, 64, 65, 66, 67, 68, 69, 70, 71, 72, 73, 74, 75, 76, 77, 78, 79, 80, 81, 82, 83, 84, 85, 86, 87, 88, 89, 90, 91, 92, 93, 94, 95, 96, 97, 98, 99, 100, 101, 102, 103, 104, 105, 106, 107, 108, 109, 110, 111, 112, 113, 114, 115, 116, 117, 118, 119, 120, 121, 122, 123, 124, 125, 126, 127, 128, 129, 130, 131, 132, 133, 134, 135, 136, 137, 138, 139, 140, 141, 142, 143, 144, 145, 146, 147, 148, 149, 150, 151, 152, 153, 154, 155, 156, 157, 158, 159, 160, 161, 162, 163, 164, 165, 166, 167, 168, 169, 170, 171, 172, 173, 174, 175, 176, 177, 178, 179, 180, 181, 182, 183, 184, 185, 186, 187, 188, 189, 190, 191, 192, 193, 194, 195, 196, 197, 198, 199, 200, 201, 202, 203, 204, 205, 206, 207, 208, 209, 210, 211, 212, 213, 214, 215, 216, 217, 218, 219, 220, 221, 222, 223, 224, 225, 226, 227, 228, 229, 230, 231, 232, 233, 234, 235, 236, 237, 238, 239, 240, 241, 242, 243, 244, 245, 246, 247, 248, 249, 250, 251, 252, 253, 254, 255, 256, 257, 258, 259, 260, 261, 262, 263, 264, 265, 266, 267, 268, 269, 270, 271, 272, 273, 274, 275, 276, 277, 278, 279, 280, 281, 282, 283, 284, 285, 286, 287, 288, 289, 290, 291, 292, 293, 294, 295, 296, 297, 298, 299, 300, 301, 302, 303, 304, 305, 306, 307, 308, 309, 310, 311, 312, 313, 314, 315, 316, 317, 318, 319, 320, 321, 322, 323, 324, 325, 326, 327, 328, 329, 330, 331, 332, 333, 334, 335, 336, 337, 338, 339, 340, 341, 342, 343, 344, 345, 346, 347, 348, 349, 350, 351, 352, 353, 354, 355, 356, 357, 358, 359, 360, 361, 362, 363, 364, 365, 366, 367, 368, 369, 370, 371, 372, 373, 374, 375, 376, 377, 378, 379, 380, 381, 382, 383, 384, 385, 386, 387, 388, 389, 390, 391, 392, 393, 394, 395, 396, 397, 398, 399, 400, 401, 402, 403, 404, 405, 406, 407, 408, 409, 410, 411, 412, 413, 414, 415, 416, 417, 418, 419, 420, 421, 422, 423, 424, 425, 426, 427, 428, 429, 430, 431, 432, 433, 434, 435, 436, 437, 438, 439, 440, 441, 442, 443, 444, 445, 446, 447, 448, 449, 450, 451, 452, 453, 454, 455, 456, 457, 458, 459, 460, 461, 462, 463, 464, 465, 466, 467, 468, 469, 470, 471, 472, 473, 474, 475, 476, 477],
      "AcquisitionTime": ["140402.987500", "140404.477500", "140405.967500", "140407.457500", "140408.947500", "140410.437500", "140411.927500", "140413.417500", "140414.907500", "140416.397500", "140417.887500", "140419.377500", "140420.867500", "140422.357500", "140423.847500", "140425.337500", "140426.827500", "140428.317500", "140429.807500", "140431.297500", "140432.787500", "140434.277500", "140435.767500", "140437.257500", "140438.747500", "140440.237500", "140441.727500", "140443.217500", "140444.707500", "140446.197500", "140447.687500", "140449.177500", "140450.667500", "140452.157500", "140453.647500", "140455.137500", "140456.627500", "140458.117500", "140459.607500", "140501.097500", "140502.587500", "140504.077500", "140505.567500", "140507.057500", "140508.547500", "140510.037500", "140511.527500", "140513.017500", "140514.507500", "140515.997500", "140517.487500", "140518.977500", "140520.467500", "140521.957500", "140523.447500", "140524.937500", "140526.427500", "140527.917500", "140529.407500", "140530.897500", "140532.387500", "140533.877500", "140535.367500", "140536.857500", "140538.347500", "140539.837500", "140541.327500", "140542.817500", "140544.307500", "140545.797500", "140547.287500", "140548.777500", "140550.267500", "140551.757500", "140553.247500", "140554.737500", "140556.227500", "140557.717500", "140559.207500", "140600.697500", "140602.187500", "140603.677500", "140605.167500", "140606.657500", "140608.147500", "140609.637500", "140611.127500", "140612.617500", "140614.107500", "140615.597500", "140617.087500", "140618.577500", "140620.067500", "140621.557500", "140623.047500", "140624.537500", "140626.027500", "140627.517500", "140629.007500", "140630.497500", "140631.987500", "140633.477500", "140634.967500", "140636.457500", "140637.947500", "140639.437500", "140640.927500", "140642.417500", "140643.907500", "140645.397500", "140646.887500", "140648.377500", "140649.867500", "140651.357500", "140652.847500", "140654.337500", "140655.827500", "140657.317500", "140658.807500", "140700.297500", "140701.787500", "140703.277500", "140704.767500", "140706.257500", "140707.747500", "140709.237500", "140710.727500", "140712.217500", "140713.707500", "140715.197500", "140716.687500", "140718.177500", "140719.667500", "140721.157500", "140722.647500", "140724.137500", "140725.627500", "140727.117500", "140728.607500", "140730.097500", "140731.587500", "140733.077500", "140734.567500", "140736.057500", "140737.547500", "140739.037500", "140740.527500", "140742.017500", "140743.507500", "140744.997500", "140746.487500", "140747.977500", "140749.467500", "140750.957500", "140752.447500", "140753.937500", "140755.427500", "140756.917500", "140758.407500", "140759.897500", "140801.387500", "140802.877500", "140804.367500", "140805.857500", "140807.347500", "140808.837500", "140810.327500", "140811.817500", "140813.307500", "140814.797500", "140816.287500", "140817.777500", "140819.267500", "140820.757500", "140822.247500", "140823.737500", "140825.227500", "140826.717500", "140828.207500", "140829.697500", "140831.187500", "140832.677500", "140834.167500", "140835.657500", "140837.147500", "140838.637500", "140840.127500", "140841.617500", "140843.107500", "140844.597500", "140846.087500", "140847.577500", "140849.067500", "140850.557500", "140852.047500", "140853.537500", "140855.027500", "140856.517500", "140858.007500", "140859.497500", "140900.987500", "140902.477500", "140903.967500", "140905.457500", "140906.947500", "140908.437500", "140909.927500", "140911.417500", "140912.907500", "140914.397500", "140915.887500", "140917.377500", "140918.867500", "140920.357500", "140921.847500", "140923.337500", "140924.827500", "140926.317500", "140927.807500", "140929.297500", "140930.787500", "140932.277500", "140933.767500", "140935.257500", "140936.747500", "140938.237500", "140939.727500", "140941.217500", "140942.707500", "140944.197500", "140945.687500", "140947.177500", "140948.667500", "140950.157500", "140951.647500", "140953.137500", "140954.627500", "140956.117500", "140957.607500", "140959.097500", "141000.587500", "141002.077500", "141003.567500", "141005.057500", "141006.547500", "141008.037500", "141009.527500", "141011.017500", "141012.507500", "141013.997500", "141015.487500", "141016.977500", "141018.467500", "141019.957500", "141021.447500", "141022.937500", "141024.427500", "141025.917500", "141027.407500", "141028.897500", "141030.387500", "141031.877500", "141033.367500", "141034.857500", "141036.347500", "141037.837500", "141039.327500", "141040.817500", "141042.307500", "141043.797500", "141045.287500", "141046.777500", "141048.267500", "141049.757500", "141051.247500", "141052.737500", "141054.227500", "141055.717500", "141057.207500", "141058.697500", "141100.187500", "141101.677500", "141103.167500", "141104.657500", "141106.147500", "141107.637500", "141109.127500", "141110.617500", "141112.107500", "141113.597500", "141115.087500", "141116.577500", "141118.067500", "141119.557500", "141121.047500", "141122.537500", "141124.027500", "141125.517500", "141127.007500", "141128.497500", "141129.987500", "141131.477500", "141132.967500", "141134.457500", "141135.947500", "141137.437500", "141138.927500", "141140.417500", "141141.907500", "141143.397500", "141144.887500", "141146.377500", "141147.867500", "141149.357500", "141150.847500", "141152.337500", "141153.827500", "141155.317500", "141156.807500", "141158.297500", "141159.787500", "141201.277500", "141202.767500", "141204.257500", "141205.747500", "141207.237500", "141208.727500", "141210.217500", "141211.707500", "141213.197500", "141214.687500", "141216.177500", "141217.667500", "141219.157500", "141220.647500", "141222.137500", "141223.627500", "141225.117500", "141226.607500", "141228.097500", "141229.587500", "141231.077500", "141232.567500", "141234.057500", "141235.547500", "141237.037500", "141238.527500", "141240.017500", "141241.507500", "141242.997500", "141244.487500", "141245.977500", "141247.467500", "141248.957500", "141250.447500", "141251.937500", "141253.427500", "141254.917500", "141256.407500", "141257.897500", "141259.387500", "141300.877500", "141302.367500", "141303.857500", "141305.347500", "141306.837500", "141308.327500", "141309.817500", "141311.307500", "141312.797500", "141314.287500", "141315.777500", "141317.267500", "141318.757500", "141320.247500", "141321.737500", "141323.227500", "141324.717500", "141326.207500", "141327.697500", "141329.187500", "141330.677500", "141332.167500", "141333.657500", "141335.147500", "141336.637500", "141338.127500", "141339.617500", "141341.107500", "141342.597500", "141344.087500", "141345.577500", "141347.067500", "141348.557500", "141350.047500", "141351.537500", "141353.027500", "141354.517500", "141356.007500", "141357.497500", "141358.987500", "141400.477500", "141401.967500", "141403.457500", "141404.947500", "141406.437500", "141407.927500", "141409.417500", "141410.907500", "141412.397500", "141413.887500", "141415.377500", "141416.867500", "141418.357500", "141419.847500", "141421.337500", "141422.827500", "141424.317500", "141425.807500", "141427.297500", "141428.787500", "141430.277500", "141431.767500", "141433.257500", "141434.747500", "141436.237500", "141437.727500", "141439.217500", "141440.707500", "141442.197500", "141443.687500", "141445.177500", "141446.667500", "141448.157500", "141449.647500", "141451.137500", "141452.627500", "141454.117500", "141455.607500", "141457.097500", "141458.587500", "141500.077500", "141501.567500", "141503.057500", "141504.547500", "141506.037500", "141507.527500", "141509.017500", "141510.507500", "141511.997500", "141513.487500", "141514.977500", "141516.467500", "141517.957500", "141519.447500", "141520.937500", "141522.427500", "141523.917500", "141525.407500", "141526.897500", "141528.387500", "141529.877500", "141531.367500", "141532.857500", "141534.347500", "141535.837500", "141537.327500", "141538.817500", "141540.307500", "141541.797500", "141543.287500", "141544.777500", "141546.267500", "141547.757500", "141549.247500", "141550.737500", "141552.227500"],
      "ContentTime": ["140532.364000", "140532.367000", "140532.372000", "140532.375000", "140532.378000", "140532.381000", "140532.383000", "140532.386000", "140532.389000", "140532.392000", "140532.395000", "140532.398000", "140532.401000", "140532.411000", "140532.414000", "140532.417000", "140532.420000", "140532.422000", "140532.425000", "140532.428000", "140532.431000", "140532.434000", "140532.437000", "140532.440000", "140532.443000", "140532.446000", "140532.449000", "140532.452000", "140532.455000", "140532.458000", "140532.461000", "140552.310000", "140552.313000", "140552.316000", "140552.319000", "140552.322000", "140552.325000", "140552.328000", "140552.331000", "140552.334000", "140552.336000", "140552.339000", "140552.342000", "140552.345000", "140552.348000", "140552.351000", "140552.354000", "140552.357000", "140552.360000", "140552.363000", "140552.366000", "140612.310000", "140612.313000", "140612.316000", "140612.319000", "140612.322000", "140612.325000", "140612.327000", "140612.330000", "140612.339000", "140612.342000", "140612.345000", "140612.348000", "140612.351000", "140612.354000", "140612.357000", "140612.359000", "140612.362000", "140612.365000", "140612.368000", "140612.371000", "140632.310000", "140632.313000", "140632.316000", "140632.319000", "140632.322000", "140632.324000", "140632.327000", "140632.330000", "140632.333000", "140632.336000", "140632.339000", "140632.342000", "140632.345000", "140632.348000", "140632.351000", "140632.354000", "140632.357000", "140632.359000", "140632.362000", "140632.365000", "140652.311000", "140652.315000", "140652.318000", "140652.321000", "140652.324000", "140652.327000", "140652.330000", "140652.334000", "140652.337000", "140652.340000", "140652.343000", "140652.346000", "140652.349000", "140652.352000", "140652.355000", "140652.358000", "140652.361000", "140652.364000", "140652.367000", "140652.370000", "140652.373000", "140732.310000", "140732.313000", "140732.327000", "140732.330000", "140732.333000", "140732.336000", "140732.339000", "140732.342000", "140732.345000", "140732.347000", "140732.350000", "140732.353000", "140732.356000", "140732.359000", "140732.362000", "140732.365000", "140732.368000", "140732.371000", "140732.374000", "140732.377000", "140732.380000", "140732.383000", "140732.386000", "140732.388000", "140732.391000", "140732.394000", "140732.397000", "140812.310000", "140812.313000", "140812.316000", "140812.319000", "140812.322000", "140812.325000", "140812.328000", "140812.331000", "140812.334000", "140812.337000", "140812.340000", "140812.343000", "140812.346000", "140812.349000", "140812.352000", "140812.355000", "140812.358000", "140812.361000", "140812.364000", "140812.367000", "140812.370000", "140812.373000", "140812.375000", "140812.378000", "140812.381000", "140812.384000", "140812.387000", "140852.310000", "140852.313000", "140852.316000", "140852.319000", "140852.322000", "140852.325000", "140852.328000", "140852.331000", "140852.334000", "140852.337000", "140852.340000", "140852.343000", "140852.346000", "140852.349000", "140852.351000", "140852.354000", "140852.363000", "140852.366000", "140852.369000", "140852.372000", "140852.375000", "140852.378000", "140852.381000", "140852.384000", "140852.387000", "140852.390000", "140852.393000", "140932.310000", "140932.313000", "140932.316000", "140932.319000", "140932.322000", "140932.325000", "140932.328000", "140932.331000", "140932.334000", "140932.337000", "140932.340000", "140932.343000", "140932.346000", "140932.349000", "140932.352000", "140932.355000", "140932.358000", "140932.361000", "140932.364000", "140932.367000", "140932.380000", "140932.383000", "140932.386000", "140932.389000", "140932.392000", "140932.395000", "140932.398000", "141012.310000", "141012.313000", "141012.316000", "141012.319000", "141012.322000", "141012.325000", "141012.328000", "141012.331000", "141012.334000", "141012.337000", "141012.340000", "141012.343000", "141012.346000", "141012.348000", "141012.352000", "141012.355000", "141012.357000", "141012.360000", "141012.363000", "141012.366000", "141012.369000", "141012.372000", "141012.375000", "141012.378000", "141012.381000", "141012.384000", "141012.387000", "141032.310000", "141032.313000", "141032.316000", "141032.319000", "141032.322000", "141032.325000", "141032.328000", "141032.331000", "141032.334000", "141032.337000", "141032.340000", "141032.343000", "141032.346000", "141112.310000", "141112.313000", "141112.326000", "141112.329000", "141112.332000", "141112.335000", "141112.338000", "141112.341000", "141112.344000", "141112.347000", "141112.350000", "141112.353000", "141112.356000", "141112.359000", "141112.363000", "141112.366000", "141112.369000", "141112.372000", "141112.375000", "141112.378000", "141112.380000", "141112.383000", "141112.386000", "141112.389000", "141112.392000", "141112.395000", "141112.398000", "141152.310000", "141152.313000", "141152.316000", "141152.319000", "141152.322000", "141152.325000", "141152.328000", "141152.331000", "141152.334000", "141152.337000", "141152.340000", "141152.343000", "141152.346000", "141152.349000", "141152.352000", "141152.355000", "141152.358000", "141152.361000", "141152.364000", "141152.367000", "141152.370000", "141152.373000", "141152.376000", "141152.378000", "141152.381000", "141152.384000", "141152.387000", "141232.310000", "141232.313000", "141232.316000", "141232.319000", "141232.322000", "141232.325000", "141232.328000", "141232.331000", "141232.334000", "141232.337000", "141232.348000", "141232.350000", "141232.354000", "141232.357000", "141232.359000", "141232.362000", "141232.365000", "141232.368000", "141232.371000", "141232.374000", "141232.377000", "141232.380000", "141232.383000", "141232.386000", "141232.389000", "141232.392000", "141232.395000", "141312.310000", "141312.313000", "141312.317000", "141312.319000", "141312.322000", "141312.325000", "141312.328000", "141312.331000", "141312.334000", "141312.337000", "141312.340000", "141312.343000", "141312.346000", "141312.349000", "141312.352000", "141312.355000", "141312.358000", "141312.361000", "141312.364000", "141312.367000", "141312.370000", "141312.373000", "141312.375000", "141312.378000", "141312.397000", "141312.400000", "141352.311000", "141352.314000", "141352.317000", "141352.320000", "141352.323000", "141352.326000", "141352.329000", "141352.332000", "141352.335000", "141352.338000", "141352.341000", "141352.344000", "141352.347000", "141352.350000", "141352.353000", "141352.355000", "141352.358000", "141352.361000", "141352.364000", "141352.367000", "141352.370000", "141352.373000", "141352.376000", "141352.379000", "141352.382000", "141352.385000", "141352.388000", "141432.310000", "141432.313000", "141432.316000", "141432.319000", "141432.322000", "141432.325000", "141432.328000", "141432.331000", "141432.334000", "141432.337000", "141432.340000", "141432.343000", "141432.346000", "141432.349000", "141432.352000", "141432.354000", "141432.357000", "141432.360000", "141432.363000", "141432.366000", "141432.369000", "141432.372000", "141432.375000", "141432.378000", "141432.381000", "141432.383000", "141432.386000", "141512.310000", "141512.313000", "141512.316000", "141512.319000", "141512.322000", "141512.325000", "141512.328000", "141512.331000", "141512.333000", "141512.336000", "141512.339000", "141512.342000", "141512.345000", "141512.348000", "141512.351000", "141512.354000", "141512.357000", "141512.360000", "141512.363000", "141512.366000", "141512.369000", "141512.372000", "141512.375000", "141512.378000", "141512.381000", "141512.384000", "141512.387000", "141552.310000", "141552.313000", "141552.316000", "141552.319000", "141552.322000", "141552.325000", "141552.328000", "141552.331000", "141552.334000", "141552.337000", "141552.340000", "141552.343000", "141552.346000", "141552.349000", "141552.352000", "141552.355000", "141552.358000", "141552.361000", "141552.364000", "141552.367000", "141552.369000", "141552.372000", "141552.376000", "141552.378000", "141552.381000", "141552.384000", "141552.387000", "141554.866000", "141554.869000"],
