{
  "AcquisitionMatrixPE": 104,
  "AcquisitionNumber": 1,
  "AcquisitionTime": "14:29:6.787500",
  "BandwidthPerPixelPhaseEncode": 17.17,
  "BaseResolution": 104,
  "BodyPartExamined": "BRAIN",
  "CoilString": "HC1-7;NC1_2",
  "ConsistencyInfo": "N4_VE11C_LATEST_20160120",
  "ConversionSoftware": "dcm2niix",
  "ConversionSoftwareVersion": "v1.0.20190902",
  "DerivedVendorReportedEchoSpacing": 0.000560011,
  "DeviceSerialNumber": "167006",
  "DwellTime": 2.1e-06,
  "EchoTime": 0.037,
  "EchoTrainLength": 104,
  "EffectiveEchoSpacing": 0.000560011,
  "FlipAngle": 52,
  "ImageComments": "Unaliased_MB4_PE3_LB",
  "ImageOrientationPatientDICOM": [0.999847, 0.0164276, 0.0059266, -0.0109943, 0.855767, -0.517245],
  "ImageType": [
    "ORIGINAL",
    "PRIMARY",
    "M",
    "MB",
    "ND",
    "MOSAIC"
],
  "ImagingFrequency": 123.259,
  "InPlanePhaseEncodingDirectionDICOM": "COL",
  "InstitutionAddress": "Chemin_Queen-Mary_4565_Montreal_District_CA_H3W_1W5",
  "InstitutionName": "IUGM",
  "InstitutionalDepartmentName": "Department",
  "MRAcquisitionType": "2D",
  "MagneticFieldStrength": 3,
  "Manufacturer": "Siemens",
  "ManufacturersModelName": "Prisma_fit",
  "Modality": "MR",
  "MultibandAccelerationFactor": 4,
  "PartialFourier": 1,
  "PatientPosition": "HFS",
  "PercentPhaseFOV": 100,
  "PhaseEncodingDirection": "j",
  "PhaseEncodingSteps": 104,
  "PhaseResolution": 1,
  "PixelBandwidth": 2290,
  "ProcedureStepDescription": "video_friends",
  "ProtocolName": "func_task-friends-s05e16b",
  "PulseSequenceDetails": "%CustomerSeq%_cmrr_mbep2d_bold",
  "ReceiveCoilActiveElements": "HC1-7;NC1,2",
  "ReceiveCoilName": "HeadNeck_64",
  "ReconMatrixPE": 104,
  "RepetitionTime": 1.49,
  "SAR": 0.0351504,
  "ScanOptions": "FS",
  "ScanningSequence": "EP",
  "SequenceName": "epfid2d1_104",
  "SequenceVariant": "SK_SS",
  "SeriesDescription": "func_task-friends-s05e16b",
  "SeriesNumber": 17,
  "ShimSetting": [628, -7209, -8874, 390, -23, -211, 41, -15],
  "SliceThickness": 2,
  "SliceTiming": [0, 0.785, 0.1, 0.8825, 0.1975, 0.98, 0.295, 1.08, 0.3925, 1.1775, 0.49, 1.275, 0.59, 1.3725, 0.6875, 0, 0.785, 0.1, 0.8825, 0.1975, 0.98, 0.295, 1.08, 0.3925, 1.1775, 0.49, 1.275, 0.59, 1.3725, 0.6875, 0, 0.785, 0.1, 0.8825, 0.1975, 0.98, 0.295, 1.08, 0.3925, 1.1775, 0.49, 1.275, 0.59, 1.3725, 0.6875, 0, 0.785, 0.1, 0.8825, 0.1975, 0.98, 0.295, 1.08, 0.3925, 1.1775, 0.49, 1.275, 0.59, 1.3725, 0.6875],
  "SoftwareVersions": "syngo_MR_E11",
  "SpacingBetweenSlices": 2,
  "StationName": "MRC35049",
  "TaskName": "s05e16b",
  "TotalReadoutTime": 0.0576811,
  "TxRefAmp": 248.262,
  "WipMemBlock": "ef0ed3db-773b-464b-9b35-2ab5e3ca2f8d||Sequence: R016 ve11c/master r/e634e98; Dec 19 2017 11:00:25 by eja",
  "dcmmeta_affine": [
    [-1.9996949434280396, -0.02198868617415428, 0.027137720957398415, 103.7494125366211],
    [-0.032855138182640076, 1.711533546447754, -1.034201979637146, -57.22982406616211],
    [0.011853190138936043, 1.0344899892807007, 1.7116336822509766, -102.2320327758789],
    [0.0, 0.0, 0.0, 1.0]
],
  "dcmmeta_reorient_transform": [
    [0.0, -1.0, 0.0, 103.0],
    [1.0, 0.0, 0.0, 0.0],
    [0.0, 0.0, 1.0, 0.0],
    [0.0, 0.0, 0.0, 1.0]
],
  "dcmmeta_shape": [104, 104, 60, 519],
  "dcmmeta_slice_dim": 2,
  "dcmmeta_version": 0.6,
  "global": {
    "const": {
      "AcquisitionMatrix": [104, 0, 0, 104],
      "AngioFlag": "N",
      "BitsAllocated": 16,
      "BitsStored": 16,
      "BodyPartExamined": "BRAIN",
      "Columns": 832,
      "EchoNumbers": 1,
      "EchoTime": 37.0,
      "EchoTrainLength": 104,
      "FlipAngle": 52.0,
      "HighBit": 15,
      "ImageOrientationPatient": [0.99984749359312, 0.01642756917938, 0.0059265948419, -0.0109943426271, 0.85576675016297, -0.5172450035967],
      "ImagePositionPatient": [-821.3696735992, -754.01559015096, 376.56024188962],
      "ImageType": [
        "ORIGINAL",
        "PRIMARY",
        "M",
        "MB",
        "ND",
        "MOSAIC"
],
      "ImagedNucleus": "1H",
      "ImagingFrequency": 123.259036,
      "InPlanePhaseEncodingDirection": "COL",
      "MRAcquisitionType": "2D",
      "MagneticFieldStrength": 3.0,
      "Manufacturer": "SIEMENS",
      "ManufacturerModelName": "Prisma_fit",
      "Modality": "MR",
      "NumberOfAverages": 1.0,
      "NumberOfPhaseEncodingSteps": 104,
      "PercentPhaseFieldOfView": 100.0,
      "PercentSampling": 100.0,
      "PerformedProcedureStepStartTime": "134008.412000",
      "PhotometricInterpretation": "MONOCHROME2",
      "PixelBandwidth": 2290.0,
      "PixelRepresentation": 0,
      "PixelSpacing": [2.0, 2.0],
      "ProtocolName": "func_task-friends-s05e16b",
      "RepetitionTime": 1490.0,
      "Rows": 832,
      "SAR": 0.03515035975343,
      "SamplesPerPixel": 1,
      "ScanOptions": "FS",
      "ScanningSequence": "EP",
      "SequenceName": "epfid2d1_104",
      "SequenceVariant": [
        "SK",
        "SS"
],
      "SeriesDescription": "func_task-friends-s05e16b",
      "SeriesNumber": 17,
      "SeriesTime": "143024.939000",
      "SliceLocation": -56.490535478435,
      "SliceThickness": 2.0,
      "SmallestImagePixelValue": 0,
      "SoftwareVersions": "syngo MR E11",
      "SpacingBetweenSlices": 1.999999998051,
      "SpecificCharacterSet": "ISO_IR 100",
      "StudyID": "1",
      "StudyTime": "134008.342000",
      "TransmitCoilName": "Body",
      "VariableFlipAngleFlag": "N",
      "WindowCenterWidthExplanation": "Algo1",
      "dBdt": 0.0},
    "slices": {}
  },
  "time": {
    "samples": {
      "AcquisitionNumber": [1, 2, 3, 4, 5, 6, 7, 8, 9, 10, 11, 12, 13, 14, 15, 16, 17, 18, 19, 20, 21, 22, 23, 24, 25, 26, 27, 28, 29, 30, 31, 32, 33, 34, 35, 36, 37, 38, 39, 40, 41, 42, 43, 44, 45, 46, 47, 48, 49, 50, 51, 52, 53, 54, 55, 56, 57, 58, 59, 60, 61, 62, 63, 64, 65, 66, 67, 68, 69, 70, 71, 72, 73, 74, 75, 76, 77, 78, 79, 80, 81, 82, 83, 84, 85, 86, 87, 88, 89, 90, 91, 92, 93, 94, 95, 96, 97, 98, 99, 100, 101, 102, 103, 104, 105, 106, 107, 108, 109, 110, 111, 112, 113, 114, 115, 116, 117, 118, 119, 120, 121, 122, 123, 124, 125, 126, 127, 128, 129, 130, 131, 132, 133, 134, 135, 136, 137, 138, 139, 140, 141, 142, 143, 144, 145, 146, 147, 148, 149, 150, 151, 152, 153, 154, 155, 156, 157, 158, 159, 160, 161, 162, 163, 164, 165, 166, 167, 168, 169, 170, 171, 172, 173, 174, 175, 176, 177, 178, 179, 180, 181, 182, 183, 184, 185, 186, 187, 188, 189, 190, 191, 192, 193, 194, 195, 196, 197, 198, 199, 200, 201, 202, 203, 204, 205, 206, 207, 208, 209, 210, 211, 212, 213, 214, 215, 216, 217, 218, 219, 220, 221, 222, 223, 224, 225, 226, 227, 228, 229, 230, 231, 232, 233, 234, 235, 236, 237, 238, 239, 240, 241, 242, 243, 244, 245, 246, 247, 248, 249, 250, 251, 252, 253, 254, 255, 256, 257, 258, 259, 260, 261, 262, 263, 264, 265, 266, 267, 268, 269, 270, 271, 272, 273, 274, 275, 276, 277, 278, 279, 280, 281, 282, 283, 284, 285, 286, 287, 288, 289, 290, 291, 292, 293, 294, 295, 296, 297, 298, 299, 300, 301, 302, 303, 304, 305, 306, 307, 308, 309, 310, 311, 312, 313, 314, 315, 316, 317, 318, 319, 320, 321, 322, 323, 324, 325, 326, 327, 328, 329, 330, 331, 332, 333, 334, 335, 336, 337, 338, 339, 340, 341, 342, 343, 344, 345, 346, 347, 348, 349, 350, 351, 352, 353, 354, 355, 356, 357, 358, 359, 360, 361, 362, 363, 364, 365, 366, 367, 368, 369, 370, 371, 372, 373, 374, 375, 376, 377, 378, 379, 380, 381, 382, 383, 384, 385, 386, 387, 388, 389, 390, 391, 392, 393, 394, 395, 396, 397, 398, 399, 400, 401, 402, 403, 404, 405, 406, 407, 408, 409, 410, 411, 412, 413, 414, 415, 416, 417, 418, 419, 420, 421, 422, 423, 424, 425, 426, 427, 428, 429, 430, 431, 432, 433, 434, 435, 436, 437, 438, 439, 440, 441, 442, 443, 444, 445, 446, 447, 448, 449, 450, 451, 452, 453, 454, 455, 456, 457, 458, 459, 460, 461, 462, 463, 464, 465, 466, 467, 468, 469, 470, 471, 472, 473, 474, 475, 476, 477, 478, 479, 480, 481, 482, 483, 484, 485, 486, 487, 488, 489, 490, 491, 492, 493, 494, 495, 496, 497, 498, 499, 500, 501, 502, 503, 504, 505, 506, 507, 508, 509, 510, 511, 512, 513, 514, 515, 516, 517, 518, 519],
      "AcquisitionTime": ["142906.787500", "142908.277500", "142909.767500", "142911.257500", "142912.747500", "142914.237500", "142915.727500", "142917.217500", "142918.707500", "142920.197500", "142921.687500", "142923.177500", "142924.667500", "142926.157500", "142927.647500", "142929.137500", "142930.627500", "142932.117500", "142933.607500", "142935.097500", "142936.587500", "142938.077500", "142939.567500", "142941.057500", "142942.547500", "142944.037500", "142945.527500", "142947.017500", "142948.507500", "142949.997500", "142951.487500", "142952.977500", "142954.467500", "142955.957500", "142957.447500", "142958.937500", "143000.427500", "143001.917500", "143003.407500", "143004.897500", "143006.387500", "143007.877500", "143009.367500", "143010.857500", "143012.347500", "143013.837500", "143015.327500", "143016.817500", "143018.307500", "143019.797500", "143021.287500", "143022.777500", "143024.267500", "143025.757500", "143027.247500", "143028.737500", "143030.227500", "143031.717500", "143033.207500", "143034.697500", "143036.187500", "143037.677500", "143039.167500", "143040.657500", "143042.147500", "143043.637500", "143045.127500", "143046.617500", "143048.107500", "143049.597500", "143051.087500", "143052.577500", "143054.067500", "143055.557500", "143057.047500", "143058.537500", "143100.027500", "143101.517500", "143103.007500", "143104.497500", "143105.987500", "143107.477500", "143108.967500", "143110.457500", "143111.947500", "143113.437500", "143114.927500", "143116.417500", "143117.907500", "143119.397500", "143120.887500", "143122.377500", "143123.867500", "143125.357500", "143126.847500", "143128.337500", "143129.827500", "143131.317500", "143132.807500", "143134.297500", "143135.787500", "143137.277500", "143138.767500", "143140.257500", "143141.747500", "143143.237500", "143144.727500", "143146.217500", "143147.707500", "143149.197500", "143150.687500", "143152.177500", "143153.667500", "143155.157500", "143156.647500", "143158.137500", "143159.627500", "143201.117500", "143202.607500", "143204.097500", "143205.587500", "143207.077500", "143208.567500", "143210.057500", "143211.547500", "143213.037500", "143214.527500", "143216.017500", "143217.507500", "143218.997500", "143220.487500", "143221.977500", "143223.467500", "143224.957500", "143226.447500", "143227.937500", "143229.427500", "143230.917500", "143232.407500", "143233.897500", "143235.387500", "143236.877500", "143238.367500", "143239.857500", "143241.347500", "143242.837500", "143244.327500", "143245.817500", "143247.307500", "143248.797500", "143250.287500", "143251.777500", "143253.267500", "143254.757500", "143256.247500", "143257.737500", "143259.227500", "143300.717500", "143302.207500", "143303.697500", "143305.187500", "143306.677500", "143308.167500", "143309.657500", "143311.147500", "143312.637500", "143314.127500", "143315.617500", "143317.107500", "143318.597500", "143320.087500", "143321.577500", "143323.067500", "143324.557500", "143326.047500", "143327.537500", "143329.027500", "143330.517500", "143332.007500", "143333.497500", "143334.987500", "143336.477500", "143337.967500", "143339.457500", "143340.947500", "143342.437500", "143343.927500", "143345.417500", "143346.907500", "143348.397500", "143349.887500", "143351.377500", "143352.867500", "143354.357500", "143355.847500", "143357.337500", "143358.827500", "143400.317500", "143401.807500", "143403.297500", "143404.787500", "143406.277500", "143407.767500", "143409.257500", "143410.747500", "143412.237500", "143413.727500", "143415.217500", "143416.707500", "143418.197500", "143419.687500", "143421.177500", "143422.667500", "143424.157500", "143425.647500", "143427.137500", "143428.627500", "143430.117500", "143431.607500", "143433.097500", "143434.587500", "143436.077500", "143437.567500", "143439.057500", "143440.547500", "143442.037500", "143443.527500", "143445.017500", "143446.507500", "143447.997500", "143449.487500", "143450.977500", "143452.467500", "143453.957500", "143455.447500", "143456.937500", "143458.427500", "143459.917500", "143501.407500", "143502.897500", "143504.387500", "143505.877500", "143507.367500", "143508.857500", "143510.347500", "143511.837500", "143513.327500", "143514.817500", "143516.307500", "143517.797500", "143519.287500", "143520.777500", "143522.267500", "143523.757500", "143525.247500", "143526.737500", "143528.227500", "143529.717500", "143531.207500", "143532.697500", "143534.187500", "143535.677500", "143537.167500", "143538.657500", "143540.147500", "143541.637500", "143543.127500", "143544.617500", "143546.107500", "143547.597500", "143549.087500", "143550.577500", "143552.067500", "143553.557500", "143555.047500", "143556.537500", "143558.027500", "143559.517500", "143601.007500", "143602.497500", "143603.987500", "143605.477500", "143606.967500", "143608.457500", "143609.947500", "143611.437500", "143612.927500", "143614.417500", "143615.907500", "143617.397500", "143618.887500", "143620.377500", "143621.867500", "143623.357500", "143624.847500", "143626.337500", "143627.827500", "143629.317500", "143630.807500", "143632.297500", "143633.787500", "143635.277500", "143636.767500", "143638.257500", "143639.747500", "143641.237500", "143642.727500", "143644.217500", "143645.707500", "143647.197500", "143648.687500", "143650.177500", "143651.667500", "143653.157500", "143654.647500", "143656.137500", "143657.627500", "143659.117500", "143700.607500", "143702.097500", "143703.587500", "143705.077500", "143706.567500", "143708.057500", "143709.547500", "143711.037500", "143712.527500", "143714.017500", "143715.507500", "143716.997500", "143718.487500", "143719.977500", "143721.467500", "143722.957500", "143724.447500", "143725.937500", "143727.427500", "143728.917500", "143730.407500", "143731.897500", "143733.387500", "143734.877500", "143736.367500", "143737.857500", "143739.347500", "143740.837500", "143742.327500", "143743.817500", "143745.307500", "143746.797500", "143748.287500", "143749.777500", "143751.267500", "143752.757500", "143754.247500", "143755.737500", "143757.227500", "143758.717500", "143800.207500", "143801.697500", "143803.187500", "143804.677500", "143806.167500", "143807.657500", "143809.147500", "143810.637500", "143812.127500", "143813.617500", "143815.107500", "143816.597500", "143818.087500", "143819.577500", "143821.067500", "143822.557500", "143824.047500", "143825.537500", "143827.027500", "143828.517500", "143830.007500", "143831.497500", "143832.987500", "143834.477500", "143835.967500", "143837.457500", "143838.947500", "143840.437500", "143841.927500", "143843.417500", "143844.907500", "143846.397500", "143847.887500", "143849.377500", "143850.867500", "143852.357500", "143853.847500", "143855.337500", "143856.827500", "143858.317500", "143859.807500", "143901.297500", "143902.787500", "143904.277500", "143905.767500", "143907.257500", "143908.747500", "143910.237500", "143911.727500", "143913.217500", "143914.707500", "143916.197500", "143917.687500", "143919.177500", "143920.667500", "143922.157500", "143923.647500", "143925.137500", "143926.627500", "143928.117500", "143929.607500", "143931.097500", "143932.587500", "143934.077500", "143935.567500", "143937.057500", "143938.547500", "143940.037500", "143941.527500", "143943.017500", "143944.507500", "143945.997500", "143947.487500", "143948.977500", "143950.467500", "143951.957500", "143953.447500", "143954.937500", "143956.427500", "143957.917500", "143959.407500", "144000.897500", "144002.387500", "144003.877500", "144005.367500", "144006.857500", "144008.347500", "144009.837500", "144011.327500", "144012.817500", "144014.307500", "144015.797500", "144017.287500", "144018.777500", "144020.267500", "144021.757500", "144023.247500", "144024.737500", "144026.227500", "144027.717500", "144029.207500", "144030.697500", "144032.187500", "144033.677500", "144035.167500", "144036.657500", "144038.147500", "144039.637500", "144041.127500", "144042.617500", "144044.107500", "144045.597500", "144047.087500", "144048.577500", "144050.067500", "144051.557500", "144053.047500", "144054.537500", "144056.027500", "144057.517500", "144059.007500", "144100.497500", "144101.987500", "144103.477500", "144104.967500", "144106.457500", "144107.947500", "144109.437500", "144110.927500", "144112.417500", "144113.907500", "144115.397500", "144116.887500", "144118.377500", "144119.867500", "144121.357500", "144122.847500", "144124.337500", "144125.827500", "144127.317500", "144128.807500", "144130.297500", "144131.787500", "144133.277500", "144134.767500", "144136.257500", "144137.747500", "144139.237500", "144140.727500", "144142.217500", "144143.707500", "144145.197500", "144146.687500", "144148.177500", "144149.667500", "144151.157500", "144152.647500", "144154.137500", "144155.627500", "144157.117500", "144158.607500"],
      "ContentTime": ["143024.943000", "143024.952000", "143024.955000", "143024.958000", "143024.961000", "143024.964000", "143024.967000", "143024.970000", "143024.973000", "143024.979000", "143024.982000", "143024.985000", "143024.988000", "143024.991000", "143024.994000", "143024.997000", "143025.001000", "143025.004000", "143025.007000", "143025.010000", "143025.013000", "143025.016000", "143025.018000", "143025.021000", "143044.909000", "143044.912000", "143044.915000", "143044.918000", "143044.921000", "143044.924000", "143044.927000", "143044.930000", "143044.933000", "143044.935000", "143044.939000", "143044.941000", "143044.944000", "143044.947000", "143044.950000", "143044.953000", "143044.956000", "143044.959000", "143044.970000", "143044.973000", "143104.910000", "143104.913000", "143104.916000", "143104.919000", "143104.922000", "143104.925000", "143104.928000", "143104.931000", "143104.934000", "143104.937000", "143104.940000", "143104.943000", "143104.946000", "143104.949000", "143104.952000", "143104.954000", "143104.957000", "143104.960000", "143104.963000", "143104.966000", "143124.910000", "143124.913000", "143124.916000", "143124.919000", "143124.922000", "143124.925000", "143124.928000", "143124.931000", "143124.934000", "143124.937000", "143124.940000", "143124.943000", "143124.946000", "143124.949000", "143124.952000", "143124.954000", "143124.957000", "143124.960000", "143124.963000", "143124.966000", "143144.910000", "143144.913000", "143144.916000", "143144.919000", "143144.922000", "143144.925000", "143144.928000", "143144.931000", "143144.934000", "143144.936000", "143144.939000", "143144.942000", "143144.945000", "143144.948000", "143144.951000", "143144.954000", "143144.957000", "143144.960000", "143144.963000", "143144.966000", "143144.969000", "143224.909000", "143224.912000", "143224.915000", "143224.918000", "143224.921000", "143224.924000", "143224.927000", "143224.930000", "143224.933000", "143224.936000", "143224.939000", "143224.966000", "143224.969000", "143224.972000", "143224.975000", "143224.978000", "143224.981000", "143224.984000", "143224.987000", "143224.990000", "143224.993000", "143224.996000", "143225.000000", "143225.003000", "143225.006000", "143225.009000", "143225.012000", "143304.909000", "143304.912000", "143304.915000", "143304.918000", "143304.921000", "143304.924000", "143304.927000", "143304.930000", "143304.933000", "143304.936000", "143304.939000", "143304.942000", "143304.945000", "143304.948000", "143304.951000", "143304.954000", "143304.957000", "143304.960000", "143304.963000", "143304.965000", "143304.968000", "143304.971000", "143304.974000", "143304.977000", "143304.980000", "143304.983000", "143304.986000", "143344.910000", "143344.913000", "143344.916000", "143344.919000", "143344.922000", "143344.925000", "143344.928000", "143344.931000", "143344.934000", "143344.937000", "143344.940000", "143344.943000", "143344.946000", "143344.949000", "143344.951000", "143344.955000", "143344.957000", "143344.960000", "143344.963000", "143344.966000", "143344.969000", "143344.972000", "143344.975000", "143344.978000", "143344.981000", "143344.984000", "143344.987000", "143424.909000", "143424.912000", "143424.915000", "143424.918000", "143424.921000", "143424.924000", "143424.927000", "143424.930000", "143424.933000", "143424.936000", "143424.939000", "143424.942000", "143424.945000", "143424.948000", "143424.951000", "143424.954000", "143424.956000", "143424.959000", "143424.962000", "143424.965000", "143424.968000", "143424.971000", "143424.974000", "143424.977000", "143424.980000", "143424.983000", "143424.986000", "143504.909000", "143504.912000", "143504.915000", "143504.918000", "143504.921000", "143504.924000", "143504.927000", "143504.930000", "143504.933000", "143504.936000", "143504.939000", "143504.942000", "143504.945000", "143504.948000", "143504.951000", "143504.954000", "143504.957000", "143504.960000", "143504.962000", "143504.965000", "143504.968000", "143504.971000", "143504.974000", "143504.977000", "143504.980000", "143504.983000", "143504.986000", "143544.910000", "143544.913000", "143544.916000", "143544.919000", "143544.922000", "143544.925000", "143544.940000", "143544.943000", "143544.946000", "143544.949000", "143544.952000", "143544.955000", "143544.957000", "143544.960000", "143544.963000", "143544.966000", "143544.969000", "143544.972000", "143544.975000", "143544.979000", "143544.982000", "143544.985000", "143544.988000", "143544.991000", "143544.994000", "143544.997000", "143624.910000", "143624.913000", "143624.916000", "143624.919000", "143624.922000", "143624.925000", "143624.928000", "143624.931000", "143624.934000", "143624.937000", "143624.945000", "143624.948000", "143624.951000", "143624.954000", "143624.957000", "143624.960000", "143624.963000", "143624.966000", "143624.969000", "143624.972000", "143624.975000", "143624.977000", "143624.981000", "143624.983000", "143624.986000", "143624.989000", "143624.992000", "143704.909000", "143704.912000", "143704.915000", "143704.918000", "143704.921000", "143704.924000", "143704.927000", "143704.942000", "143704.945000", "143704.948000", "143704.951000", "143704.954000", "143704.956000", "143704.959000", "143704.962000", "143704.965000", "143704.968000", "143704.971000", "143704.974000", "143704.977000", "143704.980000", "143704.983000", "143704.986000", "143704.989000", "143704.992000", "143704.995000", "143704.998000", "143744.909000", "143744.912000", "143744.915000", "143744.918000", "143744.921000", "143744.924000", "143744.927000", "143744.930000", "143744.933000", "143744.936000", "143744.939000", "143744.942000", "143744.945000", "143744.948000", "143744.950000", "143744.953000", "143744.956000", "143744.959000", "143744.962000", "143744.965000", "143744.968000", "143744.971000", "143744.974000", "143744.977000", "143744.980000", "143744.983000", "143744.986000", "143824.910000", "143824.913000", "143824.916000", "143824.919000", "143824.922000", "143824.925000", "143824.928000", "143824.931000", "143824.934000", "143824.937000", "143824.940000", "143824.943000", "143824.946000", "143824.949000", "143824.951000", "143824.955000", "143824.957000", "143824.960000", "143824.963000", "143824.966000", "143824.969000", "143824.972000", "143824.975000", "143824.978000", "143824.981000", "143824.984000", "143824.987000", "143904.909000", "143904.912000", "143904.915000", "143904.918000", "143904.921000", "143904.924000", "143904.927000", "143904.930000", "143904.933000", "143904.936000", "143904.939000", "143904.942000", "143904.945000", "143904.947000", "143904.950000", "143904.953000", "143904.956000", "143904.959000", "143904.962000", "143904.965000", "143904.968000", "143904.971000", "143904.974000", "143904.977000", "143904.980000", "143904.983000", "143904.986000", "143944.909000", "143944.912000", "143944.915000", "143944.918000", "143944.921000", "143944.924000", "143944.927000", "143944.930000", "143944.933000", "143944.936000", "143944.939000", "143944.942000", "143944.945000", "143944.948000", "143944.950000", "143944.953000", "143944.956000", "143944.959000", "143944.962000", "143944.965000", "143944.968000", "143944.971000", "143944.974000", "143944.977000", "143944.980000", "143944.983000", "144024.910000", "144024.913000", "144024.916000", "144024.919000", "144024.922000", "144024.925000", "144024.928000", "144024.931000", "144024.934000", "144024.937000", "144024.939000", "144024.943000", "144024.946000", "144024.948000", "144024.951000", "144024.954000", "144024.957000", "144024.960000", "144024.963000", "144024.966000", "144024.969000", "144024.972000", "144024.975000", "144024.978000", "144024.981000", "144024.984000", "144024.987000", "144104.909000", "144104.912000", "144104.915000", "144104.918000", "144104.921000", "144104.924000", "144104.927000", "144104.930000", "144104.933000", "144104.936000", "144104.939000", "144104.942000", "144104.945000", "144104.948000", "144104.951000", "144104.954000", "144104.957000", "144104.960000", "144104.963000", "144104.966000", "144104.968000", "144104.971000", "144104.974000", "144104.977000", "144104.980000", "144104.983000", "144104.986000", "144144.909000", "144144.912000", "144144.932000", "144144.935000", "144144.937000", "144144.940000", "144144.943000", "144144.946000", "144144.949000", "144144.952000", "144144.955000", "144144.958000", "144144.961000", "144144.964000", "144144.967000", "144144.970000", "144144.973000", "144144.975000", "144144.978000", "144144.981000", "144144.984000", "144144.987000", "144144.990000", "144144.993000", "144144.996000", "144145.000000", "144145.003000", "144200.650000", "144200.653000", "144200.656000", "144200.659000", "144200.661000", "144200.664000", "144200.667000", "144200.670000", "144200.673000", "144200.676000", "144200.679000"],
