{
  "AcquisitionMatrixPE": 104,
  "AcquisitionNumber": 1,
  "AcquisitionTime": "14:54:28.750000",
  "BandwidthPerPixelPhaseEncode": 17.17,
  "BaseResolution": 104,
  "BodyPartExamined": "BRAIN",
  "CoilString": "HC1-7;NC1_2",
  "ConsistencyInfo": "N4_VE11C_LATEST_20160120",
  "ConversionSoftware": "dcm2niix",
  "ConversionSoftwareVersion": "v1.0.20190902",
  "DerivedVendorReportedEchoSpacing": 0.000560011,
  "DeviceSerialNumber": "167006",
  "DwellTime": 2.1e-06,
  "EchoTime": 0.037,
  "EchoTrainLength": 104,
  "EffectiveEchoSpacing": 0.000560011,
  "FlipAngle": 52,
  "ImageComments": "Unaliased_MB4_PE3_LB",
  "ImageOrientationPatientDICOM": [0.999847, 0.0164276, 0.0059266, -0.0109943, 0.855767, -0.517245],
  "ImageType": [
    "ORIGINAL",
    "PRIMARY",
    "M",
    "MB",
    "ND",
    "MOSAIC"
],
  "ImagingFrequency": 123.259,
  "InPlanePhaseEncodingDirectionDICOM": "COL",
  "InstitutionAddress": "Chemin_Queen-Mary_4565_Montreal_District_CA_H3W_1W5",
  "InstitutionName": "IUGM",
  "InstitutionalDepartmentName": "Department",
  "MRAcquisitionType": "2D",
  "MagneticFieldStrength": 3,
  "Manufacturer": "Siemens",
  "ManufacturersModelName": "Prisma_fit",
  "Modality": "MR",
  "MultibandAccelerationFactor": 4,
  "PartialFourier": 1,
  "PatientPosition": "HFS",
  "PercentPhaseFOV": 100,
  "PhaseEncodingDirection": "j",
  "PhaseEncodingSteps": 104,
  "PhaseResolution": 1,
  "PixelBandwidth": 2290,
  "ProcedureStepDescription": "video_friends",
  "ProtocolName": "func_task-friends-s05e17b",
  "PulseSequenceDetails": "%CustomerSeq%_cmrr_mbep2d_bold",
  "ReceiveCoilActiveElements": "HC1-7;NC1,2",
  "ReceiveCoilName": "HeadNeck_64",
  "ReconMatrixPE": 104,
  "RepetitionTime": 1.49,
  "SAR": 0.0351413,
  "ScanOptions": "FS",
  "ScanningSequence": "EP",
  "SequenceName": "epfid2d1_104",
  "SequenceVariant": "SK_SS",
  "SeriesDescription": "func_task-friends-s05e17b",
  "SeriesNumber": 21,
  "ShimSetting": [628, -7209, -8874, 390, -23, -211, 41, -15],
  "SliceThickness": 2,
  "SliceTiming": [0, 0.7825, 0.0975, 0.88, 0.195, 0.98, 0.2925, 1.0775, 0.39, 1.175, 0.49, 1.2725, 0.5875, 1.37, 0.685, 0, 0.7825, 0.0975, 0.88, 0.195, 0.98, 0.2925, 1.0775, 0.39, 1.175, 0.49, 1.2725, 0.5875, 1.37, 0.685, 0, 0.7825, 0.0975, 0.88, 0.195, 0.98, 0.2925, 1.0775, 0.39, 1.175, 0.49, 1.2725, 0.5875, 1.37, 0.685, 0, 0.7825, 0.0975, 0.88, 0.195, 0.98, 0.2925, 1.0775, 0.39, 1.175, 0.49, 1.2725, 0.5875, 1.37, 0.685],
  "SoftwareVersions": "syngo_MR_E11",
  "SpacingBetweenSlices": 2,
  "StationName": "MRC35049",
  "TaskName": "s05e17b",
  "TotalReadoutTime": 0.0576811,
  "TxRefAmp": 248.262,
  "WipMemBlock": "36862137-f6e0-4fa0-8ac1-5a6dd2a6fd86||Sequence: R016 ve11c/master r/e634e98; Dec 19 2017 11:00:25 by eja",
  "dcmmeta_affine": [
    [-1.9996949434280396, -0.02198868617415428, 0.027137720957398415, 103.7494125366211],
    [-0.032855138182640076, 1.711533546447754, -1.034201979637146, -57.22982406616211],
    [0.011853190138936043, 1.0344899892807007, 1.7116336822509766, -102.2320327758789],
    [0.0, 0.0, 0.0, 1.0]
],
  "dcmmeta_reorient_transform": [
    [0.0, -1.0, 0.0, 103.0],
    [1.0, 0.0, 0.0, 0.0],
    [0.0, 0.0, 1.0, 0.0],
    [0.0, 0.0, 0.0, 1.0]
],
  "dcmmeta_shape": [104, 104, 60, 486],
  "dcmmeta_slice_dim": 2,
  "dcmmeta_version": 0.6,
  "global": {
    "const": {
      "AcquisitionMatrix": [104, 0, 0, 104],
      "AngioFlag": "N",
      "BitsAllocated": 16,
      "BitsStored": 16,
      "BodyPartExamined": "BRAIN",
      "Columns": 832,
      "EchoNumbers": 1,
      "EchoTime": 37.0,
      "EchoTrainLength": 104,
      "FlipAngle": 52.0,
      "HighBit": 15,
      "ImageOrientationPatient": [0.99984749359312, 0.01642756917938, 0.0059265948419, -0.0109943426271, 0.85576675016297, -0.5172450035967],
      "ImagePositionPatient": [-821.3696735992, -754.01559015096, 376.56024188962],
      "ImageType": [
        "ORIGINAL",
        "PRIMARY",
        "M",
        "MB",
        "ND",
        "MOSAIC"
],
      "ImagedNucleus": "1H",
      "ImagingFrequency": 123.25904,
      "InPlanePhaseEncodingDirection": "COL",
      "MRAcquisitionType": "2D",
      "MagneticFieldStrength": 3.0,
      "Manufacturer": "SIEMENS",
      "ManufacturerModelName": "Prisma_fit",
      "Modality": "MR",
      "NumberOfAverages": 1.0,
      "NumberOfPhaseEncodingSteps": 104,
      "PercentPhaseFieldOfView": 100.0,
      "PercentSampling": 100.0,
      "PerformedProcedureStepStartTime": "134008.412000",
      "PhotometricInterpretation": "MONOCHROME2",
      "PixelBandwidth": 2290.0,
      "PixelRepresentation": 0,
      "PixelSpacing": [2.0, 2.0],
      "ProtocolName": "func_task-friends-s05e17b",
      "RepetitionTime": 1490.0,
      "Rows": 832,
      "SAR": 0.03514126101125,
      "SamplesPerPixel": 1,
      "ScanOptions": "FS",
      "ScanningSequence": "EP",
      "SequenceName": "epfid2d1_104",
      "SequenceVariant": [
        "SK",
        "SS"
],
      "SeriesDescription": "func_task-friends-s05e17b",
      "SeriesNumber": 21,
      "SeriesTime": "145559.827000",
      "SliceLocation": -56.490535478435,
      "SliceThickness": 2.0,
      "SmallestImagePixelValue": 0,
      "SoftwareVersions": "syngo MR E11",
      "SpacingBetweenSlices": 1.999999998051,
      "SpecificCharacterSet": "ISO_IR 100",
      "StudyID": "1",
      "StudyTime": "134008.342000",
      "TransmitCoilName": "Body",
      "VariableFlipAngleFlag": "N",
      "WindowCenterWidthExplanation": "Algo1",
      "dBdt": 0.0},
    "slices": {}
  },
  "time": {
    "samples": {
      "AcquisitionNumber": [1, 2, 3, 4, 5, 6, 7, 8, 9, 10, 11, 12, 13, 14, 15, 16, 17, 18, 19, 20, 21, 22, 23, 24, 25, 26, 27, 28, 29, 30, 31, 32, 33, 34, 35, 36, 37, 38, 39, 40, 41, 42, 43, 44, 45, 46, 47, 48, 49, 50, 51, 52, 53, 54, 55, 56, 57, 58, 59, 60, 61, 62, 63, 64, 65, 66, 67, 68, 69, 70, 71, 72, 73, 74, 75, 76, 77, 78, 79, 80, 81, 82, 83, 84, 85, 86, 87, 88, 89, 90, 91, 92, 93, 94, 95, 96, 97, 98, 99, 100, 101, 102, 103, 104, 105, 106, 107, 108, 109, 110, 111, 112, 113, 114, 115, 116, 117, 118, 119, 120, 121, 122, 123, 124, 125, 126, 127, 128, 129, 130, 131, 132, 133, 134, 135, 136, 137, 138, 139, 140, 141, 142, 143, 144, 145, 146, 147, 148, 149, 150, 151, 152, 153, 154, 155, 156, 157, 158, 159, 160, 161, 162, 163, 164, 165, 166, 167, 168, 169, 170, 171, 172, 173, 174, 175, 176, 177, 178, 179, 180, 181, 182, 183, 184, 185, 186, 187, 188, 189, 190, 191, 192, 193, 194, 195, 196, 197, 198, 199, 200, 201, 202, 203, 204, 205, 206, 207, 208, 209, 210, 211, 212, 213, 214, 215, 216, 217, 218, 219, 220, 221, 222, 223, 224, 225, 226, 227, 228, 229, 230, 231, 232, 233, 234, 235, 236, 237, 238, 239, 240, 241, 242, 243, 244, 245, 246, 247, 248, 249, 250, 251, 252, 253, 254, 255, 256, 257, 258, 259, 260, 261, 262, 263, 264, 265, 266, 267, 268, 269, 270, 271, 272, 273, 274, 275, 276, 277, 278, 279, 280, 281, 282, 283, 284, 285, 286, 287, 288, 289, 290, 291, 292, 293, 294, 295, 296, 297, 298, 299, 300, 301, 302, 303, 304, 305, 306, 307, 308, 309, 310, 311, 312, 313, 314, 315, 316, 317, 318, 319, 320, 321, 322, 323, 324, 325, 326, 327, 328, 329, 330, 331, 332, 333, 334, 335, 336, 337, 338, 339, 340, 341, 342, 343, 344, 345, 346, 347, 348, 349, 350, 351, 352, 353, 354, 355, 356, 357, 358, 359, 360, 361, 362, 363, 364, 365, 366, 367, 368, 369, 370, 371, 372, 373, 374, 375, 376, 377, 378, 379, 380, 381, 382, 383, 384, 385, 386, 387, 388, 389, 390, 391, 392, 393, 394, 395, 396, 397, 398, 399, 400, 401, 402, 403, 404, 405, 406, 407, 408, 409, 410, 411, 412, 413, 414, 415, 416, 417, 418, 419, 420, 421, 422, 423, 424, 425, 426, 427, 428, 429, 430, 431, 432, 433, 434, 435, 436, 437, 438, 439, 440, 441, 442, 443, 444, 445, 446, 447, 448, 449, 450, 451, 452, 453, 454, 455, 456, 457, 458, 459, 460, 461, 462, 463, 464, 465, 466, 467, 468, 469, 470, 471, 472, 473, 474, 475, 476, 477, 478, 479, 480, 481, 482, 483, 484, 485, 486],
      "AcquisitionTime": ["145428.750000", "145430.240000", "145431.730000", "145433.220000", "145434.710000", "145436.200000", "145437.690000", "145439.180000", "145440.670000", "145442.160000", "145443.650000", "145445.140000", "145446.630000", "145448.120000", "145449.610000", "145451.100000", "145452.590000", "145454.080000", "145455.570000", "145457.060000", "145458.550000", "145500.040000", "145501.530000", "145503.020000", "145504.510000", "145506.000000", "145507.490000", "145508.980000", "145510.470000", "145511.960000", "145513.450000", "145514.940000", "145516.430000", "145517.920000", "145519.410000", "145520.900000", "145522.390000", "145523.880000", "145525.370000", "145526.860000", "145528.350000", "145529.840000", "145531.330000", "145532.820000", "145534.310000", "145535.800000", "145537.290000", "145538.780000", "145540.270000", "145541.760000", "145543.250000", "145544.740000", "145546.230000", "145547.720000", "145549.210000", "145550.700000", "145552.190000", "145553.680000", "145555.170000", "145556.660000", "145558.150000", "145559.640000", "145601.130000", "145602.620000", "145604.110000", "145605.600000", "145607.090000", "145608.580000", "145610.070000", "145611.560000", "145613.050000", "145614.540000", "145616.030000", "145617.520000", "145619.010000", "145620.500000", "145621.990000", "145623.480000", "145624.970000", "145626.460000", "145627.950000", "145629.440000", "145630.930000", "145632.420000", "145633.910000", "145635.400000", "145636.890000", "145638.380000", "145639.870000", "145641.360000", "145642.850000", "145644.340000", "145645.830000", "145647.320000", "145648.810000", "145650.300000", "145651.790000", "145653.280000", "145654.770000", "145656.260000", "145657.750000", "145659.240000", "145700.730000", "145702.220000", "145703.710000", "145705.200000", "145706.690000", "145708.180000", "145709.670000", "145711.160000", "145712.650000", "145714.140000", "145715.630000", "145717.120000", "145718.610000", "145720.100000", "145721.590000", "145723.080000", "145724.570000", "145726.060000", "145727.550000", "145729.040000", "145730.530000", "145732.020000", "145733.510000", "145735.000000", "145736.490000", "145737.980000", "145739.470000", "145740.960000", "145742.450000", "145743.940000", "145745.430000", "145746.920000", "145748.410000", "145749.900000", "145751.390000", "145752.880000", "145754.370000", "145755.860000", "145757.350000", "145758.840000", "145800.330000", "145801.820000", "145803.310000", "145804.800000", "145806.290000", "145807.780000", "145809.270000", "145810.760000", "145812.250000", "145813.740000", "145815.230000", "145816.720000", "145818.210000", "145819.700000", "145821.190000", "145822.680000", "145824.170000", "145825.660000", "145827.150000", "145828.640000", "145830.130000", "145831.620000", "145833.110000", "145834.600000", "145836.090000", "145837.580000", "145839.070000", "145840.560000", "145842.050000", "145843.540000", "145845.030000", "145846.520000", "145848.010000", "145849.500000", "145850.990000", "145852.480000", "145853.970000", "145855.460000", "145856.950000", "145858.440000", "145859.930000", "145901.420000", "145902.910000", "145904.400000", "145905.890000", "145907.380000", "145908.870000", "145910.360000", "145911.850000", "145913.340000", "145914.830000", "145916.320000", "145917.810000", "145919.300000", "145920.790000", "145922.280000", "145923.770000", "145925.260000", "145926.750000", "145928.240000", "145929.730000", "145931.220000", "145932.710000", "145934.200000", "145935.690000", "145937.180000", "145938.670000", "145940.160000", "145941.650000", "145943.140000", "145944.630000", "145946.120000", "145947.610000", "145949.100000", "145950.590000", "145952.080000", "145953.570000", "145955.060000", "145956.550000", "145958.040000", "145959.530000", "150001.020000", "150002.510000", "150004.000000", "150005.490000", "150006.980000", "150008.470000", "150009.960000", "150011.450000", "150012.940000", "150014.430000", "150015.920000", "150017.410000", "150018.900000", "150020.390000", "150021.880000", "150023.370000", "150024.860000", "150026.350000", "150027.840000", "150029.330000", "150030.820000", "150032.310000", "150033.800000", "150035.290000", "150036.780000", "150038.270000", "150039.760000", "150041.250000", "150042.740000", "150044.230000", "150045.720000", "150047.210000", "150048.700000", "150050.190000", "150051.680000", "150053.170000", "150054.660000", "150056.150000", "150057.640000", "150059.130000", "150100.620000", "150102.110000", "150103.600000", "150105.090000", "150106.580000", "150108.070000", "150109.560000", "150111.050000", "150112.540000", "150114.030000", "150115.520000", "150117.010000", "150118.500000", "150119.990000", "150121.480000", "150122.970000", "150124.460000", "150125.950000", "150127.440000", "150128.930000", "150130.420000", "150131.910000", "150133.400000", "150134.890000", "150136.380000", "150137.870000", "150139.360000", "150140.850000", "150142.340000", "150143.830000", "150145.320000", "150146.810000", "150148.300000", "150149.790000", "150151.280000", "150152.770000", "150154.260000", "150155.750000", "150157.240000", "150158.730000", "150200.220000", "150201.710000", "150203.200000", "150204.690000", "150206.180000", "150207.670000", "150209.160000", "150210.650000", "150212.140000", "150213.630000", "150215.120000", "150216.610000", "150218.100000", "150219.590000", "150221.080000", "150222.570000", "150224.060000", "150225.550000", "150227.040000", "150228.530000", "150230.020000", "150231.510000", "150233.000000", "150234.490000", "150235.980000", "150237.470000", "150238.960000", "150240.450000", "150241.940000", "150243.430000", "150244.920000", "150246.410000", "150247.900000", "150249.390000", "150250.880000", "150252.370000", "150253.860000", "150255.350000", "150256.840000", "150258.330000", "150259.820000", "150301.310000", "150302.800000", "150304.290000", "150305.780000", "150307.270000", "150308.760000", "150310.250000", "150311.740000", "150313.230000", "150314.720000", "150316.210000", "150317.700000", "150319.190000", "150320.680000", "150322.170000", "150323.660000", "150325.150000", "150326.640000", "150328.130000", "150329.620000", "150331.110000", "150332.600000", "150334.090000", "150335.580000", "150337.070000", "150338.560000", "150340.050000", "150341.540000", "150343.030000", "150344.520000", "150346.010000", "150347.500000", "150348.990000", "150350.480000", "150351.970000", "150353.460000", "150354.950000", "150356.440000", "150357.930000", "150359.420000", "150400.910000", "150402.400000", "150403.890000", "150405.380000", "150406.870000", "150408.360000", "150409.850000", "150411.340000", "150412.830000", "150414.320000", "150415.810000", "150417.300000", "150418.790000", "150420.280000", "150421.770000", "150423.260000", "150424.750000", "150426.240000", "150427.730000", "150429.220000", "150430.710000", "150432.200000", "150433.690000", "150435.180000", "150436.670000", "150438.160000", "150439.650000", "150441.140000", "150442.630000", "150444.120000", "150445.610000", "150447.100000", "150448.590000", "150450.080000", "150451.570000", "150453.060000", "150454.550000", "150456.040000", "150457.530000", "150459.020000", "150500.510000", "150502.000000", "150503.490000", "150504.980000", "150506.470000", "150507.960000", "150509.450000", "150510.940000", "150512.430000", "150513.920000", "150515.410000", "150516.900000", "150518.390000", "150519.880000", "150521.370000", "150522.860000", "150524.350000", "150525.840000", "150527.330000", "150528.820000", "150530.310000", "150531.800000", "150533.290000", "150534.780000", "150536.270000", "150537.760000", "150539.250000", "150540.740000", "150542.230000", "150543.720000", "150545.210000", "150546.700000", "150548.190000", "150549.680000", "150551.170000", "150552.660000", "150554.150000", "150555.640000", "150557.130000", "150558.620000", "150600.110000", "150601.600000", "150603.090000", "150604.580000", "150606.070000", "150607.560000", "150609.050000", "150610.540000", "150612.030000", "150613.520000", "150615.010000", "150616.500000", "150617.990000", "150619.480000", "150620.970000", "150622.460000", "150623.950000", "150625.440000", "150626.930000", "150628.420000", "150629.910000", "150631.400000"],
      "ContentTime": ["145559.830000", "145559.833000", "145559.836000", "145559.839000", "145559.842000", "145559.845000", "145559.848000", "145559.850000", "145559.853000", "145559.856000", "145559.860000", "145559.863000", "145559.866000", "145559.897000", "145559.900000", "145559.903000", "145559.906000", "145559.909000", "145559.912000", "145559.914000", "145559.917000", "145559.920000", "145559.923000", "145559.926000", "145559.929000", "145559.934000", "145559.937000", "145559.940000", "145559.943000", "145559.946000", "145559.949000", "145559.952000", "145559.954000", "145559.957000", "145559.960000", "145559.963000", "145559.966000", "145619.795000", "145619.798000", "145619.801000", "145619.804000", "145619.807000", "145619.810000", "145619.812000", "145619.815000", "145619.818000", "145619.821000", "145619.824000", "145619.827000", "145619.830000", "145619.832000", "145619.845000", "145619.848000", "145619.851000", "145619.854000", "145619.857000", "145619.860000", "145619.862000", "145639.795000", "145639.798000", "145639.801000", "145639.804000", "145639.807000", "145639.809000", "145639.812000", "145639.815000", "145639.818000", "145639.821000", "145639.824000", "145639.827000", "145639.830000", "145639.832000", "145639.835000", "145639.838000", "145639.842000", "145639.844000", "145639.847000", "145639.850000", "145659.796000", "145659.799000", "145659.802000", "145659.805000", "145659.808000", "145659.810000", "145659.813000", "145659.816000", "145659.819000", "145659.822000", "145659.825000", "145659.828000", "145659.831000", "145659.834000", "145659.836000", "145659.839000", "145659.842000", "145659.845000", "145659.848000", "145659.859000", "145739.796000", "145739.799000", "145739.802000", "145739.805000", "145739.808000", "145739.811000", "145739.814000", "145739.817000", "145739.820000", "145739.822000", "145739.825000", "145739.828000", "145739.831000", "145739.834000", "145739.837000", "145739.840000", "145739.843000", "145739.846000", "145739.849000", "145739.852000", "145739.854000", "145739.857000", "145739.860000", "145739.863000", "145739.866000", "145739.869000", "145739.872000", "145739.875000", "145739.879000", "145819.795000", "145819.798000", "145819.801000", "145819.804000", "145819.807000", "145819.810000", "145819.813000", "145819.816000", "145819.819000", "145819.822000", "145819.825000", "145819.828000", "145819.831000", "145819.833000", "145819.837000", "145819.839000", "145819.842000", "145819.846000", "145819.849000", "145819.852000", "145819.855000", "145819.857000", "145819.860000", "145819.863000", "145819.866000", "145819.869000", "145819.872000", "145859.795000", "145859.798000", "145859.801000", "145859.804000", "145859.807000", "145859.810000", "145859.813000", "145859.823000", "145859.825000", "145859.829000", "145859.831000", "145859.834000", "145859.837000", "145859.840000", "145859.843000", "145859.846000", "145859.849000", "145859.852000", "145859.855000", "145859.858000", "145859.861000", "145859.864000", "145859.867000", "145859.870000", "145859.873000", "145859.876000", "145859.879000", "145939.796000", "145939.799000", "145939.802000", "145939.805000", "145939.808000", "145939.811000", "145939.814000", "145939.817000", "145939.820000", "145939.823000", "145939.825000", "145939.828000", "145939.831000", "145939.834000", "145939.841000", "145939.844000", "145939.847000", "145939.850000", "145939.853000", "145939.856000", "145939.859000", "145939.862000", "145939.864000", "145939.867000", "145939.870000", "145939.873000", "145939.876000", "150019.796000", "150019.799000", "150019.802000", "150019.805000", "150019.808000", "150019.811000", "150019.814000", "150019.816000", "150019.819000", "150019.822000", "150019.825000", "150019.828000", "150019.831000", "150019.834000", "150019.837000", "150019.840000", "150019.843000", "150019.846000", "150019.848000", "150019.851000", "150019.854000", "150019.857000", "150019.860000", "150019.863000", "150019.866000", "150019.869000", "150019.872000", "150059.795000", "150059.798000", "150059.801000", "150059.804000", "150059.807000", "150059.810000", "150059.813000", "150059.816000", "150059.818000", "150059.821000", "150059.824000", "150059.827000", "150059.843000", "150059.846000", "150059.849000", "150059.852000", "150059.855000", "150059.858000", "150059.861000", "150059.864000", "150059.867000", "150059.870000", "150059.873000", "150059.876000", "150059.879000", "150059.881000", "150059.890000", "150139.796000", "150139.799000", "150139.802000", "150139.805000", "150139.808000", "150139.811000", "150139.814000", "150139.817000", "150139.820000", "150139.823000", "150139.826000", "150139.829000", "150139.832000", "150139.835000", "150139.838000", "150139.841000", "150139.844000", "150139.847000", "150139.849000", "150139.853000", "150139.855000", "150139.858000", "150139.861000", "150139.864000", "150139.867000", "150139.870000", "150219.796000", "150219.799000", "150219.802000", "150219.805000", "150219.808000", "150219.811000", "150219.814000", "150219.817000", "150219.820000", "150219.823000", "150219.825000", "150219.829000", "150219.831000", "150219.834000", "150219.837000", "150219.840000", "150219.843000", "150219.846000", "150219.849000", "150219.852000", "150219.855000", "150219.858000", "150219.861000", "150219.864000", "150219.867000", "150219.870000", "150219.873000", "150259.795000", "150259.798000", "150259.801000", "150259.804000", "150259.807000", "150259.810000", "150259.813000", "150259.816000", "150259.819000", "150259.822000", "150259.825000", "150259.828000", "150259.831000", "150259.834000", "150259.837000", "150259.840000", "150259.842000", "150259.845000", "150259.848000", "150259.851000", "150259.854000", "150259.857000", "150259.860000", "150259.863000", "150259.866000", "150259.869000", "150259.872000", "150339.795000", "150339.798000", "150339.801000", "150339.804000", "150339.807000", "150339.810000", "150339.813000", "150339.816000", "150339.819000", "150339.822000", "150339.825000", "150339.827000", "150339.830000", "150339.833000", "150339.836000", "150339.839000", "150339.842000", "150339.845000", "150339.848000", "150339.851000", "150339.854000", "150339.857000", "150339.860000", "150339.863000", "150339.866000", "150339.869000", "150339.872000", "150419.796000", "150419.799000", "150419.802000", "150419.805000", "150419.808000", "150419.811000", "150419.814000", "150419.817000", "150419.820000", "150419.823000", "150419.826000", "150419.829000", "150419.832000", "150419.835000", "150419.837000", "150419.840000", "150419.843000", "150419.846000", "150419.849000", "150419.852000", "150419.855000", "150419.858000", "150419.861000", "150419.864000", "150419.867000", "150419.870000", "150419.873000", "150459.796000", "150459.799000", "150459.802000", "150459.805000", "150459.808000", "150459.811000", "150459.814000", "150459.817000", "150459.820000", "150459.823000", "150459.826000", "150459.829000", "150459.831000", "150459.834000", "150459.837000", "150459.840000", "150459.843000", "150459.846000", "150459.849000", "150459.852000", "150459.855000", "150459.858000", "150459.861000", "150459.864000", "150459.867000", "150459.870000", "150459.873000", "150539.795000", "150539.798000", "150539.801000", "150539.804000", "150539.807000", "150539.810000", "150539.813000", "150539.816000", "150539.819000", "150539.822000", "150539.825000", "150539.827000", "150539.830000", "150539.833000", "150539.836000", "150539.839000", "150539.842000", "150539.845000", "150539.848000", "150539.851000", "150539.854000", "150539.857000", "150539.860000", "150539.863000", "150539.866000", "150539.869000", "150539.872000", "150619.796000", "150619.799000", "150619.802000", "150619.805000", "150619.808000", "150619.811000", "150619.814000", "150619.817000", "150619.820000", "150619.823000", "150619.826000", "150619.829000", "150619.832000", "150619.835000", "150619.837000", "150619.841000", "150619.843000", "150619.846000", "150619.849000", "150619.852000", "150619.855000", "150619.858000", "150619.861000", "150619.864000", "150619.867000", "150619.870000", "150633.470000", "150633.473000", "150633.476000", "150633.479000", "150633.482000", "150633.485000", "150633.488000", "150633.491000", "150633.494000", "150633.497000"],
