{
  "AcquisitionMatrixPE": 104,
  "AcquisitionNumber": 1,
  "AcquisitionTime": "14:42:42.375000",
  "BandwidthPerPixelPhaseEncode": 17.17,
  "BaseResolution": 104,
  "BodyPartExamined": "BRAIN",
  "CoilString": "HC1-7;NC1_2",
  "ConsistencyInfo": "N4_VE11C_LATEST_20160120",
  "ConversionSoftware": "dcm2niix",
  "ConversionSoftwareVersion": "v1.0.20190902",
  "DerivedVendorReportedEchoSpacing": 0.000560011,
  "DeviceSerialNumber": "167006",
  "DwellTime": 2.1e-06,
  "EchoTime": 0.037,
  "EchoTrainLength": 104,
  "EffectiveEchoSpacing": 0.000560011,
  "FlipAngle": 52,
  "ImageComments": "Unaliased_MB4_PE3_LB",
  "ImageOrientationPatientDICOM": [0.999847, 0.0164276, 0.0059266, -0.0109943, 0.855767, -0.517245],
  "ImageType": [
    "ORIGINAL",
    "PRIMARY",
    "M",
    "MB",
    "ND",
    "MOSAIC"
],
  "ImagingFrequency": 123.259,
  "InPlanePhaseEncodingDirectionDICOM": "COL",
  "InstitutionAddress": "Chemin_Queen-Mary_4565_Montreal_District_CA_H3W_1W5",
  "InstitutionName": "IUGM",
  "InstitutionalDepartmentName": "Department",
  "MRAcquisitionType": "2D",
  "MagneticFieldStrength": 3,
  "Manufacturer": "Siemens",
  "ManufacturersModelName": "Prisma_fit",
  "Modality": "MR",
  "MultibandAccelerationFactor": 4,
  "PartialFourier": 1,
  "PatientPosition": "HFS",
  "PercentPhaseFOV": 100,
  "PhaseEncodingDirection": "j",
  "PhaseEncodingSteps": 104,
  "PhaseResolution": 1,
  "PixelBandwidth": 2290,
  "ProcedureStepDescription": "video_friends",
  "ProtocolName": "func_task-friends-s05e17a",
  "PulseSequenceDetails": "%CustomerSeq%_cmrr_mbep2d_bold",
  "ReceiveCoilActiveElements": "HC1-7;NC1,2",
  "ReceiveCoilName": "HeadNeck_64",
  "ReconMatrixPE": 104,
  "RepetitionTime": 1.49,
  "SAR": 0.0351305,
  "ScanOptions": "FS",
  "ScanningSequence": "EP",
  "SequenceName": "epfid2d1_104",
  "SequenceVariant": "SK_SS",
  "SeriesDescription": "func_task-friends-s05e17a",
  "SeriesNumber": 19,
  "ShimSetting": [628, -7209, -8874, 390, -23, -211, 41, -15],
  "SliceThickness": 2,
  "SliceTiming": [0, 0.7825, 0.0975, 0.88, 0.195, 0.98, 0.2925, 1.0775, 0.39, 1.175, 0.49, 1.2725, 0.5875, 1.37, 0.685, 0, 0.7825, 0.0975, 0.88, 0.195, 0.98, 0.2925, 1.0775, 0.39, 1.175, 0.49, 1.2725, 0.5875, 1.37, 0.685, 0, 0.7825, 0.0975, 0.88, 0.195, 0.98, 0.2925, 1.0775, 0.39, 1.175, 0.49, 1.2725, 0.5875, 1.37, 0.685, 0, 0.7825, 0.0975, 0.88, 0.195, 0.98, 0.2925, 1.0775, 0.39, 1.175, 0.49, 1.2725, 0.5875, 1.37, 0.685],
  "SoftwareVersions": "syngo_MR_E11",
  "SpacingBetweenSlices": 2,
  "StationName": "MRC35049",
  "TaskName": "s05e17a",
  "TotalReadoutTime": 0.0576811,
  "TxRefAmp": 248.262,
  "WipMemBlock": "97d688ed-5201-4cbf-966a-8c4aaca42d54||Sequence: R016 ve11c/master r/e634e98; Dec 19 2017 11:00:25 by eja",
  "dcmmeta_affine": [
    [-1.9996949434280396, -0.02198868617415428, 0.027137720957398415, 103.7494125366211],
    [-0.032855138182640076, 1.711533546447754, -1.034201979637146, -57.22982406616211],
    [0.011853190138936043, 1.0344899892807007, 1.7116336822509766, -102.2320327758789],
    [0.0, 0.0, 0.0, 1.0]
],
  "dcmmeta_reorient_transform": [
    [0.0, -1.0, 0.0, 103.0],
    [1.0, 0.0, 0.0, 0.0],
    [0.0, 0.0, 1.0, 0.0],
    [0.0, 0.0, 0.0, 1.0]
],
  "dcmmeta_shape": [104, 104, 60, 452],
  "dcmmeta_slice_dim": 2,
  "dcmmeta_version": 0.6,
  "global": {
    "const": {
      "AcquisitionMatrix": [104, 0, 0, 104],
      "AngioFlag": "N",
      "BitsAllocated": 16,
      "BitsStored": 16,
      "BodyPartExamined": "BRAIN",
      "Columns": 832,
      "EchoNumbers": 1,
      "EchoTime": 37.0,
      "EchoTrainLength": 104,
      "FlipAngle": 52.0,
      "HighBit": 15,
      "ImageOrientationPatient": [0.99984749359312, 0.01642756917938, 0.0059265948419, -0.0109943426271, 0.85576675016297, -0.5172450035967],
      "ImagePositionPatient": [-821.3696735992, -754.01559015096, 376.56024188962],
      "ImageType": [
        "ORIGINAL",
        "PRIMARY",
        "M",
        "MB",
        "ND",
        "MOSAIC"
],
      "ImagedNucleus": "1H",
      "ImagingFrequency": 123.259038,
      "InPlanePhaseEncodingDirection": "COL",
      "MRAcquisitionType": "2D",
      "MagneticFieldStrength": 3.0,
      "Manufacturer": "SIEMENS",
      "ManufacturerModelName": "Prisma_fit",
      "Modality": "MR",
      "NumberOfAverages": 1.0,
      "NumberOfPhaseEncodingSteps": 104,
      "PercentPhaseFieldOfView": 100.0,
      "PercentSampling": 100.0,
      "PerformedProcedureStepStartTime": "134008.412000",
      "PhotometricInterpretation": "MONOCHROME2",
      "PixelBandwidth": 2290.0,
      "PixelRepresentation": 0,
      "PixelSpacing": [2.0, 2.0],
      "ProtocolName": "func_task-friends-s05e17a",
      "RepetitionTime": 1490.0,
      "Rows": 832,
      "SAR": 0.03513051715757,
      "SamplesPerPixel": 1,
      "ScanOptions": "FS",
      "ScanningSequence": "EP",
      "SequenceName": "epfid2d1_104",
      "SequenceVariant": [
        "SK",
        "SS"
],
      "SeriesDescription": "func_task-friends-s05e17a",
      "SeriesNumber": 19,
      "SeriesTime": "144412.338000",
      "SliceLocation": -56.490535478435,
      "SliceThickness": 2.0,
      "SmallestImagePixelValue": 0,
      "SoftwareVersions": "syngo MR E11",
      "SpacingBetweenSlices": 1.999999998051,
      "SpecificCharacterSet": "ISO_IR 100",
      "StudyID": "1",
      "StudyTime": "134008.342000",
      "TransmitCoilName": "Body",
      "VariableFlipAngleFlag": "N",
      "WindowCenterWidthExplanation": "Algo1",
      "dBdt": 0.0},
    "slices": {}
  },
  "time": {
    "samples": {
      "AcquisitionNumber": [1, 2, 3, 4, 5, 6, 7, 8, 9, 10, 11, 12, 13, 14, 15, 16, 17, 18, 19, 20, 21, 22, 23, 24, 25, 26, 27, 28, 29, 30, 31, 32, 33, 34, 35, 36, 37, 38, 39, 40, 41, 42, 43, 44, 45, 46, 47, 48, 49, 50, 51, 52, 53, 54, 55, 56, 57, 58, 59, 60, 61, 62, 63, 64, 65, 66, 67, 68, 69, 70, 71, 72, 73, 74, 75, 76, 77, 78, 79, 80, 81, 82, 83, 84, 85, 86, 87, 88, 89, 90, 91, 92, 93, 94, 95, 96, 97, 98, 99, 100, 101, 102, 103, 104, 105, 106, 107, 108, 109, 110, 111, 112, 113, 114, 115, 116, 117, 118, 119, 120, 121, 122, 123, 124, 125, 126, 127, 128, 129, 130, 131, 132, 133, 134, 135, 136, 137, 138, 139, 140, 141, 142, 143, 144, 145, 146, 147, 148, 149, 150, 151, 152, 153, 154, 155, 156, 157, 158, 159, 160, 161, 162, 163, 164, 165, 166, 167, 168, 169, 170, 171, 172, 173, 174, 175, 176, 177, 178, 179, 180, 181, 182, 183, 184, 185, 186, 187, 188, 189, 190, 191, 192, 193, 194, 195, 196, 197, 198, 199, 200, 201, 202, 203, 204, 205, 206, 207, 208, 209, 210, 211, 212, 213, 214, 215, 216, 217, 218, 219, 220, 221, 222, 223, 224, 225, 226, 227, 228, 229, 230, 231, 232, 233, 234, 235, 236, 237, 238, 239, 240, 241, 242, 243, 244, 245, 246, 247, 248, 249, 250, 251, 252, 253, 254, 255, 256, 257, 258, 259, 260, 261, 262, 263, 264, 265, 266, 267, 268, 269, 270, 271, 272, 273, 274, 275, 276, 277, 278, 279, 280, 281, 282, 283, 284, 285, 286, 287, 288, 289, 290, 291, 292, 293, 294, 295, 296, 297, 298, 299, 300, 301, 302, 303, 304, 305, 306, 307, 308, 309, 310, 311, 312, 313, 314, 315, 316, 317, 318, 319, 320, 321, 322, 323, 324, 325, 326, 327, 328, 329, 330, 331, 332, 333, 334, 335, 336, 337, 338, 339, 340, 341, 342, 343, 344, 345, 346, 347, 348, 349, 350, 351, 352, 353, 354, 355, 356, 357, 358, 359, 360, 361, 362, 363, 364, 365, 366, 367, 368, 369, 370, 371, 372, 373, 374, 375, 376, 377, 378, 379, 380, 381, 382, 383, 384, 385, 386, 387, 388, 389, 390, 391, 392, 393, 394, 395, 396, 397, 398, 399, 400, 401, 402, 403, 404, 405, 406, 407, 408, 409, 410, 411, 412, 413, 414, 415, 416, 417, 418, 419, 420, 421, 422, 423, 424, 425, 426, 427, 428, 429, 430, 431, 432, 433, 434, 435, 436, 437, 438, 439, 440, 441, 442, 443, 444, 445, 446, 447, 448, 449, 450, 451, 452],
      "AcquisitionTime": ["144242.375000", "144243.865000", "144245.355000", "144246.845000", "144248.335000", "144249.825000", "144251.315000", "144252.805000", "144254.295000", "144255.785000", "144257.275000", "144258.765000", "144300.255000", "144301.745000", "144303.235000", "144304.725000", "144306.215000", "144307.705000", "144309.195000", "144310.685000", "144312.175000", "144313.665000", "144315.155000", "144316.645000", "144318.135000", "144319.625000", "144321.115000", "144322.605000", "144324.095000", "144325.585000", "144327.075000", "144328.565000", "144330.055000", "144331.545000", "144333.035000", "144334.525000", "144336.015000", "144337.505000", "144338.995000", "144340.485000", "144341.975000", "144343.465000", "144344.955000", "144346.445000", "144347.935000", "144349.425000", "144350.915000", "144352.405000", "144353.895000", "144355.385000", "144356.875000", "144358.365000", "144359.855000", "144401.345000", "144402.835000", "144404.325000", "144405.815000", "144407.305000", "144408.795000", "144410.285000", "144411.775000", "144413.265000", "144414.755000", "144416.245000", "144417.735000", "144419.225000", "144420.715000", "144422.205000", "144423.695000", "144425.185000", "144426.675000", "144428.165000", "144429.655000", "144431.145000", "144432.635000", "144434.125000", "144435.615000", "144437.105000", "144438.595000", "144440.085000", "144441.575000", "144443.065000", "144444.555000", "144446.045000", "144447.535000", "144449.025000", "144450.515000", "144452.005000", "144453.495000", "144454.985000", "144456.475000", "144457.965000", "144459.455000", "144500.945000", "144502.435000", "144503.925000", "144505.415000", "144506.905000", "144508.395000", "144509.885000", "144511.375000", "144512.865000", "144514.355000", "144515.845000", "144517.335000", "144518.825000", "144520.315000", "144521.805000", "144523.295000", "144524.785000", "144526.275000", "144527.765000", "144529.255000", "144530.745000", "144532.235000", "144533.725000", "144535.215000", "144536.705000", "144538.195000", "144539.685000", "144541.175000", "144542.665000", "144544.155000", "144545.645000", "144547.135000", "144548.625000", "144550.115000", "144551.605000", "144553.095000", "144554.585000", "144556.075000", "144557.565000", "144559.055000", "144600.545000", "144602.035000", "144603.525000", "144605.015000", "144606.505000", "144607.995000", "144609.485000", "144610.975000", "144612.465000", "144613.955000", "144615.445000", "144616.935000", "144618.425000", "144619.915000", "144621.405000", "144622.895000", "144624.385000", "144625.875000", "144627.365000", "144628.855000", "144630.345000", "144631.835000", "144633.325000", "144634.815000", "144636.305000", "144637.795000", "144639.285000", "144640.775000", "144642.265000", "144643.755000", "144645.245000", "144646.735000", "144648.225000", "144649.715000", "144651.205000", "144652.695000", "144654.185000", "144655.675000", "144657.165000", "144658.655000", "144700.145000", "144701.635000", "144703.125000", "144704.615000", "144706.105000", "144707.595000", "144709.085000", "144710.575000", "144712.065000", "144713.555000", "144715.045000", "144716.535000", "144718.025000", "144719.515000", "144721.005000", "144722.495000", "144723.985000", "144725.475000", "144726.965000", "144728.455000", "144729.945000", "144731.435000", "144732.925000", "144734.415000", "144735.905000", "144737.395000", "144738.885000", "144740.375000", "144741.865000", "144743.355000", "144744.845000", "144746.335000", "144747.825000", "144749.315000", "144750.805000", "144752.295000", "144753.785000", "144755.275000", "144756.765000", "144758.255000", "144759.745000", "144801.235000", "144802.725000", "144804.215000", "144805.705000", "144807.195000", "144808.685000", "144810.175000", "144811.665000", "144813.155000", "144814.645000", "144816.135000", "144817.625000", "144819.115000", "144820.605000", "144822.095000", "144823.585000", "144825.075000", "144826.565000", "144828.055000", "144829.545000", "144831.035000", "144832.525000", "144834.015000", "144835.505000", "144836.995000", "144838.485000", "144839.975000", "144841.465000", "144842.955000", "144844.445000", "144845.935000", "144847.425000", "144848.915000", "144850.405000", "144851.895000", "144853.385000", "144854.875000", "144856.365000", "144857.855000", "144859.345000", "144900.835000", "144902.325000", "144903.815000", "144905.305000", "144906.795000", "144908.285000", "144909.775000", "144911.265000", "144912.755000", "144914.245000", "144915.735000", "144917.225000", "144918.715000", "144920.205000", "144921.695000", "144923.185000", "144924.675000", "144926.165000", "144927.655000", "144929.145000", "144930.635000", "144932.125000", "144933.615000", "144935.105000", "144936.595000", "144938.085000", "144939.575000", "144941.065000", "144942.555000", "144944.045000", "144945.535000", "144947.025000", "144948.515000", "144950.005000", "144951.495000", "144952.985000", "144954.475000", "144955.965000", "144957.455000", "144958.945000", "145000.435000", "145001.925000", "145003.415000", "145004.905000", "145006.395000", "145007.885000", "145009.375000", "145010.865000", "145012.355000", "145013.845000", "145015.335000", "145016.825000", "145018.315000", "145019.805000", "145021.295000", "145022.785000", "145024.275000", "145025.765000", "145027.255000", "145028.745000", "145030.235000", "145031.725000", "145033.215000", "145034.705000", "145036.195000", "145037.685000", "145039.175000", "145040.665000", "145042.155000", "145043.645000", "145045.135000", "145046.625000", "145048.115000", "145049.605000", "145051.095000", "145052.585000", "145054.075000", "145055.565000", "145057.055000", "145058.545000", "145100.035000", "145101.525000", "145103.015000", "145104.505000", "145105.995000", "145107.485000", "145108.975000", "145110.465000", "145111.955000", "145113.445000", "145114.935000", "145116.425000", "145117.915000", "145119.405000", "145120.895000", "145122.385000", "145123.875000", "145125.365000", "145126.855000", "145128.345000", "145129.835000", "145131.325000", "145132.815000", "145134.305000", "145135.795000", "145137.285000", "145138.775000", "145140.265000", "145141.755000", "145143.245000", "145144.735000", "145146.225000", "145147.715000", "145149.205000", "145150.695000", "145152.185000", "145153.675000", "145155.165000", "145156.655000", "145158.145000", "145159.635000", "145201.125000", "145202.615000", "145204.105000", "145205.595000", "145207.085000", "145208.575000", "145210.065000", "145211.555000", "145213.045000", "145214.535000", "145216.025000", "145217.515000", "145219.005000", "145220.495000", "145221.985000", "145223.475000", "145224.965000", "145226.455000", "145227.945000", "145229.435000", "145230.925000", "145232.415000", "145233.905000", "145235.395000", "145236.885000", "145238.375000", "145239.865000", "145241.355000", "145242.845000", "145244.335000", "145245.825000", "145247.315000", "145248.805000", "145250.295000", "145251.785000", "145253.275000", "145254.765000", "145256.255000", "145257.745000", "145259.235000", "145300.725000", "145302.215000", "145303.705000", "145305.195000", "145306.685000", "145308.175000", "145309.665000", "145311.155000", "145312.645000", "145314.135000", "145315.625000", "145317.115000", "145318.605000", "145320.095000", "145321.585000", "145323.075000", "145324.565000", "145326.055000", "145327.545000", "145329.035000", "145330.525000", "145332.015000", "145333.505000", "145334.995000", "145336.485000", "145337.975000", "145339.465000", "145340.955000", "145342.445000", "145343.935000", "145345.425000", "145346.915000", "145348.405000", "145349.895000", "145351.385000", "145352.875000", "145354.365000"],
      "ContentTime": ["144412.340000", "144412.344000", "144412.346000", "144412.349000", "144412.361000", "144412.364000", "144412.367000", "144412.370000", "144412.373000", "144412.375000", "144412.378000", "144412.381000", "144412.384000", "144412.387000", "144412.390000", "144412.393000", "144412.396000", "144412.399000", "144412.401000", "144412.404000", "144412.407000", "144412.410000", "144412.413000", "144412.416000", "144412.419000", "144412.422000", "144412.425000", "144412.427000", "144412.430000", "144412.433000", "144412.436000", "144412.439000", "144412.442000", "144412.445000", "144412.448000", "144412.451000", "144432.310000", "144432.313000", "144432.316000", "144432.319000", "144432.322000", "144432.325000", "144432.328000", "144432.331000", "144432.334000", "144432.336000", "144432.339000", "144432.342000", "144432.345000", "144432.348000", "144432.351000", "144432.354000", "144432.357000", "144432.360000", "144432.365000", "144432.368000", "144452.310000", "144452.313000", "144452.316000", "144452.319000", "144452.322000", "144452.325000", "144452.327000", "144452.330000", "144452.333000", "144452.336000", "144452.339000", "144452.342000", "144452.345000", "144452.348000", "144452.351000", "144452.353000", "144452.356000", "144452.359000", "144452.362000", "144452.365000", "144452.368000", "144512.310000", "144512.313000", "144512.316000", "144512.319000", "144512.322000", "144512.325000", "144512.327000", "144512.330000", "144512.333000", "144512.336000", "144512.339000", "144512.342000", "144512.345000", "144512.348000", "144512.351000", "144512.353000", "144512.356000", "144512.359000", "144512.362000", "144512.365000", "144552.310000", "144552.313000", "144552.316000", "144552.319000", "144552.322000", "144552.325000", "144552.328000", "144552.331000", "144552.333000", "144552.336000", "144552.339000", "144552.342000", "144552.345000", "144552.348000", "144552.351000", "144552.354000", "144552.357000", "144552.359000", "144552.362000", "144552.365000", "144552.368000", "144552.371000", "144552.374000", "144552.377000", "144552.380000", "144552.383000", "144552.386000", "144552.388000", "144552.391000", "144552.394000", "144632.310000", "144632.313000", "144632.327000", "144632.330000", "144632.333000", "144632.336000", "144632.339000", "144632.342000", "144632.345000", "144632.347000", "144632.350000", "144632.353000", "144632.356000", "144632.360000", "144632.363000", "144632.366000", "144632.369000", "144632.372000", "144632.375000", "144632.378000", "144632.380000", "144632.383000", "144632.386000", "144632.389000", "144632.392000", "144632.395000", "144712.310000", "144712.313000", "144712.316000", "144712.319000", "144712.322000", "144712.325000", "144712.328000", "144712.331000", "144712.333000", "144712.336000", "144712.339000", "144712.342000", "144712.345000", "144712.348000", "144712.351000", "144712.354000", "144712.357000", "144712.360000", "144712.362000", "144712.365000", "144712.368000", "144712.371000", "144712.374000", "144712.377000", "144712.380000", "144712.383000", "144712.386000", "144752.310000", "144752.313000", "144752.316000", "144752.319000", "144752.322000", "144752.325000", "144752.328000", "144752.331000", "144752.334000", "144752.337000", "144752.340000", "144752.343000", "144752.346000", "144752.349000", "144752.351000", "144752.354000", "144752.357000", "144752.360000", "144752.363000", "144752.366000", "144752.369000", "144752.372000", "144752.375000", "144752.378000", "144752.381000", "144752.384000", "144752.387000", "144832.310000", "144832.313000", "144832.316000", "144832.319000", "144832.322000", "144832.325000", "144832.327000", "144832.330000", "144832.333000", "144832.336000", "144832.339000", "144832.342000", "144832.345000", "144832.348000", "144832.351000", "144832.354000", "144832.356000", "144832.359000", "144832.362000", "144832.365000", "144832.368000", "144832.371000", "144832.374000", "144832.377000", "144832.380000", "144832.383000", "144832.386000", "144912.310000", "144912.313000", "144912.316000", "144912.319000", "144912.322000", "144912.325000", "144912.328000", "144912.331000", "144912.334000", "144912.337000", "144912.340000", "144912.343000", "144912.346000", "144912.358000", "144912.361000", "144912.364000", "144912.367000", "144912.370000", "144912.372000", "144912.375000", "144912.378000", "144912.381000", "144912.384000", "144912.392000", "144912.395000", "144912.398000", "144912.401000", "144952.310000", "144952.313000", "144952.316000", "144952.319000", "144952.322000", "144952.325000", "144952.328000", "144952.331000", "144952.334000", "144952.337000", "144952.340000", "144952.343000", "144952.346000", "144952.348000", "144952.351000", "144952.354000", "144952.357000", "144952.360000", "144952.363000", "144952.366000", "144952.369000", "144952.372000", "144952.375000", "144952.378000", "144952.381000", "144952.384000", "144952.387000", "145032.310000", "145032.313000", "145032.316000", "145032.319000", "145032.322000", "145032.325000", "145032.327000", "145032.330000", "145032.333000", "145032.336000", "145032.339000", "145032.342000", "145032.345000", "145032.347000", "145032.350000", "145032.353000", "145032.356000", "145032.359000", "145032.362000", "145032.365000", "145032.368000", "145032.371000", "145032.374000", "145032.377000", "145032.380000", "145032.383000", "145112.310000", "145112.313000", "145112.316000", "145112.319000", "145112.322000", "145112.325000", "145112.328000", "145112.331000", "145112.333000", "145112.336000", "145112.339000", "145112.342000", "145112.361000", "145112.364000", "145112.367000", "145112.370000", "145112.373000", "145112.376000", "145112.379000", "145112.382000", "145112.385000", "145112.387000", "145112.390000", "145112.393000", "145112.396000", "145112.399000", "145112.402000", "145152.310000", "145152.313000", "145152.316000", "145152.319000", "145152.322000", "145152.325000", "145152.328000", "145152.330000", "145152.333000", "145152.336000", "145152.339000", "145152.342000", "145152.345000", "145152.348000", "145152.351000", "145152.354000", "145152.357000", "145152.359000", "145152.362000", "145152.365000", "145152.368000", "145152.371000", "145152.374000", "145152.377000", "145152.380000", "145152.383000", "145152.386000", "145232.310000", "145232.313000", "145232.316000", "145232.319000", "145232.322000", "145232.325000", "145232.328000", "145232.330000", "145232.333000", "145232.336000", "145232.339000", "145232.342000", "145232.345000", "145232.348000", "145232.351000", "145232.354000", "145232.357000", "145232.359000", "145232.362000", "145232.365000", "145232.368000", "145232.371000", "145232.374000", "145232.377000", "145232.380000", "145232.383000", "145232.385000", "145312.311000", "145312.314000", "145312.317000", "145312.320000", "145312.323000", "145312.326000", "145312.329000", "145312.332000", "145312.335000", "145312.338000", "145312.341000", "145312.344000", "145312.347000", "145312.350000", "145312.353000", "145312.356000", "145312.358000", "145312.361000", "145312.364000", "145312.367000", "145312.370000", "145312.373000", "145312.376000", "145312.379000", "145312.382000", "145312.385000", "145312.388000", "145352.310000", "145352.313000", "145352.316000", "145352.319000", "145352.322000", "145352.325000", "145352.328000", "145352.331000", "145352.333000", "145352.336000", "145352.339000", "145352.342000", "145352.345000", "145352.348000", "145352.351000", "145352.354000", "145352.357000", "145352.360000", "145352.363000", "145352.366000", "145352.368000", "145352.371000", "145352.374000", "145352.377000", "145352.380000", "145352.383000", "145352.386000", "145356.565000", "145356.568000", "145356.578000"],
