{
  "AcquisitionMatrixPE": 104,
  "AcquisitionNumber": 1,
  "AcquisitionTime": "10:57:9.512500",
  "BandwidthPerPixelPhaseEncode": 17.17,
  "BaseResolution": 104,
  "BodyPartExamined": "BRAIN",
  "CoilString": "HC1-7;NC1_2",
  "ConsistencyInfo": "N4_VE11C_LATEST_20160120",
  "ConversionSoftware": "dcm2niix",
  "ConversionSoftwareVersion": "v1.0.20190902",
  "DerivedVendorReportedEchoSpacing": 0.000560011,
  "DeviceSerialNumber": "167006",
  "DwellTime": 2.1e-06,
  "EchoTime": 0.037,
  "EchoTrainLength": 104,
  "EffectiveEchoSpacing": 0.000560011,
  "FlipAngle": 52,
  "HeudiconvVersion": "0.10.0",
  "ImageComments": "Unaliased_MB4_PE3_LB",
  "ImageOrientationPatientDICOM": [0.99984, 0.00600862, 0.0168433, 0.00383909, 0.847784, -0.530328],
  "ImageType": [
    "ORIGINAL",
    "PRIMARY",
    "M",
    "MB",
    "ND",
    "MOSAIC"
],
  "ImagingFrequency": 123.259,
  "InPlanePhaseEncodingDirectionDICOM": "COL",
  "InstitutionAddress": "Chemin_Queen-Mary_4565_Montreal_District_CA_H3W_1W5",
  "InstitutionName": "IUGM",
  "InstitutionalDepartmentName": "Department",
  "MRAcquisitionType": "2D",
  "MagneticFieldStrength": 3,
  "Manufacturer": "Siemens",
  "ManufacturersModelName": "Prisma_fit",
  "Modality": "MR",
  "MultibandAccelerationFactor": 4,
  "PartialFourier": 1,
  "PatientPosition": "HFS",
  "PercentPhaseFOV": 100,
  "PhaseEncodingDirection": "j",
  "PhaseEncodingSteps": 104,
  "PhaseResolution": 1,
  "PixelBandwidth": 2290,
  "ProcedureStepDescription": "video_friends",
  "ProtocolName": "func_task-friends-s06e15a",
  "PulseSequenceDetails": "%CustomerSeq%_cmrr_mbep2d_bold",
  "ReceiveCoilActiveElements": "HC1-7;NC1,2",
  "ReceiveCoilName": "HeadNeck_64",
  "ReconMatrixPE": 104,
  "RepetitionTime": 1.49,
  "SAR": 0.0406829,
  "ScanOptions": "FS",
  "ScanningSequence": "EP",
  "SequenceName": "epfid2d1_104",
  "SequenceVariant": "SK_SS",
  "SeriesDescription": "func_task-friends-s06e15a",
  "SeriesNumber": 9,
  "ShimSetting": [624, -7176, -8863, 259, -6, -184, -12, 2],
  "SliceThickness": 2,
  "SliceTiming": [0, 0.785, 0.0975, 0.8825, 0.1975, 0.98, 0.295, 1.0775, 0.3925, 1.1775, 0.49, 1.275, 0.5875, 1.3725, 0.6875, 0, 0.785, 0.0975, 0.8825, 0.1975, 0.98, 0.295, 1.0775, 0.3925, 1.1775, 0.49, 1.275, 0.5875, 1.3725, 0.6875, 0, 0.785, 0.0975, 0.8825, 0.1975, 0.98, 0.295, 1.0775, 0.3925, 1.1775, 0.49, 1.275, 0.5875, 1.3725, 0.6875, 0, 0.785, 0.0975, 0.8825, 0.1975, 0.98, 0.295, 1.0775, 0.3925, 1.1775, 0.49, 1.275, 0.5875, 1.3725, 0.6875],
  "SoftwareVersions": "syngo_MR_E11",
  "SpacingBetweenSlices": 2,
  "StationName": "MRC35049",
  "TaskName": "s06e15a",
  "TotalReadoutTime": 0.0576811,
  "TxRefAmp": 252.357,
  "WipMemBlock": "cabd0807-b682-422b-955d-65cb15f7a844||Sequence: R016 ve11c/master r/e634e98; Dec 19 2017 11:00:25 by eja",
  "dcmmeta_affine": [
    [-1.9996801614761353, 0.007678177673369646, 0.034932080656290054, 101.72949981689453],
    [-0.012017232365906239, 1.6955680847167969, -1.0606151819229126, -56.29417419433594],
    [0.03368665650486946, 1.0606554746627808, 1.6952507495880127, -97.19448852539062],
    [0.0, 0.0, 0.0, 1.0]
],
  "dcmmeta_reorient_transform": [
    [0.0, -1.0, 0.0, 103.0],
    [1.0, 0.0, 0.0, 0.0],
    [0.0, 0.0, 1.0, 0.0],
    [0.0, 0.0, 0.0, 1.0]
],
  "dcmmeta_shape": [104, 104, 60, 456],
  "dcmmeta_slice_dim": 2,
  "dcmmeta_version": 0.6,
  "global": {
    "const": {
      "AcquisitionMatrix": [104, 0, 0, 104],
      "AngioFlag": "N",
      "BitsAllocated": 16,
      "BitsStored": 16,
      "BodyPartExamined": "BRAIN",
      "Columns": 832,
      "EchoNumbers": 1,
      "EchoTime": 37.0,
      "EchoTrainLength": 104,
      "FlipAngle": 52.0,
      "HighBit": 15,
      "ImageOrientationPatient": [0.99984008663479, 0.00600861617673, 0.01684332775271, 0.00383908883725, 0.8477840299667, -0.5303277287964],
      "ImagePositionPatient": [-833.19879553128, -739.91038271438, 385.86966787805],
      "ImageType": [
        "ORIGINAL",
        "PRIMARY",
        "M",
        "MB",
        "ND",
        "MOSAIC"
],
      "ImagedNucleus": "1H",
      "ImagingFrequency": 123.258837,
      "InPlanePhaseEncodingDirection": "COL",
      "MRAcquisitionType": "2D",
      "MagneticFieldStrength": 3.0,
      "Manufacturer": "SIEMENS",
      "ManufacturerModelName": "Prisma_fit",
      "Modality": "MR",
      "NumberOfAverages": 1.0,
      "NumberOfPhaseEncodingSteps": 104,
      "PercentPhaseFieldOfView": 100.0,
      "PercentSampling": 100.0,
      "PerformedProcedureStepStartTime": "100900.986000",
      "PhotometricInterpretation": "MONOCHROME2",
      "PixelBandwidth": 2290.0,
      "PixelRepresentation": 0,
      "PixelSpacing": [2.0, 2.0],
      "ProtocolName": "func_task-friends-s06e15a",
      "RepetitionTime": 1490.0,
      "Rows": 832,
      "SAR": 0.04068290258703,
      "SamplesPerPixel": 1,
      "ScanOptions": "FS",
      "ScanningSequence": "EP",
      "SequenceName": "epfid2d1_104",
      "SequenceVariant": [
        "SK",
        "SS"
],
      "SeriesDescription": "func_task-friends-s06e15a",
      "SeriesNumber": 9,
      "SeriesTime": "105831.890000",
      "SliceLocation": -50.754477027153,
      "SliceThickness": 2.0,
      "SmallestImagePixelValue": 0,
      "SoftwareVersions": "syngo MR E11",
      "SpacingBetweenSlices": 2.000000020796,
      "SpecificCharacterSet": "ISO_IR 100",
      "StudyID": "1",
      "StudyTime": "100900.840000",
      "TransmitCoilName": "Body",
      "VariableFlipAngleFlag": "N",
      "WindowCenterWidthExplanation": "Algo1",
      "dBdt": 0.0},
    "slices": {}
  },
  "time": {
    "samples": {
      "AcquisitionNumber": [1, 2, 3, 4, 5, 6, 7, 8, 9, 10, 11, 12, 13, 14, 15, 16, 17, 18, 19, 20, 21, 22, 23, 24, 25, 26, 27, 28, 29, 30, 31, 32, 33, 34, 35, 36, 37, 38, 39, 40, 41, 42, 43, 44, 45, 46, 47, 48, 49, 50, 51, 52, 53, 54, 55, 56, 57, 58, 59, 60, 61, 62, 63, 64, 65, 66, 67, 68, 69, 70, 71, 72, 73, 74, 75, 76, 77, 78, 79, 80, 81, 82, 83, 84, 85, 86, 87, 88, 89, 90, 91, 92, 93, 94, 95, 96, 97, 98, 99, 100, 101, 102, 103, 104, 105, 106, 107, 108, 109, 110, 111, 112, 113, 114, 115, 116, 117, 118, 119, 120, 121, 122, 123, 124, 125, 126, 127, 128, 129, 130, 131, 132, 133, 134, 135, 136, 137, 138, 139, 140, 141, 142, 143, 144, 145, 146, 147, 148, 149, 150, 151, 152, 153, 154, 155, 156, 157, 158, 159, 160, 161, 162, 163, 164, 165, 166, 167, 168, 169, 170, 171, 172, 173, 174, 175, 176, 177, 178, 179, 180, 181, 182, 183, 184, 185, 186, 187, 188, 189, 190, 191, 192, 193, 194, 195, 196, 197, 198, 199, 200, 201, 202, 203, 204, 205, 206, 207, 208, 209, 210, 211, 212, 213, 214, 215, 216, 217, 218, 219, 220, 221, 222, 223, 224, 225, 226, 227, 228, 229, 230, 231, 232, 233, 234, 235, 236, 237, 238, 239, 240, 241, 242, 243, 244, 245, 246, 247, 248, 249, 250, 251, 252, 253, 254, 255, 256, 257, 258, 259, 260, 261, 262, 263, 264, 265, 266, 267, 268, 269, 270, 271, 272, 273, 274, 275, 276, 277, 278, 279, 280, 281, 282, 283, 284, 285, 286, 287, 288, 289, 290, 291, 292, 293, 294, 295, 296, 297, 298, 299, 300, 301, 302, 303, 304, 305, 306, 307, 308, 309, 310, 311, 312, 313, 314, 315, 316, 317, 318, 319, 320, 321, 322, 323, 324, 325, 326, 327, 328, 329, 330, 331, 332, 333, 334, 335, 336, 337, 338, 339, 340, 341, 342, 343, 344, 345, 346, 347, 348, 349, 350, 351, 352, 353, 354, 355, 356, 357, 358, 359, 360, 361, 362, 363, 364, 365, 366, 367, 368, 369, 370, 371, 372, 373, 374, 375, 376, 377, 378, 379, 380, 381, 382, 383, 384, 385, 386, 387, 388, 389, 390, 391, 392, 393, 394, 395, 396, 397, 398, 399, 400, 401, 402, 403, 404, 405, 406, 407, 408, 409, 410, 411, 412, 413, 414, 415, 416, 417, 418, 419, 420, 421, 422, 423, 424, 425, 426, 427, 428, 429, 430, 431, 432, 433, 434, 435, 436, 437, 438, 439, 440, 441, 442, 443, 444, 445, 446, 447, 448, 449, 450, 451, 452, 453, 454, 455, 456],
      "AcquisitionTime": ["105709.512500", "105711.002500", "105712.492500", "105713.982500", "105715.472500", "105716.962500", "105718.452500", "105719.942500", "105721.432500", "105722.922500", "105724.412500", "105725.902500", "105727.392500", "105728.882500", "105730.372500", "105731.862500", "105733.352500", "105734.842500", "105736.332500", "105737.822500", "105739.312500", "105740.802500", "105742.292500", "105743.782500", "105745.272500", "105746.762500", "105748.252500", "105749.742500", "105751.232500", "105752.722500", "105754.212500", "105755.702500", "105757.192500", "105758.682500", "105800.172500", "105801.662500", "105803.152500", "105804.642500", "105806.132500", "105807.622500", "105809.112500", "105810.602500", "105812.092500", "105813.582500", "105815.072500", "105816.562500", "105818.052500", "105819.542500", "105821.032500", "105822.522500", "105824.012500", "105825.502500", "105826.992500", "105828.482500", "105829.972500", "105831.462500", "105832.952500", "105834.442500", "105835.932500", "105837.422500", "105838.912500", "105840.402500", "105841.892500", "105843.382500", "105844.872500", "105846.362500", "105847.852500", "105849.342500", "105850.832500", "105852.322500", "105853.812500", "105855.302500", "105856.792500", "105858.282500", "105859.772500", "105901.262500", "105902.752500", "105904.242500", "105905.732500", "105907.222500", "105908.712500", "105910.202500", "105911.692500", "105913.182500", "105914.672500", "105916.162500", "105917.652500", "105919.142500", "105920.632500", "105922.122500", "105923.612500", "105925.102500", "105926.592500", "105928.082500", "105929.572500", "105931.062500", "105932.552500", "105934.042500", "105935.532500", "105937.022500", "105938.512500", "105940.002500", "105941.492500", "105942.982500", "105944.472500", "105945.962500", "105947.452500", "105948.942500", "105950.432500", "105951.922500", "105953.412500", "105954.902500", "105956.392500", "105957.882500", "105959.372500", "110000.862500", "110002.352500", "110003.842500", "110005.332500", "110006.822500", "110008.312500", "110009.802500", "110011.292500", "110012.782500", "110014.272500", "110015.762500", "110017.252500", "110018.742500", "110020.232500", "110021.722500", "110023.212500", "110024.702500", "110026.192500", "110027.682500", "110029.172500", "110030.662500", "110032.152500", "110033.642500", "110035.132500", "110036.622500", "110038.112500", "110039.602500", "110041.092500", "110042.582500", "110044.072500", "110045.562500", "110047.052500", "110048.542500", "110050.032500", "110051.522500", "110053.012500", "110054.502500", "110055.992500", "110057.482500", "110058.972500", "110100.462500", "110101.952500", "110103.442500", "110104.932500", "110106.422500", "110107.912500", "110109.402500", "110110.892500", "110112.382500", "110113.872500", "110115.362500", "110116.852500", "110118.342500", "110119.832500", "110121.322500", "110122.812500", "110124.302500", "110125.792500", "110127.282500", "110128.772500", "110130.262500", "110131.752500", "110133.242500", "110134.732500", "110136.222500", "110137.712500", "110139.202500", "110140.692500", "110142.182500", "110143.672500", "110145.162500", "110146.652500", "110148.142500", "110149.632500", "110151.122500", "110152.612500", "110154.102500", "110155.592500", "110157.082500", "110158.572500", "110200.062500", "110201.552500", "110203.042500", "110204.532500", "110206.022500", "110207.512500", "110209.002500", "110210.492500", "110211.982500", "110213.472500", "110214.962500", "110216.452500", "110217.942500", "110219.432500", "110220.922500", "110222.412500", "110223.902500", "110225.392500", "110226.882500", "110228.372500", "110229.862500", "110231.352500", "110232.842500", "110234.332500", "110235.822500", "110237.312500", "110238.802500", "110240.292500", "110241.782500", "110243.272500", "110244.762500", "110246.252500", "110247.742500", "110249.232500", "110250.722500", "110252.212500", "110253.702500", "110255.192500", "110256.682500", "110258.172500", "110259.662500", "110301.152500", "110302.642500", "110304.132500", "110305.622500", "110307.112500", "110308.602500", "110310.092500", "110311.582500", "110313.072500", "110314.562500", "110316.052500", "110317.542500", "110319.032500", "110320.522500", "110322.012500", "110323.502500", "110324.992500", "110326.482500", "110327.972500", "110329.462500", "110330.952500", "110332.442500", "110333.932500", "110335.422500", "110336.912500", "110338.402500", "110339.892500", "110341.382500", "110342.872500", "110344.362500", "110345.852500", "110347.342500", "110348.832500", "110350.322500", "110351.812500", "110353.302500", "110354.792500", "110356.282500", "110357.772500", "110359.262500", "110400.752500", "110402.242500", "110403.732500", "110405.222500", "110406.712500", "110408.202500", "110409.692500", "110411.182500", "110412.672500", "110414.162500", "110415.652500", "110417.142500", "110418.632500", "110420.122500", "110421.612500", "110423.102500", "110424.592500", "110426.082500", "110427.572500", "110429.062500", "110430.552500", "110432.042500", "110433.532500", "110435.022500", "110436.512500", "110438.002500", "110439.492500", "110440.982500", "110442.472500", "110443.962500", "110445.452500", "110446.942500", "110448.432500", "110449.922500", "110451.412500", "110452.902500", "110454.392500", "110455.882500", "110457.372500", "110458.862500", "110500.352500", "110501.842500", "110503.332500", "110504.822500", "110506.312500", "110507.802500", "110509.292500", "110510.782500", "110512.272500", "110513.762500", "110515.252500", "110516.742500", "110518.232500", "110519.722500", "110521.212500", "110522.702500", "110524.192500", "110525.682500", "110527.172500", "110528.662500", "110530.152500", "110531.642500", "110533.132500", "110534.622500", "110536.112500", "110537.602500", "110539.092500", "110540.582500", "110542.072500", "110543.562500", "110545.052500", "110546.542500", "110548.032500", "110549.522500", "110551.012500", "110552.502500", "110553.992500", "110555.482500", "110556.972500", "110558.462500", "110559.952500", "110601.442500", "110602.932500", "110604.422500", "110605.912500", "110607.402500", "110608.892500", "110610.382500", "110611.872500", "110613.362500", "110614.852500", "110616.342500", "110617.832500", "110619.322500", "110620.812500", "110622.302500", "110623.792500", "110625.282500", "110626.772500", "110628.262500", "110629.752500", "110631.242500", "110632.732500", "110634.222500", "110635.712500", "110637.202500", "110638.692500", "110640.182500", "110641.672500", "110643.162500", "110644.652500", "110646.142500", "110647.632500", "110649.122500", "110650.612500", "110652.102500", "110653.592500", "110655.082500", "110656.572500", "110658.062500", "110659.552500", "110701.042500", "110702.532500", "110704.022500", "110705.512500", "110707.002500", "110708.492500", "110709.982500", "110711.472500", "110712.962500", "110714.452500", "110715.942500", "110717.432500", "110718.922500", "110720.412500", "110721.902500", "110723.392500", "110724.882500", "110726.372500", "110727.862500", "110729.352500", "110730.842500", "110732.332500", "110733.822500", "110735.312500", "110736.802500", "110738.292500", "110739.782500", "110741.272500", "110742.762500", "110744.252500", "110745.742500", "110747.232500", "110748.722500", "110750.212500", "110751.702500", "110753.192500", "110754.682500", "110756.172500", "110757.662500", "110759.152500", "110800.642500", "110802.132500", "110803.622500", "110805.112500", "110806.602500", "110808.092500", "110809.582500", "110811.072500", "110812.562500", "110814.052500", "110815.542500", "110817.032500", "110818.522500", "110820.012500", "110821.502500", "110822.992500", "110824.482500", "110825.972500", "110827.462500"],
      "ContentTime": ["105831.893000", "105831.896000", "105831.899000", "105831.902000", "105831.904000", "105831.907000", "105831.910000", "105831.913000", "105831.916000", "105831.918000", "105831.921000", "105831.932000", "105831.934000", "105831.937000", "105831.940000", "105831.943000", "105831.947000", "105831.949000", "105831.952000", "105831.955000", "105831.958000", "105831.961000", "105831.964000", "105831.967000", "105831.969000", "105831.972000", "105831.975000", "105831.978000", "105851.863000", "105851.866000", "105851.868000", "105851.871000", "105851.874000", "105851.877000", "105851.890000", "105851.892000", "105851.895000", "105851.898000", "105851.901000", "105851.904000", "105851.906000", "105851.909000", "105851.912000", "105851.915000", "105851.918000", "105851.921000", "105851.924000", "105851.926000", "105911.863000", "105911.866000", "105911.880000", "105911.883000", "105911.886000", "105911.889000", "105911.892000", "105911.895000", "105911.897000", "105911.900000", "105911.903000", "105911.906000", "105911.909000", "105911.911000", "105911.914000", "105911.917000", "105911.920000", "105911.923000", "105911.925000", "105911.928000", "105931.863000", "105931.866000", "105931.869000", "105931.871000", "105931.874000", "105931.877000", "105931.880000", "105931.883000", "105931.885000", "105931.903000", "105931.905000", "105931.908000", "105931.911000", "105931.914000", "105931.917000", "105931.920000", "105931.923000", "105931.925000", "105931.928000", "105931.931000", "105951.862000", "105951.865000", "105951.868000", "105951.870000", "105951.873000", "105951.876000", "105951.879000", "105951.882000", "105951.885000", "105951.887000", "105951.890000", "105951.893000", "105951.896000", "105951.907000", "105951.910000", "105951.913000", "105951.916000", "105951.918000", "105951.921000", "105951.924000", "110031.863000", "110031.866000", "110031.869000", "110031.871000", "110031.874000", "110031.877000", "110031.880000", "110031.883000", "110031.894000", "110031.897000", "110031.900000", "110031.903000", "110031.906000", "110031.909000", "110031.911000", "110031.914000", "110031.917000", "110031.920000", "110031.923000", "110031.926000", "110031.929000", "110031.932000", "110031.934000", "110031.937000", "110031.940000", "110031.943000", "110031.946000", "110111.863000", "110111.866000", "110111.869000", "110111.871000", "110111.874000", "110111.877000", "110111.880000", "110111.883000", "110111.886000", "110111.888000", "110111.891000", "110111.894000", "110111.897000", "110111.900000", "110111.903000", "110111.906000", "110111.908000", "110111.911000", "110111.914000", "110111.917000", "110111.920000", "110111.923000", "110111.925000", "110111.928000", "110111.931000", "110111.934000", "110111.937000", "110151.863000", "110151.866000", "110151.869000", "110151.871000", "110151.874000", "110151.877000", "110151.880000", "110151.883000", "110151.886000", "110151.888000", "110151.891000", "110151.894000", "110151.897000", "110151.900000", "110151.902000", "110151.905000", "110151.908000", "110151.911000", "110151.914000", "110151.916000", "110151.919000", "110151.922000", "110151.925000", "110151.928000", "110151.931000", "110151.933000", "110151.936000", "110231.862000", "110231.865000", "110231.868000", "110231.870000", "110231.873000", "110231.876000", "110231.879000", "110231.882000", "110231.885000", "110231.888000", "110231.891000", "110231.894000", "110231.896000", "110231.899000", "110231.902000", "110231.905000", "110231.908000", "110231.911000", "110231.914000", "110231.917000", "110231.919000", "110231.922000", "110231.925000", "110231.928000", "110231.931000", "110231.934000", "110311.863000", "110311.866000", "110311.869000", "110311.872000", "110311.875000", "110311.877000", "110311.880000", "110311.883000", "110311.886000", "110311.889000", "110311.892000", "110311.895000", "110311.897000", "110311.900000", "110311.903000", "110311.906000", "110311.909000", "110311.912000", "110311.915000", "110311.918000", "110311.920000", "110311.923000", "110311.926000", "110311.929000", "110311.932000", "110311.935000", "110311.937000", "110351.863000", "110351.866000", "110351.869000", "110351.872000", "110351.875000", "110351.878000", "110351.881000", "110351.883000", "110351.886000", "110351.889000", "110351.892000", "110351.895000", "110351.898000", "110351.901000", "110351.904000", "110351.906000", "110351.909000", "110351.912000", "110351.915000", "110351.918000", "110351.921000", "110351.923000", "110351.926000", "110351.929000", "110351.932000", "110351.935000", "110351.938000", "110431.862000", "110431.865000", "110431.868000", "110431.871000", "110431.874000", "110431.890000", "110431.893000", "110431.896000", "110431.899000", "110431.901000", "110431.904000", "110431.907000", "110431.910000", "110431.913000", "110431.916000", "110431.919000", "110431.921000", "110431.924000", "110431.927000", "110431.930000", "110431.933000", "110431.936000", "110431.939000", "110431.942000", "110431.944000", "110431.947000", "110431.950000", "110511.863000", "110511.866000", "110511.869000", "110511.871000", "110511.874000", "110511.877000", "110511.880000", "110511.883000", "110511.886000", "110511.888000", "110511.891000", "110511.894000", "110511.897000", "110511.900000", "110511.902000", "110511.905000", "110511.908000", "110511.911000", "110511.914000", "110511.917000", "110511.920000", "110511.922000", "110511.925000", "110511.928000", "110511.931000", "110511.934000", "110511.937000", "110551.863000", "110551.866000", "110551.869000", "110551.872000", "110551.875000", "110551.877000", "110551.880000", "110551.883000", "110551.886000", "110551.889000", "110551.891000", "110551.894000", "110551.897000", "110551.900000", "110551.903000", "110551.906000", "110551.909000", "110551.912000", "110551.915000", "110551.918000", "110551.920000", "110551.923000", "110551.926000", "110551.929000", "110551.932000", "110551.935000", "110551.938000", "110631.863000", "110631.866000", "110631.884000", "110631.886000", "110631.889000", "110631.892000", "110631.895000", "110631.898000", "110631.901000", "110631.904000", "110631.907000", "110631.909000", "110631.912000", "110631.915000", "110631.918000", "110631.921000", "110631.924000", "110631.927000", "110631.930000", "110631.933000", "110631.936000", "110631.938000", "110631.941000", "110631.944000", "110631.947000", "110631.950000", "110631.953000", "110711.862000", "110711.865000", "110711.868000", "110711.871000", "110711.874000", "110711.876000", "110711.879000", "110711.882000", "110711.885000", "110711.888000", "110711.890000", "110711.893000", "110711.896000", "110711.899000", "110711.902000", "110711.905000", "110711.907000", "110711.910000", "110711.913000", "110711.916000", "110711.919000", "110711.922000", "110711.925000", "110711.928000", "110711.930000", "110711.933000", "110751.863000", "110751.866000", "110751.869000", "110751.872000", "110751.874000", "110751.877000", "110751.880000", "110751.883000", "110751.886000", "110751.888000", "110751.891000", "110751.894000", "110751.897000", "110751.900000", "110751.903000", "110751.906000", "110751.908000", "110751.911000", "110751.914000", "110751.917000", "110751.920000", "110751.923000", "110751.926000", "110751.929000", "110751.931000", "110751.934000", "110751.937000", "110829.592000", "110829.595000", "110829.598000", "110829.601000", "110829.604000", "110829.607000", "110829.610000", "110829.613000", "110829.615000", "110829.618000", "110829.621000", "110829.624000", "110829.627000", "110829.630000", "110829.633000", "110829.636000", "110829.639000", "110829.642000", "110829.645000", "110829.648000", "110829.651000", "110829.654000", "110829.657000", "110829.660000", "110829.663000", "110829.666000"],
