{
  "AcquisitionMatrixPE": 104,
  "AcquisitionNumber": 1,
  "AcquisitionTime": "11:09:49.445000",
  "BandwidthPerPixelPhaseEncode": 17.17,
  "BaseResolution": 104,
  "BodyPartExamined": "BRAIN",
  "CoilString": "HC1-7;NC1_2",
  "ConsistencyInfo": "N4_VE11C_LATEST_20160120",
  "ConversionSoftware": "dcm2niix",
  "ConversionSoftwareVersion": "v1.0.20190902",
  "DerivedVendorReportedEchoSpacing": 0.000560011,
  "DeviceSerialNumber": "167006",
  "DwellTime": 2.1e-06,
  "EchoTime": 0.037,
  "EchoTrainLength": 104,
  "EffectiveEchoSpacing": 0.000560011,
  "FlipAngle": 52,
  "ImageComments": "Unaliased_MB4_PE3_LB",
  "ImageOrientationPatientDICOM": [0.998284, -0.0030395, -0.0584807, -0.0114999, 0.969031, -0.246671],
  "ImageType": [
    "ORIGINAL",
    "PRIMARY",
    "M",
    "MB",
    "ND",
    "MOSAIC"
],
  "ImagingFrequency": 123.259,
  "InPlanePhaseEncodingDirectionDICOM": "COL",
  "InstitutionAddress": "Chemin_Queen-Mary_4565_Montreal_District_CA_H3W_1W5",
  "InstitutionName": "IUGM",
  "InstitutionalDepartmentName": "Department",
  "MRAcquisitionType": "2D",
  "MagneticFieldStrength": 3,
  "Manufacturer": "Siemens",
  "ManufacturersModelName": "Prisma_fit",
  "Modality": "MR",
  "MultibandAccelerationFactor": 4,
  "PartialFourier": 1,
  "PatientPosition": "HFS",
  "PercentPhaseFOV": 100,
  "PhaseEncodingDirection": "j",
  "PhaseEncodingSteps": 104,
  "PhaseResolution": 1,
  "PixelBandwidth": 2290,
  "ProcedureStepDescription": "video_friends",
  "ProtocolName": "func_task-friends-s03e06b",
  "PulseSequenceDetails": "%CustomerSeq%_cmrr_mbep2d_bold",
  "ReceiveCoilActiveElements": "HC1-7;NC1,2",
  "ReceiveCoilName": "HeadNeck_64",
  "ReconMatrixPE": 104,
  "RepetitionTime": 1.49,
  "SAR": 0.0286785,
  "ScanOptions": "FS",
  "ScanningSequence": "EP",
  "SequenceName": "epfid2d1_104",
  "SequenceVariant": "SK_SS",
  "SeriesDescription": "func_task-friends-s03e06b",
  "SeriesNumber": 11,
  "ShimSetting": [603, -7245, -8843, 586, -35, -275, -10, 46],
  "SliceThickness": 2,
  "SliceTiming": [0, 0.7825, 0.0975, 0.8825, 0.195, 0.98, 0.2925, 1.0775, 0.3925, 1.175, 0.49, 1.2725, 0.5875, 1.3725, 0.685, 0, 0.7825, 0.0975, 0.8825, 0.195, 0.98, 0.2925, 1.0775, 0.3925, 1.175, 0.49, 1.2725, 0.5875, 1.3725, 0.685, 0, 0.7825, 0.0975, 0.8825, 0.195, 0.98, 0.2925, 1.0775, 0.3925, 1.175, 0.49, 1.2725, 0.5875, 1.3725, 0.685, 0, 0.7825, 0.0975, 0.8825, 0.195, 0.98, 0.2925, 1.0775, 0.3925, 1.175, 0.49, 1.2725, 0.5875, 1.3725, 0.685],
  "SoftwareVersions": "syngo_MR_E11",
  "SpacingBetweenSlices": 2,
  "StationName": "MRC35049",
  "TaskName": "s03e06b",
  "TotalReadoutTime": 0.0576811,
  "TxRefAmp": 216.589,
  "WipMemBlock": "7cb0c3b1-c982-4757-9897-63cccf5acc8b||Sequence: R016 ve11c/master r/e634e98; Dec 19 2017 11:00:25 by eja",
  "dcmmeta_affine": [
    [-1.9965678453445435, -0.02299976348876953, -0.11483872681856155, 102.70580291748047],
    [0.006078999023884535, 1.9380618333816528, -0.4938412308692932, -81.41284942626953],
    [-0.11696139723062515, 0.4933428168296814, 1.9346660375595093, -54.29777145385742],
    [0.0, 0.0, 0.0, 1.0]
],
  "dcmmeta_reorient_transform": [
    [0.0, -1.0, 0.0, 103.0],
    [1.0, 0.0, 0.0, 0.0],
    [0.0, 0.0, 1.0, 0.0],
    [0.0, 0.0, 0.0, 1.0]
],
  "dcmmeta_shape": [104, 104, 60, 470],
  "dcmmeta_slice_dim": 2,
  "dcmmeta_version": 0.6,
  "global": {
    "const": {
      "AcquisitionMatrix": [104, 0, 0, 104],
      "AngioFlag": "N",
      "BitsAllocated": 16,
      "BitsStored": 16,
      "BodyPartExamined": "BRAIN",
      "Columns": 832,
      "EchoNumbers": 1,
      "EchoTime": 37.0,
      "EchoTrainLength": 104,
      "FlipAngle": 52.0,
      "HighBit": 15,
      "ImageOrientationPatient": [0.99828391229211, -0.0030394994259, -0.0584806968323, -0.0114998816527, 0.96903094330061, -0.2466714082497],
      "ImagePositionPatient": [-818.71559932151, -821.44929277224, 218.66727118535],
      "ImageType": [
        "ORIGINAL",
        "PRIMARY",
        "M",
        "MB",
        "ND",
        "MOSAIC"
],
      "ImagedNucleus": "1H",
      "ImagingFrequency": 123.259045,
      "InPlanePhaseEncodingDirection": "COL",
      "MRAcquisitionType": "2D",
      "MagneticFieldStrength": 3.0,
      "Manufacturer": "SIEMENS",
      "ManufacturerModelName": "Prisma_fit",
      "Modality": "MR",
      "NumberOfAverages": 1.0,
      "NumberOfPhaseEncodingSteps": 104,
      "PercentPhaseFieldOfView": 100.0,
      "PercentSampling": 100.0,
      "PerformedProcedureStepStartTime": "104542.074000",
      "PhotometricInterpretation": "MONOCHROME2",
      "PixelBandwidth": 2290.0,
      "PixelRepresentation": 0,
      "PixelSpacing": [2.0, 2.0],
      "ProtocolName": "func_task-friends-s03e06b",
      "RepetitionTime": 1490.0,
      "Rows": 832,
      "SAR": 0.02867849804503,
      "SamplesPerPixel": 1,
      "ScanOptions": "FS",
      "ScanningSequence": "EP",
      "SequenceName": "epfid2d1_104",
      "SequenceVariant": [
        "SK",
        "SS"
],
      "SeriesDescription": "func_task-friends-s03e06b",
      "SeriesNumber": 11,
      "SeriesTime": "111116.858000",
      "SliceLocation": -38.318818247323,
      "SliceThickness": 2.0,
      "SmallestImagePixelValue": 0,
      "SoftwareVersions": "syngo MR E11",
      "SpacingBetweenSlices": 1.9999999768545,
      "SpecificCharacterSet": "ISO_IR 100",
      "StudyID": "1",
      "StudyTime": "104541.904000",
      "TransmitCoilName": "Body",
      "VariableFlipAngleFlag": "N",
      "WindowCenterWidthExplanation": "Algo1",
      "dBdt": 0.0},
    "slices": {}
  },
  "time": {
    "samples": {
      "AcquisitionNumber": [1, 2, 3, 4, 5, 6, 7, 8, 9, 10, 11, 12, 13, 14, 15, 16, 17, 18, 19, 20, 21, 22, 23, 24, 25, 26, 27, 28, 29, 30, 31, 32, 33, 34, 35, 36, 37, 38, 39, 40, 41, 42, 43, 44, 45, 46, 47, 48, 49, 50, 51, 52, 53, 54, 55, 56, 57, 58, 59, 60, 61, 62, 63, 64, 65, 66, 67, 68, 69, 70, 71, 72, 73, 74, 75, 76, 77, 78, 79, 80, 81, 82, 83, 84, 85, 86, 87, 88, 89, 90, 91, 92, 93, 94, 95, 96, 97, 98, 99, 100, 101, 102, 103, 104, 105, 106, 107, 108, 109, 110, 111, 112, 113, 114, 115, 116, 117, 118, 119, 120, 121, 122, 123, 124, 125, 126, 127, 128, 129, 130, 131, 132, 133, 134, 135, 136, 137, 138, 139, 140, 141, 142, 143, 144, 145, 146, 147, 148, 149, 150, 151, 152, 153, 154, 155, 156, 157, 158, 159, 160, 161, 162, 163, 164, 165, 166, 167, 168, 169, 170, 171, 172, 173, 174, 175, 176, 177, 178, 179, 180, 181, 182, 183, 184, 185, 186, 187, 188, 189, 190, 191, 192, 193, 194, 195, 196, 197, 198, 199, 200, 201, 202, 203, 204, 205, 206, 207, 208, 209, 210, 211, 212, 213, 214, 215, 216, 217, 218, 219, 220, 221, 222, 223, 224, 225, 226, 227, 228, 229, 230, 231, 232, 233, 234, 235, 236, 237, 238, 239, 240, 241, 242, 243, 244, 245, 246, 247, 248, 249, 250, 251, 252, 253, 254, 255, 256, 257, 258, 259, 260, 261, 262, 263, 264, 265, 266, 267, 268, 269, 270, 271, 272, 273, 274, 275, 276, 277, 278, 279, 280, 281, 282, 283, 284, 285, 286, 287, 288, 289, 290, 291, 292, 293, 294, 295, 296, 297, 298, 299, 300, 301, 302, 303, 304, 305, 306, 307, 308, 309, 310, 311, 312, 313, 314, 315, 316, 317, 318, 319, 320, 321, 322, 323, 324, 325, 326, 327, 328, 329, 330, 331, 332, 333, 334, 335, 336, 337, 338, 339, 340, 341, 342, 343, 344, 345, 346, 347, 348, 349, 350, 351, 352, 353, 354, 355, 356, 357, 358, 359, 360, 361, 362, 363, 364, 365, 366, 367, 368, 369, 370, 371, 372, 373, 374, 375, 376, 377, 378, 379, 380, 381, 382, 383, 384, 385, 386, 387, 388, 389, 390, 391, 392, 393, 394, 395, 396, 397, 398, 399, 400, 401, 402, 403, 404, 405, 406, 407, 408, 409, 410, 411, 412, 413, 414, 415, 416, 417, 418, 419, 420, 421, 422, 423, 424, 425, 426, 427, 428, 429, 430, 431, 432, 433, 434, 435, 436, 437, 438, 439, 440, 441, 442, 443, 444, 445, 446, 447, 448, 449, 450, 451, 452, 453, 454, 455, 456, 457, 458, 459, 460, 461, 462, 463, 464, 465, 466, 467, 468, 469, 470],
      "AcquisitionTime": ["110949.445000", "110950.935000", "110952.425000", "110953.915000", "110955.405000", "110956.895000", "110958.385000", "110959.875000", "111001.365000", "111002.855000", "111004.345000", "111005.835000", "111007.325000", "111008.815000", "111010.305000", "111011.795000", "111013.285000", "111014.775000", "111016.265000", "111017.755000", "111019.245000", "111020.735000", "111022.225000", "111023.715000", "111025.205000", "111026.695000", "111028.185000", "111029.675000", "111031.165000", "111032.655000", "111034.145000", "111035.635000", "111037.125000", "111038.615000", "111040.105000", "111041.595000", "111043.085000", "111044.575000", "111046.065000", "111047.555000", "111049.045000", "111050.535000", "111052.025000", "111053.515000", "111055.005000", "111056.495000", "111057.985000", "111059.475000", "111100.965000", "111102.455000", "111103.945000", "111105.435000", "111106.925000", "111108.415000", "111109.905000", "111111.395000", "111112.885000", "111114.375000", "111115.865000", "111117.355000", "111118.845000", "111120.335000", "111121.825000", "111123.315000", "111124.805000", "111126.295000", "111127.785000", "111129.275000", "111130.765000", "111132.255000", "111133.745000", "111135.235000", "111136.725000", "111138.215000", "111139.705000", "111141.195000", "111142.685000", "111144.175000", "111145.665000", "111147.155000", "111148.645000", "111150.135000", "111151.625000", "111153.115000", "111154.605000", "111156.095000", "111157.585000", "111159.075000", "111200.565000", "111202.055000", "111203.545000", "111205.035000", "111206.525000", "111208.015000", "111209.505000", "111210.995000", "111212.485000", "111213.975000", "111215.465000", "111216.955000", "111218.445000", "111219.935000", "111221.425000", "111222.915000", "111224.405000", "111225.895000", "111227.385000", "111228.875000", "111230.365000", "111231.855000", "111233.345000", "111234.835000", "111236.325000", "111237.815000", "111239.305000", "111240.795000", "111242.285000", "111243.775000", "111245.265000", "111246.755000", "111248.245000", "111249.735000", "111251.225000", "111252.715000", "111254.205000", "111255.695000", "111257.185000", "111258.675000", "111300.165000", "111301.655000", "111303.145000", "111304.635000", "111306.125000", "111307.615000", "111309.105000", "111310.595000", "111312.085000", "111313.575000", "111315.065000", "111316.555000", "111318.045000", "111319.535000", "111321.025000", "111322.515000", "111324.005000", "111325.495000", "111326.985000", "111328.475000", "111329.965000", "111331.455000", "111332.945000", "111334.435000", "111335.925000", "111337.415000", "111338.905000", "111340.395000", "111341.885000", "111343.375000", "111344.865000", "111346.355000", "111347.845000", "111349.335000", "111350.825000", "111352.315000", "111353.805000", "111355.295000", "111356.785000", "111358.275000", "111359.765000", "111401.255000", "111402.745000", "111404.235000", "111405.725000", "111407.215000", "111408.705000", "111410.195000", "111411.685000", "111413.175000", "111414.665000", "111416.155000", "111417.645000", "111419.135000", "111420.625000", "111422.115000", "111423.605000", "111425.095000", "111426.585000", "111428.075000", "111429.565000", "111431.055000", "111432.545000", "111434.035000", "111435.525000", "111437.015000", "111438.505000", "111439.995000", "111441.485000", "111442.975000", "111444.465000", "111445.955000", "111447.445000", "111448.935000", "111450.425000", "111451.915000", "111453.405000", "111454.895000", "111456.385000", "111457.875000", "111459.365000", "111500.855000", "111502.345000", "111503.835000", "111505.325000", "111506.815000", "111508.305000", "111509.795000", "111511.285000", "111512.775000", "111514.265000", "111515.755000", "111517.245000", "111518.735000", "111520.225000", "111521.715000", "111523.205000", "111524.695000", "111526.185000", "111527.675000", "111529.165000", "111530.655000", "111532.145000", "111533.635000", "111535.125000", "111536.615000", "111538.105000", "111539.595000", "111541.085000", "111542.575000", "111544.065000", "111545.555000", "111547.045000", "111548.535000", "111550.025000", "111551.515000", "111553.005000", "111554.495000", "111555.985000", "111557.475000", "111558.965000", "111600.455000", "111601.945000", "111603.435000", "111604.925000", "111606.415000", "111607.905000", "111609.395000", "111610.885000", "111612.375000", "111613.865000", "111615.355000", "111616.845000", "111618.335000", "111619.825000", "111621.315000", "111622.805000", "111624.295000", "111625.785000", "111627.275000", "111628.765000", "111630.255000", "111631.745000", "111633.235000", "111634.725000", "111636.215000", "111637.705000", "111639.195000", "111640.685000", "111642.175000", "111643.665000", "111645.155000", "111646.645000", "111648.135000", "111649.625000", "111651.115000", "111652.605000", "111654.095000", "111655.585000", "111657.075000", "111658.565000", "111700.055000", "111701.545000", "111703.035000", "111704.525000", "111706.015000", "111707.505000", "111708.995000", "111710.485000", "111711.975000", "111713.465000", "111714.955000", "111716.445000", "111717.935000", "111719.425000", "111720.915000", "111722.405000", "111723.895000", "111725.385000", "111726.875000", "111728.365000", "111729.855000", "111731.345000", "111732.835000", "111734.325000", "111735.815000", "111737.305000", "111738.795000", "111740.285000", "111741.775000", "111743.265000", "111744.755000", "111746.245000", "111747.735000", "111749.225000", "111750.715000", "111752.205000", "111753.695000", "111755.185000", "111756.675000", "111758.165000", "111759.655000", "111801.145000", "111802.635000", "111804.125000", "111805.615000", "111807.105000", "111808.595000", "111810.085000", "111811.575000", "111813.065000", "111814.555000", "111816.045000", "111817.535000", "111819.025000", "111820.515000", "111822.005000", "111823.495000", "111824.985000", "111826.475000", "111827.965000", "111829.455000", "111830.945000", "111832.435000", "111833.925000", "111835.415000", "111836.905000", "111838.395000", "111839.885000", "111841.375000", "111842.865000", "111844.355000", "111845.845000", "111847.335000", "111848.825000", "111850.315000", "111851.805000", "111853.295000", "111854.785000", "111856.275000", "111857.765000", "111859.255000", "111900.745000", "111902.235000", "111903.725000", "111905.215000", "111906.705000", "111908.195000", "111909.685000", "111911.175000", "111912.665000", "111914.155000", "111915.645000", "111917.135000", "111918.625000", "111920.115000", "111921.605000", "111923.095000", "111924.585000", "111926.075000", "111927.565000", "111929.055000", "111930.545000", "111932.035000", "111933.525000", "111935.015000", "111936.505000", "111937.995000", "111939.485000", "111940.975000", "111942.465000", "111943.955000", "111945.445000", "111946.935000", "111948.425000", "111949.915000", "111951.405000", "111952.895000", "111954.385000", "111955.875000", "111957.365000", "111958.855000", "112000.345000", "112001.835000", "112003.325000", "112004.815000", "112006.305000", "112007.795000", "112009.285000", "112010.775000", "112012.265000", "112013.755000", "112015.245000", "112016.735000", "112018.225000", "112019.715000", "112021.205000", "112022.695000", "112024.185000", "112025.675000", "112027.165000", "112028.655000", "112030.145000", "112031.635000", "112033.125000", "112034.615000", "112036.105000", "112037.595000", "112039.085000", "112040.575000", "112042.065000", "112043.555000", "112045.045000", "112046.535000", "112048.025000", "112049.515000", "112051.005000", "112052.495000", "112053.985000", "112055.475000", "112056.965000", "112058.455000", "112059.945000", "112101.435000", "112102.925000", "112104.415000", "112105.905000", "112107.395000", "112108.885000", "112110.375000", "112111.865000", "112113.355000", "112114.845000", "112116.335000", "112117.825000", "112119.315000", "112120.805000", "112122.295000", "112123.785000", "112125.275000", "112126.765000", "112128.255000"],
      "ContentTime": ["111116.861000", "111116.864000", "111116.867000", "111116.870000", "111116.873000", "111116.876000", "111116.879000", "111116.882000", "111116.885000", "111116.888000", "111116.891000", "111116.912000", "111116.915000", "111116.918000", "111116.920000", "111116.923000", "111116.932000", "111116.935000", "111116.938000", "111116.941000", "111116.944000", "111116.947000", "111116.950000", "111116.952000", "111116.955000", "111116.958000", "111116.961000", "111116.964000", "111116.967000", "111116.970000", "111116.973000", "111116.976000", "111116.979000", "111116.982000", "111136.830000", "111136.833000", "111136.836000", "111136.839000", "111136.842000", "111136.845000", "111136.847000", "111136.850000", "111136.853000", "111136.856000", "111136.859000", "111136.862000", "111136.865000", "111136.868000", "111136.871000", "111136.873000", "111136.876000", "111136.879000", "111136.882000", "111136.885000", "111156.831000", "111156.834000", "111156.837000", "111156.840000", "111156.843000", "111156.846000", "111156.849000", "111156.851000", "111156.854000", "111156.857000", "111156.860000", "111156.863000", "111156.866000", "111156.869000", "111156.872000", "111156.875000", "111156.877000", "111156.880000", "111156.883000", "111156.886000", "111216.830000", "111216.838000", "111216.841000", "111216.844000", "111216.847000", "111216.850000", "111216.853000", "111216.855000", "111216.858000", "111216.861000", "111216.864000", "111216.867000", "111216.870000", "111216.873000", "111216.876000", "111216.878000", "111216.881000", "111216.884000", "111216.887000", "111216.890000", "111256.830000", "111256.833000", "111256.836000", "111256.839000", "111256.841000", "111256.844000", "111256.847000", "111256.850000", "111256.853000", "111256.856000", "111256.859000", "111256.862000", "111256.864000", "111256.867000", "111256.870000", "111256.873000", "111256.876000", "111256.879000", "111256.882000", "111256.885000", "111256.888000", "111256.890000", "111256.893000", "111256.896000", "111256.899000", "111256.902000", "111256.905000", "111256.908000", "111256.911000", "111256.914000", "111256.916000", "111336.830000", "111336.833000", "111336.836000", "111336.839000", "111336.842000", "111336.845000", "111336.848000", "111336.851000", "111336.854000", "111336.857000", "111336.860000", "111336.862000", "111336.865000", "111336.868000", "111336.871000", "111336.874000", "111336.877000", "111336.880000", "111336.883000", "111336.885000", "111336.888000", "111336.891000", "111336.894000", "111336.897000", "111336.900000", "111336.903000", "111336.906000", "111416.831000", "111416.834000", "111416.837000", "111416.840000", "111416.843000", "111416.846000", "111416.849000", "111416.852000", "111416.855000", "111416.858000", "111416.861000", "111416.864000", "111416.866000", "111416.869000", "111416.872000", "111416.875000", "111416.878000", "111416.881000", "111416.884000", "111416.887000", "111416.890000", "111416.892000", "111416.895000", "111416.898000", "111416.901000", "111416.904000", "111456.830000", "111456.833000", "111456.836000", "111456.839000", "111456.842000", "111456.845000", "111456.847000", "111456.850000", "111456.853000", "111456.856000", "111456.859000", "111456.862000", "111456.865000", "111456.868000", "111456.870000", "111456.873000", "111456.876000", "111456.879000", "111456.882000", "111456.885000", "111456.888000", "111456.891000", "111456.894000", "111456.897000", "111456.900000", "111456.903000", "111456.905000", "111536.830000", "111536.833000", "111536.836000", "111536.839000", "111536.842000", "111536.845000", "111536.848000", "111536.851000", "111536.853000", "111536.856000", "111536.859000", "111536.862000", "111536.865000", "111536.868000", "111536.871000", "111536.874000", "111536.893000", "111536.896000", "111536.909000", "111536.912000", "111536.915000", "111536.917000", "111536.920000", "111536.923000", "111536.926000", "111536.929000", "111536.932000", "111616.830000", "111616.867000", "111616.870000", "111616.873000", "111616.876000", "111616.879000", "111616.882000", "111616.885000", "111616.887000", "111616.890000", "111616.893000", "111616.896000", "111616.899000", "111616.902000", "111616.905000", "111616.908000", "111616.911000", "111616.914000", "111616.916000", "111616.919000", "111616.922000", "111616.925000", "111616.928000", "111616.931000", "111616.934000", "111616.937000", "111616.939000", "111656.830000", "111656.833000", "111656.836000", "111656.839000", "111656.842000", "111656.845000", "111656.847000", "111656.850000", "111656.853000", "111656.856000", "111656.859000", "111656.862000", "111656.865000", "111656.868000", "111656.871000", "111656.874000", "111656.877000", "111656.879000", "111656.882000", "111656.885000", "111656.888000", "111656.891000", "111656.894000", "111656.897000", "111656.900000", "111656.903000", "111656.906000", "111736.830000", "111736.833000", "111736.836000", "111736.839000", "111736.842000", "111736.845000", "111736.847000", "111736.850000", "111736.853000", "111736.856000", "111736.859000", "111736.862000", "111736.865000", "111736.868000", "111736.871000", "111736.874000", "111736.876000", "111736.879000", "111736.882000", "111736.885000", "111736.888000", "111736.891000", "111736.894000", "111736.897000", "111736.900000", "111736.902000", "111736.905000", "111816.830000", "111816.833000", "111816.836000", "111816.839000", "111816.842000", "111816.845000", "111816.848000", "111816.851000", "111816.855000", "111816.859000", "111816.862000", "111816.865000", "111816.883000", "111816.886000", "111816.889000", "111816.892000", "111816.894000", "111816.897000", "111816.900000", "111816.903000", "111816.906000", "111816.909000", "111816.912000", "111816.915000", "111816.917000", "111816.920000", "111856.831000", "111856.834000", "111856.837000", "111856.840000", "111856.843000", "111856.846000", "111856.849000", "111856.851000", "111856.854000", "111856.857000", "111856.860000", "111856.863000", "111856.866000", "111856.869000", "111856.872000", "111856.875000", "111856.878000", "111856.881000", "111856.883000", "111856.886000", "111856.889000", "111856.892000", "111856.895000", "111856.898000", "111856.901000", "111856.903000", "111856.906000", "111936.830000", "111936.833000", "111936.836000", "111936.839000", "111936.842000", "111936.845000", "111936.847000", "111936.850000", "111936.853000", "111936.856000", "111936.859000", "111936.862000", "111936.865000", "111936.868000", "111936.871000", "111936.874000", "111936.877000", "111936.879000", "111936.882000", "111936.885000", "111936.888000", "111936.891000", "111936.894000", "111936.897000", "111936.900000", "111936.903000", "111936.905000", "112016.830000", "112016.867000", "112016.870000", "112016.872000", "112016.875000", "112016.878000", "112016.881000", "112016.884000", "112016.887000", "112016.890000", "112016.893000", "112016.895000", "112016.911000", "112016.914000", "112016.926000", "112016.928000", "112016.931000", "112016.934000", "112016.937000", "112016.946000", "112016.949000", "112016.952000", "112016.955000", "112016.958000", "112016.961000", "112016.964000", "112016.967000", "112056.830000", "112056.833000", "112056.836000", "112056.839000", "112056.842000", "112056.845000", "112056.848000", "112056.851000", "112056.854000", "112056.857000", "112056.860000", "112056.863000", "112056.866000", "112056.869000", "112056.872000", "112056.875000", "112056.878000", "112056.881000", "112056.883000", "112056.886000", "112056.889000", "112056.892000", "112056.895000", "112056.898000", "112056.901000", "112056.904000", "112056.907000", "112130.611000", "112130.614000", "112130.617000", "112130.620000", "112130.632000", "112130.635000", "112130.638000", "112130.641000", "112130.644000", "112130.647000", "112130.651000", "112130.654000", "112130.657000", "112130.660000", "112130.663000", "112130.665000", "112130.669000", "112130.671000", "112130.674000", "112130.677000", "112130.680000", "112130.683000", "112130.686000"],
