{
  "AcquisitionMatrixPE": 104,
  "AcquisitionNumber": 1,
  "AcquisitionTime": "10:57:42.967500",
  "BandwidthPerPixelPhaseEncode": 17.17,
  "BaseResolution": 104,
  "BodyPartExamined": "BRAIN",
  "CoilString": "HC1-7;NC1_2",
  "ConsistencyInfo": "N4_VE11C_LATEST_20160120",
  "ConversionSoftware": "dcm2niix",
  "ConversionSoftwareVersion": "v1.0.20190902",
  "DerivedVendorReportedEchoSpacing": 0.000560011,
  "DeviceSerialNumber": "167006",
  "DwellTime": 2.1e-06,
  "EchoTime": 0.037,
  "EchoTrainLength": 104,
  "EffectiveEchoSpacing": 0.000560011,
  "FlipAngle": 52,
  "ImageComments": "Unaliased_MB4_PE3_LB",
  "ImageOrientationPatientDICOM": [0.998284, -0.0030395, -0.0584807, -0.0114999, 0.969031, -0.246671],
  "ImageType": [
    "ORIGINAL",
    "PRIMARY",
    "M",
    "MB",
    "ND",
    "MOSAIC"
],
  "ImagingFrequency": 123.259,
  "InPlanePhaseEncodingDirectionDICOM": "COL",
  "InstitutionAddress": "Chemin_Queen-Mary_4565_Montreal_District_CA_H3W_1W5",
  "InstitutionName": "IUGM",
  "InstitutionalDepartmentName": "Department",
  "MRAcquisitionType": "2D",
  "MagneticFieldStrength": 3,
  "Manufacturer": "Siemens",
  "ManufacturersModelName": "Prisma_fit",
  "Modality": "MR",
  "MultibandAccelerationFactor": 4,
  "PartialFourier": 1,
  "PatientPosition": "HFS",
  "PercentPhaseFOV": 100,
  "PhaseEncodingDirection": "j",
  "PhaseEncodingSteps": 104,
  "PhaseResolution": 1,
  "PixelBandwidth": 2290,
  "ProcedureStepDescription": "video_friends",
  "ProtocolName": "func_task-friends-s03e06a",
  "PulseSequenceDetails": "%CustomerSeq%_cmrr_mbep2d_bold",
  "ReceiveCoilActiveElements": "HC1-7;NC1,2",
  "ReceiveCoilName": "HeadNeck_64",
  "ReconMatrixPE": 104,
  "RepetitionTime": 1.49,
  "SAR": 0.0286785,
  "ScanOptions": "FS",
  "ScanningSequence": "EP",
  "SequenceName": "epfid2d1_104",
  "SequenceVariant": "SK_SS",
  "SeriesDescription": "func_task-friends-s03e06a",
  "SeriesNumber": 9,
  "ShimSetting": [603, -7245, -8843, 586, -35, -275, -10, 46],
  "SliceThickness": 2,
  "SliceTiming": [0, 0.785, 0.1, 0.8825, 0.1975, 0.98, 0.295, 1.0775, 0.3925, 1.1775, 0.49, 1.275, 0.5875, 1.3725, 0.6875, 0, 0.785, 0.1, 0.8825, 0.1975, 0.98, 0.295, 1.0775, 0.3925, 1.1775, 0.49, 1.275, 0.5875, 1.3725, 0.6875, 0, 0.785, 0.1, 0.8825, 0.1975, 0.98, 0.295, 1.0775, 0.3925, 1.1775, 0.49, 1.275, 0.5875, 1.3725, 0.6875, 0, 0.785, 0.1, 0.8825, 0.1975, 0.98, 0.295, 1.0775, 0.3925, 1.1775, 0.49, 1.275, 0.5875, 1.3725, 0.6875],
  "SoftwareVersions": "syngo_MR_E11",
  "SpacingBetweenSlices": 2,
  "StationName": "MRC35049",
  "TaskName": "s03e06a",
  "TotalReadoutTime": 0.0576811,
  "TxRefAmp": 216.589,
  "WipMemBlock": "84768f24-f5dc-4f2f-bfac-182ec202d869||Sequence: R016 ve11c/master r/e634e98; Dec 19 2017 11:00:25 by eja",
  "dcmmeta_affine": [
    [-1.9965678453445435, -0.02299976348876953, -0.11483872681856155, 102.70580291748047],
    [0.006078999023884535, 1.9380618333816528, -0.4938412308692932, -81.41284942626953],
    [-0.11696139723062515, 0.4933428168296814, 1.9346660375595093, -54.29777145385742],
    [0.0, 0.0, 0.0, 1.0]
],
  "dcmmeta_reorient_transform": [
    [0.0, -1.0, 0.0, 103.0],
    [1.0, 0.0, 0.0, 0.0],
    [0.0, 0.0, 1.0, 0.0],
    [0.0, 0.0, 0.0, 1.0]
],
  "dcmmeta_shape": [104, 104, 60, 470],
  "dcmmeta_slice_dim": 2,
  "dcmmeta_version": 0.6,
  "global": {
    "const": {
      "AcquisitionMatrix": [104, 0, 0, 104],
      "AngioFlag": "N",
      "BitsAllocated": 16,
      "BitsStored": 16,
      "BodyPartExamined": "BRAIN",
      "Columns": 832,
      "EchoNumbers": 1,
      "EchoTime": 37.0,
      "EchoTrainLength": 104,
      "FlipAngle": 52.0,
      "HighBit": 15,
      "ImageOrientationPatient": [0.99828391229211, -0.0030394994259, -0.0584806968323, -0.0114998816527, 0.96903094330061, -0.2466714082497],
      "ImagePositionPatient": [-818.71559932151, -821.44929277224, 218.66727118535],
      "ImageType": [
        "ORIGINAL",
        "PRIMARY",
        "M",
        "MB",
        "ND",
        "MOSAIC"
],
      "ImagedNucleus": "1H",
      "ImagingFrequency": 123.259038,
      "InPlanePhaseEncodingDirection": "COL",
      "MRAcquisitionType": "2D",
      "MagneticFieldStrength": 3.0,
      "Manufacturer": "SIEMENS",
      "ManufacturerModelName": "Prisma_fit",
      "Modality": "MR",
      "NumberOfAverages": 1.0,
      "NumberOfPhaseEncodingSteps": 104,
      "PercentPhaseFieldOfView": 100.0,
      "PercentSampling": 100.0,
      "PerformedProcedureStepStartTime": "104542.074000",
      "PhotometricInterpretation": "MONOCHROME2",
      "PixelBandwidth": 2290.0,
      "PixelRepresentation": 0,
      "PixelSpacing": [2.0, 2.0],
      "ProtocolName": "func_task-friends-s03e06a",
      "RepetitionTime": 1490.0,
      "Rows": 832,
      "SAR": 0.02867849804503,
      "SamplesPerPixel": 1,
      "ScanOptions": "FS",
      "ScanningSequence": "EP",
      "SequenceName": "epfid2d1_104",
      "SequenceVariant": [
        "SK",
        "SS"
],
      "SeriesDescription": "func_task-friends-s03e06a",
      "SeriesNumber": 9,
      "SeriesTime": "105906.782000",
      "SliceLocation": -38.318818247323,
      "SliceThickness": 2.0,
      "SmallestImagePixelValue": 0,
      "SoftwareVersions": "syngo MR E11",
      "SpacingBetweenSlices": 1.9999999768545,
      "SpecificCharacterSet": "ISO_IR 100",
      "StudyID": "1",
      "StudyTime": "104541.904000",
      "TransmitCoilName": "Body",
      "VariableFlipAngleFlag": "N",
      "WindowCenterWidthExplanation": "Algo1",
      "dBdt": 0.0},
    "slices": {}
  },
  "time": {
    "samples": {
      "AcquisitionNumber": [1, 2, 3, 4, 5, 6, 7, 8, 9, 10, 11, 12, 13, 14, 15, 16, 17, 18, 19, 20, 21, 22, 23, 24, 25, 26, 27, 28, 29, 30, 31, 32, 33, 34, 35, 36, 37, 38, 39, 40, 41, 42, 43, 44, 45, 46, 47, 48, 49, 50, 51, 52, 53, 54, 55, 56, 57, 58, 59, 60, 61, 62, 63, 64, 65, 66, 67, 68, 69, 70, 71, 72, 73, 74, 75, 76, 77, 78, 79, 80, 81, 82, 83, 84, 85, 86, 87, 88, 89, 90, 91, 92, 93, 94, 95, 96, 97, 98, 99, 100, 101, 102, 103, 104, 105, 106, 107, 108, 109, 110, 111, 112, 113, 114, 115, 116, 117, 118, 119, 120, 121, 122, 123, 124, 125, 126, 127, 128, 129, 130, 131, 132, 133, 134, 135, 136, 137, 138, 139, 140, 141, 142, 143, 144, 145, 146, 147, 148, 149, 150, 151, 152, 153, 154, 155, 156, 157, 158, 159, 160, 161, 162, 163, 164, 165, 166, 167, 168, 169, 170, 171, 172, 173, 174, 175, 176, 177, 178, 179, 180, 181, 182, 183, 184, 185, 186, 187, 188, 189, 190, 191, 192, 193, 194, 195, 196, 197, 198, 199, 200, 201, 202, 203, 204, 205, 206, 207, 208, 209, 210, 211, 212, 213, 214, 215, 216, 217, 218, 219, 220, 221, 222, 223, 224, 225, 226, 227, 228, 229, 230, 231, 232, 233, 234, 235, 236, 237, 238, 239, 240, 241, 242, 243, 244, 245, 246, 247, 248, 249, 250, 251, 252, 253, 254, 255, 256, 257, 258, 259, 260, 261, 262, 263, 264, 265, 266, 267, 268, 269, 270, 271, 272, 273, 274, 275, 276, 277, 278, 279, 280, 281, 282, 283, 284, 285, 286, 287, 288, 289, 290, 291, 292, 293, 294, 295, 296, 297, 298, 299, 300, 301, 302, 303, 304, 305, 306, 307, 308, 309, 310, 311, 312, 313, 314, 315, 316, 317, 318, 319, 320, 321, 322, 323, 324, 325, 326, 327, 328, 329, 330, 331, 332, 333, 334, 335, 336, 337, 338, 339, 340, 341, 342, 343, 344, 345, 346, 347, 348, 349, 350, 351, 352, 353, 354, 355, 356, 357, 358, 359, 360, 361, 362, 363, 364, 365, 366, 367, 368, 369, 370, 371, 372, 373, 374, 375, 376, 377, 378, 379, 380, 381, 382, 383, 384, 385, 386, 387, 388, 389, 390, 391, 392, 393, 394, 395, 396, 397, 398, 399, 400, 401, 402, 403, 404, 405, 406, 407, 408, 409, 410, 411, 412, 413, 414, 415, 416, 417, 418, 419, 420, 421, 422, 423, 424, 425, 426, 427, 428, 429, 430, 431, 432, 433, 434, 435, 436, 437, 438, 439, 440, 441, 442, 443, 444, 445, 446, 447, 448, 449, 450, 451, 452, 453, 454, 455, 456, 457, 458, 459, 460, 461, 462, 463, 464, 465, 466, 467, 468, 469, 470],
      "AcquisitionTime": ["105742.967500", "105744.457500", "105745.947500", "105747.437500", "105748.927500", "105750.417500", "105751.907500", "105753.397500", "105754.887500", "105756.377500", "105757.867500", "105759.357500", "105800.847500", "105802.337500", "105803.827500", "105805.317500", "105806.807500", "105808.297500", "105809.787500", "105811.277500", "105812.767500", "105814.257500", "105815.747500", "105817.237500", "105818.727500", "105820.217500", "105821.707500", "105823.197500", "105824.687500", "105826.177500", "105827.667500", "105829.157500", "105830.647500", "105832.137500", "105833.627500", "105835.117500", "105836.607500", "105838.097500", "105839.587500", "105841.077500", "105842.567500", "105844.057500", "105845.547500", "105847.037500", "105848.527500", "105850.017500", "105851.507500", "105852.997500", "105854.487500", "105855.977500", "105857.467500", "105858.957500", "105900.447500", "105901.937500", "105903.427500", "105904.917500", "105906.407500", "105907.897500", "105909.387500", "105910.877500", "105912.367500", "105913.857500", "105915.347500", "105916.837500", "105918.327500", "105919.817500", "105921.307500", "105922.797500", "105924.287500", "105925.777500", "105927.267500", "105928.757500", "105930.247500", "105931.737500", "105933.227500", "105934.717500", "105936.207500", "105937.697500", "105939.187500", "105940.677500", "105942.167500", "105943.657500", "105945.147500", "105946.637500", "105948.127500", "105949.617500", "105951.107500", "105952.597500", "105954.087500", "105955.577500", "105957.067500", "105958.557500", "110000.047500", "110001.537500", "110003.027500", "110004.517500", "110006.007500", "110007.497500", "110008.987500", "110010.477500", "110011.967500", "110013.457500", "110014.947500", "110016.437500", "110017.927500", "110019.417500", "110020.907500", "110022.397500", "110023.887500", "110025.377500", "110026.867500", "110028.357500", "110029.847500", "110031.337500", "110032.827500", "110034.317500", "110035.807500", "110037.297500", "110038.787500", "110040.277500", "110041.767500", "110043.257500", "110044.747500", "110046.237500", "110047.727500", "110049.217500", "110050.707500", "110052.197500", "110053.687500", "110055.177500", "110056.667500", "110058.157500", "110059.647500", "110101.137500", "110102.627500", "110104.117500", "110105.607500", "110107.097500", "110108.587500", "110110.077500", "110111.567500", "110113.057500", "110114.547500", "110116.037500", "110117.527500", "110119.017500", "110120.507500", "110121.997500", "110123.487500", "110124.977500", "110126.467500", "110127.957500", "110129.447500", "110130.937500", "110132.427500", "110133.917500", "110135.407500", "110136.897500", "110138.387500", "110139.877500", "110141.367500", "110142.857500", "110144.347500", "110145.837500", "110147.327500", "110148.817500", "110150.307500", "110151.797500", "110153.287500", "110154.777500", "110156.267500", "110157.757500", "110159.247500", "110200.737500", "110202.227500", "110203.717500", "110205.207500", "110206.697500", "110208.187500", "110209.677500", "110211.167500", "110212.657500", "110214.147500", "110215.637500", "110217.127500", "110218.617500", "110220.107500", "110221.597500", "110223.087500", "110224.577500", "110226.067500", "110227.557500", "110229.047500", "110230.537500", "110232.027500", "110233.517500", "110235.007500", "110236.497500", "110237.987500", "110239.477500", "110240.967500", "110242.457500", "110243.947500", "110245.437500", "110246.927500", "110248.417500", "110249.907500", "110251.397500", "110252.887500", "110254.377500", "110255.867500", "110257.357500", "110258.847500", "110300.337500", "110301.827500", "110303.317500", "110304.807500", "110306.297500", "110307.787500", "110309.277500", "110310.767500", "110312.257500", "110313.747500", "110315.237500", "110316.727500", "110318.217500", "110319.707500", "110321.197500", "110322.687500", "110324.177500", "110325.667500", "110327.157500", "110328.647500", "110330.137500", "110331.627500", "110333.117500", "110334.607500", "110336.097500", "110337.587500", "110339.077500", "110340.567500", "110342.057500", "110343.547500", "110345.037500", "110346.527500", "110348.017500", "110349.507500", "110350.997500", "110352.487500", "110353.977500", "110355.467500", "110356.957500", "110358.447500", "110359.937500", "110401.427500", "110402.917500", "110404.407500", "110405.897500", "110407.387500", "110408.877500", "110410.367500", "110411.857500", "110413.347500", "110414.837500", "110416.327500", "110417.817500", "110419.307500", "110420.797500", "110422.287500", "110423.777500", "110425.267500", "110426.757500", "110428.247500", "110429.737500", "110431.227500", "110432.717500", "110434.207500", "110435.697500", "110437.187500", "110438.677500", "110440.167500", "110441.657500", "110443.147500", "110444.637500", "110446.127500", "110447.617500", "110449.107500", "110450.597500", "110452.087500", "110453.577500", "110455.067500", "110456.557500", "110458.047500", "110459.537500", "110501.027500", "110502.517500", "110504.007500", "110505.497500", "110506.987500", "110508.477500", "110509.967500", "110511.457500", "110512.947500", "110514.437500", "110515.927500", "110517.417500", "110518.907500", "110520.397500", "110521.887500", "110523.377500", "110524.867500", "110526.357500", "110527.847500", "110529.337500", "110530.827500", "110532.317500", "110533.807500", "110535.297500", "110536.787500", "110538.277500", "110539.767500", "110541.257500", "110542.747500", "110544.237500", "110545.727500", "110547.217500", "110548.707500", "110550.197500", "110551.687500", "110553.177500", "110554.667500", "110556.157500", "110557.647500", "110559.137500", "110600.627500", "110602.117500", "110603.607500", "110605.097500", "110606.587500", "110608.077500", "110609.567500", "110611.057500", "110612.547500", "110614.037500", "110615.527500", "110617.017500", "110618.507500", "110619.997500", "110621.487500", "110622.977500", "110624.467500", "110625.957500", "110627.447500", "110628.937500", "110630.427500", "110631.917500", "110633.407500", "110634.897500", "110636.387500", "110637.877500", "110639.367500", "110640.857500", "110642.347500", "110643.837500", "110645.327500", "110646.817500", "110648.307500", "110649.797500", "110651.287500", "110652.777500", "110654.267500", "110655.757500", "110657.247500", "110658.737500", "110700.227500", "110701.717500", "110703.207500", "110704.697500", "110706.187500", "110707.677500", "110709.167500", "110710.657500", "110712.147500", "110713.637500", "110715.127500", "110716.617500", "110718.107500", "110719.597500", "110721.087500", "110722.577500", "110724.067500", "110725.557500", "110727.047500", "110728.537500", "110730.027500", "110731.517500", "110733.007500", "110734.497500", "110735.987500", "110737.477500", "110738.967500", "110740.457500", "110741.947500", "110743.437500", "110744.927500", "110746.417500", "110747.907500", "110749.397500", "110750.887500", "110752.377500", "110753.867500", "110755.357500", "110756.847500", "110758.337500", "110759.827500", "110801.317500", "110802.807500", "110804.297500", "110805.787500", "110807.277500", "110808.767500", "110810.257500", "110811.747500", "110813.237500", "110814.727500", "110816.217500", "110817.707500", "110819.197500", "110820.687500", "110822.177500", "110823.667500", "110825.157500", "110826.647500", "110828.137500", "110829.627500", "110831.117500", "110832.607500", "110834.097500", "110835.587500", "110837.077500", "110838.567500", "110840.057500", "110841.547500", "110843.037500", "110844.527500", "110846.017500", "110847.507500", "110848.997500", "110850.487500", "110851.977500", "110853.467500", "110854.957500", "110856.447500", "110857.937500", "110859.427500", "110900.917500", "110902.407500", "110903.897500", "110905.387500", "110906.877500", "110908.367500", "110909.857500", "110911.347500", "110912.837500", "110914.327500", "110915.817500", "110917.307500", "110918.797500", "110920.287500", "110921.777500"],
      "ContentTime": ["105906.785000", "105906.792000", "105906.795000", "105906.798000", "105906.801000", "105906.804000", "105906.807000", "105906.809000", "105906.812000", "105906.815000", "105906.818000", "105906.821000", "105906.824000", "105906.829000", "105906.832000", "105906.835000", "105906.838000", "105906.841000", "105906.844000", "105906.847000", "105906.850000", "105906.853000", "105906.856000", "105906.859000", "105906.861000", "105906.864000", "105906.867000", "105946.753000", "105946.756000", "105946.759000", "105946.762000", "105946.765000", "105946.767000", "105946.771000", "105946.773000", "105946.788000", "105946.791000", "105946.794000", "105946.797000", "105946.800000", "105946.803000", "105946.806000", "105946.809000", "105946.811000", "105946.814000", "105946.817000", "105946.820000", "105946.823000", "105946.826000", "105946.829000", "105946.832000", "105946.835000", "105946.837000", "105946.840000", "105946.843000", "105946.846000", "105946.849000", "105946.852000", "105946.855000", "105946.859000", "105946.862000", "105946.865000", "105946.868000", "105946.871000", "105946.874000", "105946.877000", "105946.880000", "110006.753000", "110006.756000", "110006.759000", "110006.762000", "110006.764000", "110006.767000", "110006.770000", "110006.773000", "110006.776000", "110006.779000", "110006.782000", "110006.785000", "110006.788000", "110006.790000", "110006.793000", "110006.796000", "110006.799000", "110006.802000", "110006.805000", "110006.808000", "110026.753000", "110026.756000", "110026.759000", "110026.762000", "110026.765000", "110026.768000", "110026.771000", "110026.774000", "110026.777000", "110026.780000", "110026.783000", "110026.786000", "110026.789000", "110026.792000", "110026.795000", "110026.797000", "110026.800000", "110026.803000", "110026.806000", "110026.809000", "110106.753000", "110106.756000", "110106.759000", "110106.761000", "110106.765000", "110106.768000", "110106.802000", "110106.805000", "110106.808000", "110106.811000", "110106.814000", "110106.817000", "110106.820000", "110106.823000", "110106.825000", "110106.828000", "110106.831000", "110106.834000", "110106.837000", "110106.840000", "110106.843000", "110106.846000", "110106.849000", "110106.851000", "110106.854000", "110106.860000", "110106.863000", "110106.866000", "110106.869000", "110146.753000", "110146.756000", "110146.759000", "110146.762000", "110146.765000", "110146.768000", "110146.780000", "110146.783000", "110146.786000", "110146.789000", "110146.791000", "110146.794000", "110146.797000", "110146.800000", "110146.803000", "110146.806000", "110146.809000", "110146.812000", "110146.814000", "110146.817000", "110146.820000", "110146.832000", "110146.835000", "110146.838000", "110146.841000", "110146.844000", "110146.847000", "110226.753000", "110226.756000", "110226.759000", "110226.761000", "110226.765000", "110226.768000", "110226.782000", "110226.812000", "110226.815000", "110226.818000", "110226.821000", "110226.824000", "110226.827000", "110226.830000", "110226.832000", "110226.835000", "110226.838000", "110226.841000", "110226.844000", "110226.847000", "110226.850000", "110226.853000", "110226.856000", "110226.858000", "110226.861000", "110226.864000", "110226.867000", "110306.753000", "110306.756000", "110306.759000", "110306.763000", "110306.766000", "110306.769000", "110306.781000", "110306.784000", "110306.786000", "110306.789000", "110306.792000", "110306.795000", "110306.798000", "110306.801000", "110306.804000", "110306.807000", "110306.810000", "110306.813000", "110306.815000", "110306.818000", "110306.821000", "110306.825000", "110306.827000", "110306.830000", "110306.833000", "110306.842000", "110346.754000", "110346.757000", "110346.760000", "110346.763000", "110346.766000", "110346.769000", "110346.772000", "110346.774000", "110346.777000", "110346.780000", "110346.783000", "110346.786000", "110346.789000", "110346.792000", "110346.795000", "110346.798000", "110346.800000", "110346.803000", "110346.806000", "110346.809000", "110346.812000", "110346.815000", "110346.818000", "110346.821000", "110346.824000", "110346.827000", "110346.830000", "110426.753000", "110426.756000", "110426.759000", "110426.762000", "110426.765000", "110426.768000", "110426.771000", "110426.774000", "110426.777000", "110426.779000", "110426.782000", "110426.785000", "110426.788000", "110426.791000", "110426.794000", "110426.797000", "110426.800000", "110426.803000", "110426.806000", "110426.809000", "110426.812000", "110426.815000", "110426.817000", "110426.820000", "110426.823000", "110426.826000", "110426.829000", "110506.753000", "110506.756000", "110506.759000", "110506.762000", "110506.765000", "110506.768000", "110506.798000", "110506.801000", "110506.804000", "110506.807000", "110506.810000", "110506.813000", "110506.815000", "110506.818000", "110506.821000", "110506.824000", "110506.827000", "110506.830000", "110506.833000", "110506.836000", "110506.839000", "110506.842000", "110506.844000", "110506.847000", "110506.850000", "110506.853000", "110506.856000", "110546.753000", "110546.756000", "110546.759000", "110546.762000", "110546.765000", "110546.768000", "110546.771000", "110546.774000", "110546.777000", "110546.780000", "110546.783000", "110546.785000", "110546.788000", "110546.791000", "110546.794000", "110546.797000", "110546.800000", "110546.803000", "110546.806000", "110546.809000", "110546.811000", "110546.814000", "110546.817000", "110546.820000", "110546.823000", "110546.826000", "110546.829000", "110626.753000", "110626.756000", "110626.759000", "110626.762000", "110626.765000", "110626.768000", "110626.771000", "110626.774000", "110626.776000", "110626.779000", "110626.782000", "110626.785000", "110626.788000", "110626.791000", "110626.794000", "110626.797000", "110626.800000", "110626.803000", "110626.806000", "110626.808000", "110626.811000", "110626.814000", "110626.817000", "110626.820000", "110626.823000", "110626.826000", "110626.829000", "110706.753000", "110706.756000", "110706.759000", "110706.762000", "110706.765000", "110706.768000", "110706.772000", "110706.776000", "110706.779000", "110706.782000", "110706.785000", "110706.788000", "110706.792000", "110706.795000", "110706.798000", "110706.801000", "110706.804000", "110706.807000", "110706.810000", "110706.813000", "110706.816000", "110706.819000", "110706.822000", "110706.824000", "110706.827000", "110706.830000", "110746.753000", "110746.756000", "110746.759000", "110746.762000", "110746.765000", "110746.768000", "110746.772000", "110746.775000", "110746.777000", "110746.780000", "110746.783000", "110746.786000", "110746.789000", "110746.792000", "110746.795000", "110746.798000", "110746.801000", "110746.804000", "110746.807000", "110746.809000", "110746.812000", "110746.815000", "110746.818000", "110746.821000", "110746.824000", "110746.827000", "110746.830000", "110826.754000", "110826.757000", "110826.760000", "110826.763000", "110826.766000", "110826.769000", "110826.772000", "110826.775000", "110826.777000", "110826.781000", "110826.783000", "110826.786000", "110826.789000", "110826.792000", "110826.795000", "110826.798000", "110826.801000", "110826.804000", "110826.807000", "110826.809000", "110826.812000", "110826.815000", "110826.818000", "110826.821000", "110826.824000", "110826.827000", "110826.830000", "110906.753000", "110906.756000", "110906.759000", "110906.762000", "110906.765000", "110906.768000", "110906.771000", "110906.774000", "110906.777000", "110906.780000", "110906.782000", "110906.785000", "110906.788000", "110906.791000", "110906.794000", "110906.797000", "110906.800000", "110906.803000", "110906.806000", "110906.809000", "110906.812000", "110906.815000", "110906.817000", "110906.820000", "110906.823000", "110906.826000", "110906.829000", "110923.913000", "110923.917000", "110923.919000", "110923.922000", "110923.925000", "110923.928000", "110923.931000", "110923.934000", "110923.937000", "110923.940000", "110923.943000", "110923.946000"],
