{
  "AcquisitionMatrixPE": 104,
  "AcquisitionNumber": 1,
  "AcquisitionTime": "11:34:7.302500",
  "BandwidthPerPixelPhaseEncode": 17.17,
  "BaseResolution": 104,
  "BodyPartExamined": "BRAIN",
  "CoilString": "HC1-7;NC1_2",
  "ConsistencyInfo": "N4_VE11C_LATEST_20160120",
  "ConversionSoftware": "dcm2niix",
  "ConversionSoftwareVersion": "v1.0.20190902",
  "DerivedVendorReportedEchoSpacing": 0.000560011,
  "DeviceSerialNumber": "167006",
  "DwellTime": 2.1e-06,
  "EchoTime": 0.037,
  "EchoTrainLength": 104,
  "EffectiveEchoSpacing": 0.000560011,
  "FlipAngle": 52,
  "ImageComments": "Unaliased_MB4_PE3_LB",
  "ImageOrientationPatientDICOM": [0.998284, -0.0030395, -0.0584807, -0.0114999, 0.969031, -0.246671],
  "ImageType": [
    "ORIGINAL",
    "PRIMARY",
    "M",
    "MB",
    "ND",
    "MOSAIC"
],
  "ImagingFrequency": 123.259,
  "InPlanePhaseEncodingDirectionDICOM": "COL",
  "InstitutionAddress": "Chemin_Queen-Mary_4565_Montreal_District_CA_H3W_1W5",
  "InstitutionName": "IUGM",
  "InstitutionalDepartmentName": "Department",
  "MRAcquisitionType": "2D",
  "MagneticFieldStrength": 3,
  "Manufacturer": "Siemens",
  "ManufacturersModelName": "Prisma_fit",
  "Modality": "MR",
  "MultibandAccelerationFactor": 4,
  "PartialFourier": 1,
  "PatientPosition": "HFS",
  "PercentPhaseFOV": 100,
  "PhaseEncodingDirection": "j",
  "PhaseEncodingSteps": 104,
  "PhaseResolution": 1,
  "PixelBandwidth": 2290,
  "ProcedureStepDescription": "video_friends",
  "ProtocolName": "func_task-friends-s03e07b",
  "PulseSequenceDetails": "%CustomerSeq%_cmrr_mbep2d_bold",
  "ReceiveCoilActiveElements": "HC1-7;NC1,2",
  "ReceiveCoilName": "HeadNeck_64",
  "ReconMatrixPE": 104,
  "RepetitionTime": 1.49,
  "SAR": 0.0286777,
  "ScanOptions": "FS",
  "ScanningSequence": "EP",
  "SequenceName": "epfid2d1_104",
  "SequenceVariant": "SK_SS",
  "SeriesDescription": "func_task-friends-s03e07b",
  "SeriesNumber": 15,
  "ShimSetting": [603, -7245, -8843, 586, -35, -275, -10, 46],
  "SliceThickness": 2,
  "SliceTiming": [0, 0.785, 0.0975, 0.8825, 0.1975, 0.98, 0.295, 1.0775, 0.3925, 1.175, 0.49, 1.275, 0.5875, 1.3725, 0.685, 0, 0.785, 0.0975, 0.8825, 0.1975, 0.98, 0.295, 1.0775, 0.3925, 1.175, 0.49, 1.275, 0.5875, 1.3725, 0.685, 0, 0.785, 0.0975, 0.8825, 0.1975, 0.98, 0.295, 1.0775, 0.3925, 1.175, 0.49, 1.275, 0.5875, 1.3725, 0.685, 0, 0.785, 0.0975, 0.8825, 0.1975, 0.98, 0.295, 1.0775, 0.3925, 1.175, 0.49, 1.275, 0.5875, 1.3725, 0.685],
  "SoftwareVersions": "syngo_MR_E11",
  "SpacingBetweenSlices": 2,
  "StationName": "MRC35049",
  "TaskName": "s03e07b",
  "TotalReadoutTime": 0.0576811,
  "TxRefAmp": 216.589,
  "WipMemBlock": "3d894c19-d2fc-4c81-afb5-fb59df1ac33b||Sequence: R016 ve11c/master r/e634e98; Dec 19 2017 11:00:25 by eja",
  "dcmmeta_affine": [
    [-1.9965678453445435, -0.02299976348876953, -0.11483872681856155, 102.70580291748047],
    [0.006078999023884535, 1.9380618333816528, -0.4938412308692932, -81.41284942626953],
    [-0.11696139723062515, 0.4933428168296814, 1.9346660375595093, -54.29777145385742],
    [0.0, 0.0, 0.0, 1.0]
],
  "dcmmeta_reorient_transform": [
    [0.0, -1.0, 0.0, 103.0],
    [1.0, 0.0, 0.0, 0.0],
    [0.0, 0.0, 1.0, 0.0],
    [0.0, 0.0, 0.0, 1.0]
],
  "dcmmeta_shape": [104, 104, 60, 467],
  "dcmmeta_slice_dim": 2,
  "dcmmeta_version": 0.6,
  "global": {
    "const": {
      "AcquisitionMatrix": [104, 0, 0, 104],
      "AngioFlag": "N",
      "BitsAllocated": 16,
      "BitsStored": 16,
      "BodyPartExamined": "BRAIN",
      "Columns": 832,
      "EchoNumbers": 1,
      "EchoTime": 37.0,
      "EchoTrainLength": 104,
      "FlipAngle": 52.0,
      "HighBit": 15,
      "ImageOrientationPatient": [0.99828391229211, -0.0030394994259, -0.0584806968323, -0.0114998816527, 0.96903094330061, -0.2466714082497],
      "ImagePositionPatient": [-818.71559932151, -821.44929277224, 218.66727118535],
      "ImageType": [
        "ORIGINAL",
        "PRIMARY",
        "M",
        "MB",
        "ND",
        "MOSAIC"
],
      "ImagedNucleus": "1H",
      "ImagingFrequency": 123.259054,
      "InPlanePhaseEncodingDirection": "COL",
      "MRAcquisitionType": "2D",
      "MagneticFieldStrength": 3.0,
      "Manufacturer": "SIEMENS",
      "ManufacturerModelName": "Prisma_fit",
      "Modality": "MR",
      "NumberOfAverages": 1.0,
      "NumberOfPhaseEncodingSteps": 104,
      "PercentPhaseFieldOfView": 100.0,
      "PercentSampling": 100.0,
      "PerformedProcedureStepStartTime": "104542.074000",
      "PhotometricInterpretation": "MONOCHROME2",
      "PixelBandwidth": 2290.0,
      "PixelRepresentation": 0,
      "PixelSpacing": [2.0, 2.0],
      "ProtocolName": "func_task-friends-s03e07b",
      "RepetitionTime": 1490.0,
      "Rows": 832,
      "SAR": 0.02867772383603,
      "SamplesPerPixel": 1,
      "ScanOptions": "FS",
      "ScanningSequence": "EP",
      "SequenceName": "epfid2d1_104",
      "SequenceVariant": [
        "SK",
        "SS"
],
      "SeriesDescription": "func_task-friends-s03e07b",
      "SeriesNumber": 15,
      "SeriesTime": "113526.796000",
      "SliceLocation": -38.318818247323,
      "SliceThickness": 2.0,
      "SmallestImagePixelValue": 0,
      "SoftwareVersions": "syngo MR E11",
      "SpacingBetweenSlices": 1.9999999768545,
      "SpecificCharacterSet": "ISO_IR 100",
      "StudyID": "1",
      "StudyTime": "104541.904000",
      "TransmitCoilName": "Body",
      "VariableFlipAngleFlag": "N",
      "WindowCenterWidthExplanation": "Algo1",
      "dBdt": 0.0},
    "slices": {}
  },
  "time": {
    "samples": {
      "AcquisitionNumber": [1, 2, 3, 4, 5, 6, 7, 8, 9, 10, 11, 12, 13, 14, 15, 16, 17, 18, 19, 20, 21, 22, 23, 24, 25, 26, 27, 28, 29, 30, 31, 32, 33, 34, 35, 36, 37, 38, 39, 40, 41, 42, 43, 44, 45, 46, 47, 48, 49, 50, 51, 52, 53, 54, 55, 56, 57, 58, 59, 60, 61, 62, 63, 64, 65, 66, 67, 68, 69, 70, 71, 72, 73, 74, 75, 76, 77, 78, 79, 80, 81, 82, 83, 84, 85, 86, 87, 88, 89, 90, 91, 92, 93, 94, 95, 96, 97, 98, 99, 100, 101, 102, 103, 104, 105, 106, 107, 108, 109, 110, 111, 112, 113, 114, 115, 116, 117, 118, 119, 120, 121, 122, 123, 124, 125, 126, 127, 128, 129, 130, 131, 132, 133, 134, 135, 136, 137, 138, 139, 140, 141, 142, 143, 144, 145, 146, 147, 148, 149, 150, 151, 152, 153, 154, 155, 156, 157, 158, 159, 160, 161, 162, 163, 164, 165, 166, 167, 168, 169, 170, 171, 172, 173, 174, 175, 176, 177, 178, 179, 180, 181, 182, 183, 184, 185, 186, 187, 188, 189, 190, 191, 192, 193, 194, 195, 196, 197, 198, 199, 200, 201, 202, 203, 204, 205, 206, 207, 208, 209, 210, 211, 212, 213, 214, 215, 216, 217, 218, 219, 220, 221, 222, 223, 224, 225, 226, 227, 228, 229, 230, 231, 232, 233, 234, 235, 236, 237, 238, 239, 240, 241, 242, 243, 244, 245, 246, 247, 248, 249, 250, 251, 252, 253, 254, 255, 256, 257, 258, 259, 260, 261, 262, 263, 264, 265, 266, 267, 268, 269, 270, 271, 272, 273, 274, 275, 276, 277, 278, 279, 280, 281, 282, 283, 284, 285, 286, 287, 288, 289, 290, 291, 292, 293, 294, 295, 296, 297, 298, 299, 300, 301, 302, 303, 304, 305, 306, 307, 308, 309, 310, 311, 312, 313, 314, 315, 316, 317, 318, 319, 320, 321, 322, 323, 324, 325, 326, 327, 328, 329, 330, 331, 332, 333, 334, 335, 336, 337, 338, 339, 340, 341, 342, 343, 344, 345, 346, 347, 348, 349, 350, 351, 352, 353, 354, 355, 356, 357, 358, 359, 360, 361, 362, 363, 364, 365, 366, 367, 368, 369, 370, 371, 372, 373, 374, 375, 376, 377, 378, 379, 380, 381, 382, 383, 384, 385, 386, 387, 388, 389, 390, 391, 392, 393, 394, 395, 396, 397, 398, 399, 400, 401, 402, 403, 404, 405, 406, 407, 408, 409, 410, 411, 412, 413, 414, 415, 416, 417, 418, 419, 420, 421, 422, 423, 424, 425, 426, 427, 428, 429, 430, 431, 432, 433, 434, 435, 436, 437, 438, 439, 440, 441, 442, 443, 444, 445, 446, 447, 448, 449, 450, 451, 452, 453, 454, 455, 456, 457, 458, 459, 460, 461, 462, 463, 464, 465, 466, 467],
      "AcquisitionTime": ["113407.302500", "113408.792500", "113410.282500", "113411.772500", "113413.262500", "113414.752500", "113416.242500", "113417.732500", "113419.222500", "113420.712500", "113422.202500", "113423.692500", "113425.182500", "113426.672500", "113428.162500", "113429.652500", "113431.142500", "113432.632500", "113434.122500", "113435.612500", "113437.102500", "113438.592500", "113440.082500", "113441.572500", "113443.062500", "113444.552500", "113446.042500", "113447.532500", "113449.022500", "113450.512500", "113452.002500", "113453.492500", "113454.982500", "113456.472500", "113457.962500", "113459.452500", "113500.942500", "113502.432500", "113503.922500", "113505.412500", "113506.902500", "113508.392500", "113509.882500", "113511.372500", "113512.862500", "113514.352500", "113515.842500", "113517.332500", "113518.822500", "113520.312500", "113521.802500", "113523.292500", "113524.782500", "113526.272500", "113527.762500", "113529.252500", "113530.742500", "113532.232500", "113533.722500", "113535.212500", "113536.702500", "113538.192500", "113539.682500", "113541.172500", "113542.662500", "113544.152500", "113545.642500", "113547.132500", "113548.622500", "113550.112500", "113551.602500", "113553.092500", "113554.582500", "113556.072500", "113557.562500", "113559.052500", "113600.542500", "113602.032500", "113603.522500", "113605.012500", "113606.502500", "113607.992500", "113609.482500", "113610.972500", "113612.462500", "113613.952500", "113615.442500", "113616.932500", "113618.422500", "113619.912500", "113621.402500", "113622.892500", "113624.382500", "113625.872500", "113627.362500", "113628.852500", "113630.342500", "113631.832500", "113633.322500", "113634.812500", "113636.302500", "113637.792500", "113639.282500", "113640.772500", "113642.262500", "113643.752500", "113645.242500", "113646.732500", "113648.222500", "113649.712500", "113651.202500", "113652.692500", "113654.182500", "113655.672500", "113657.162500", "113658.652500", "113700.142500", "113701.632500", "113703.122500", "113704.612500", "113706.102500", "113707.592500", "113709.082500", "113710.572500", "113712.062500", "113713.552500", "113715.042500", "113716.532500", "113718.022500", "113719.512500", "113721.002500", "113722.492500", "113723.982500", "113725.472500", "113726.962500", "113728.452500", "113729.942500", "113731.432500", "113732.922500", "113734.412500", "113735.902500", "113737.392500", "113738.882500", "113740.372500", "113741.862500", "113743.352500", "113744.842500", "113746.332500", "113747.822500", "113749.312500", "113750.802500", "113752.292500", "113753.782500", "113755.272500", "113756.762500", "113758.252500", "113759.742500", "113801.232500", "113802.722500", "113804.212500", "113805.702500", "113807.192500", "113808.682500", "113810.172500", "113811.662500", "113813.152500", "113814.642500", "113816.132500", "113817.622500", "113819.112500", "113820.602500", "113822.092500", "113823.582500", "113825.072500", "113826.562500", "113828.052500", "113829.542500", "113831.032500", "113832.522500", "113834.012500", "113835.502500", "113836.992500", "113838.482500", "113839.972500", "113841.462500", "113842.952500", "113844.442500", "113845.932500", "113847.422500", "113848.912500", "113850.402500", "113851.892500", "113853.382500", "113854.872500", "113856.362500", "113857.852500", "113859.342500", "113900.832500", "113902.322500", "113903.812500", "113905.302500", "113906.792500", "113908.282500", "113909.772500", "113911.262500", "113912.752500", "113914.242500", "113915.732500", "113917.222500", "113918.712500", "113920.202500", "113921.692500", "113923.182500", "113924.672500", "113926.162500", "113927.652500", "113929.142500", "113930.632500", "113932.122500", "113933.612500", "113935.102500", "113936.592500", "113938.082500", "113939.572500", "113941.062500", "113942.552500", "113944.042500", "113945.532500", "113947.022500", "113948.512500", "113950.002500", "113951.492500", "113952.982500", "113954.472500", "113955.962500", "113957.452500", "113958.942500", "114000.432500", "114001.922500", "114003.412500", "114004.902500", "114006.392500", "114007.882500", "114009.372500", "114010.862500", "114012.352500", "114013.842500", "114015.332500", "114016.822500", "114018.312500", "114019.802500", "114021.292500", "114022.782500", "114024.272500", "114025.762500", "114027.252500", "114028.742500", "114030.232500", "114031.722500", "114033.212500", "114034.702500", "114036.192500", "114037.682500", "114039.172500", "114040.662500", "114042.152500", "114043.642500", "114045.132500", "114046.622500", "114048.112500", "114049.602500", "114051.092500", "114052.582500", "114054.072500", "114055.562500", "114057.052500", "114058.542500", "114100.032500", "114101.522500", "114103.012500", "114104.502500", "114105.992500", "114107.482500", "114108.972500", "114110.462500", "114111.952500", "114113.442500", "114114.932500", "114116.422500", "114117.912500", "114119.402500", "114120.892500", "114122.382500", "114123.872500", "114125.362500", "114126.852500", "114128.342500", "114129.832500", "114131.322500", "114132.812500", "114134.302500", "114135.792500", "114137.282500", "114138.772500", "114140.262500", "114141.752500", "114143.242500", "114144.732500", "114146.222500", "114147.712500", "114149.202500", "114150.692500", "114152.182500", "114153.672500", "114155.162500", "114156.652500", "114158.142500", "114159.632500", "114201.122500", "114202.612500", "114204.102500", "114205.592500", "114207.082500", "114208.572500", "114210.062500", "114211.552500", "114213.042500", "114214.532500", "114216.022500", "114217.512500", "114219.002500", "114220.492500", "114221.982500", "114223.472500", "114224.962500", "114226.452500", "114227.942500", "114229.432500", "114230.922500", "114232.412500", "114233.902500", "114235.392500", "114236.882500", "114238.372500", "114239.862500", "114241.352500", "114242.842500", "114244.332500", "114245.822500", "114247.312500", "114248.802500", "114250.292500", "114251.782500", "114253.272500", "114254.762500", "114256.252500", "114257.742500", "114259.232500", "114300.722500", "114302.212500", "114303.702500", "114305.192500", "114306.682500", "114308.172500", "114309.662500", "114311.152500", "114312.642500", "114314.132500", "114315.622500", "114317.112500", "114318.602500", "114320.092500", "114321.582500", "114323.072500", "114324.562500", "114326.052500", "114327.542500", "114329.032500", "114330.522500", "114332.012500", "114333.502500", "114334.992500", "114336.482500", "114337.972500", "114339.462500", "114340.952500", "114342.442500", "114343.932500", "114345.422500", "114346.912500", "114348.402500", "114349.892500", "114351.382500", "114352.872500", "114354.362500", "114355.852500", "114357.342500", "114358.832500", "114400.322500", "114401.812500", "114403.302500", "114404.792500", "114406.282500", "114407.772500", "114409.262500", "114410.752500", "114412.242500", "114413.732500", "114415.222500", "114416.712500", "114418.202500", "114419.692500", "114421.182500", "114422.672500", "114424.162500", "114425.652500", "114427.142500", "114428.632500", "114430.122500", "114431.612500", "114433.102500", "114434.592500", "114436.082500", "114437.572500", "114439.062500", "114440.552500", "114442.042500", "114443.532500", "114445.022500", "114446.512500", "114448.002500", "114449.492500", "114450.982500", "114452.472500", "114453.962500", "114455.452500", "114456.942500", "114458.432500", "114459.922500", "114501.412500", "114502.902500", "114504.392500", "114505.882500", "114507.372500", "114508.862500", "114510.352500", "114511.842500", "114513.332500", "114514.822500", "114516.312500", "114517.802500", "114519.292500", "114520.782500", "114522.272500", "114523.762500", "114525.252500", "114526.742500", "114528.232500", "114529.722500", "114531.212500", "114532.702500", "114534.192500", "114535.682500", "114537.172500", "114538.662500", "114540.152500", "114541.642500"],
      "ContentTime": ["113526.799000", "113526.802000", "113526.805000", "113526.808000", "113526.810000", "113526.813000", "113526.823000", "113526.826000", "113526.828000", "113526.831000", "113526.834000", "113526.843000", "113526.846000", "113526.849000", "113526.852000", "113526.855000", "113526.858000", "113526.861000", "113526.864000", "113526.867000", "113526.869000", "113526.872000", "113526.875000", "113526.878000", "113526.881000", "113526.884000", "113546.753000", "113546.756000", "113546.759000", "113546.762000", "113546.765000", "113546.768000", "113546.771000", "113546.774000", "113546.777000", "113546.779000", "113546.782000", "113546.785000", "113546.788000", "113546.800000", "113546.803000", "113546.806000", "113546.808000", "113546.811000", "113546.814000", "113546.817000", "113606.754000", "113606.757000", "113606.760000", "113606.763000", "113606.766000", "113606.769000", "113606.772000", "113606.775000", "113606.777000", "113606.780000", "113606.783000", "113606.786000", "113606.789000", "113606.792000", "113606.795000", "113606.801000", "113606.804000", "113606.807000", "113606.810000", "113606.813000", "113626.754000", "113626.757000", "113626.760000", "113626.763000", "113626.766000", "113626.769000", "113626.772000", "113626.774000", "113626.777000", "113626.780000", "113626.783000", "113626.786000", "113626.789000", "113626.792000", "113626.795000", "113626.798000", "113626.801000", "113626.803000", "113626.806000", "113626.809000", "113626.812000", "113706.753000", "113706.756000", "113706.759000", "113706.762000", "113706.765000", "113706.871000", "113706.874000", "113706.877000", "113706.880000", "113706.883000", "113706.886000", "113706.889000", "113706.891000", "113706.894000", "113706.897000", "113706.900000", "113706.903000", "113706.906000", "113706.909000", "113706.912000", "113706.915000", "113706.918000", "113706.921000", "113706.923000", "113706.926000", "113706.929000", "113706.932000", "113706.935000", "113706.938000", "113706.941000", "113706.944000", "113706.947000", "113706.949000", "113746.753000", "113746.756000", "113746.759000", "113746.762000", "113746.765000", "113746.768000", "113746.779000", "113746.783000", "113746.786000", "113746.789000", "113746.792000", "113746.795000", "113746.798000", "113746.801000", "113746.804000", "113746.807000", "113746.810000", "113746.813000", "113746.815000", "113746.818000", "113746.821000", "113746.824000", "113746.827000", "113746.830000", "113746.833000", "113746.836000", "113826.754000", "113826.757000", "113826.760000", "113826.763000", "113826.766000", "113826.769000", "113826.785000", "113826.788000", "113826.791000", "113826.794000", "113826.797000", "113826.800000", "113826.803000", "113826.806000", "113826.809000", "113826.811000", "113826.814000", "113826.817000", "113826.820000", "113826.823000", "113826.826000", "113826.829000", "113826.832000", "113826.835000", "113826.838000", "113826.841000", "113826.843000", "113906.753000", "113906.756000", "113906.759000", "113906.762000", "113906.765000", "113906.768000", "113906.771000", "113906.774000", "113906.776000", "113906.779000", "113906.782000", "113906.785000", "113906.788000", "113906.791000", "113906.794000", "113906.797000", "113906.800000", "113906.803000", "113906.806000", "113906.810000", "113906.812000", "113906.815000", "113906.831000", "113906.834000", "113906.837000", "113906.840000", "113906.842000", "113946.753000", "113946.756000", "113946.759000", "113946.771000", "113946.774000", "113946.777000", "113946.780000", "113946.783000", "113946.786000", "113946.789000", "113946.792000", "113946.795000", "113946.797000", "113946.800000", "113946.803000", "113946.806000", "113946.809000", "113946.812000", "113946.815000", "113946.818000", "113946.821000", "113946.824000", "113946.827000", "113946.829000", "113946.832000", "113946.835000", "113946.838000", "114026.753000", "114026.756000", "114026.759000", "114026.762000", "114026.765000", "114026.768000", "114026.771000", "114026.774000", "114026.777000", "114026.780000", "114026.783000", "114026.785000", "114026.788000", "114026.791000", "114026.794000", "114026.797000", "114026.800000", "114026.803000", "114026.809000", "114026.812000", "114026.815000", "114026.818000", "114026.821000", "114026.824000", "114026.827000", "114026.830000", "114026.833000", "114106.753000", "114106.756000", "114106.759000", "114106.762000", "114106.765000", "114106.768000", "114106.771000", "114106.774000", "114106.777000", "114106.780000", "114106.782000", "114106.785000", "114106.788000", "114106.791000", "114106.794000", "114106.797000", "114106.800000", "114106.803000", "114106.806000", "114106.808000", "114106.811000", "114106.814000", "114106.817000", "114106.820000", "114106.823000", "114106.826000", "114106.829000", "114146.753000", "114146.756000", "114146.759000", "114146.762000", "114146.765000", "114146.768000", "114146.771000", "114146.774000", "114146.777000", "114146.780000", "114146.783000", "114146.786000", "114146.789000", "114146.792000", "114146.795000", "114146.799000", "114146.802000", "114146.805000", "114146.808000", "114146.811000", "114146.814000", "114146.817000", "114146.820000", "114146.823000", "114146.826000", "114146.829000", "114226.753000", "114226.756000", "114226.759000", "114226.762000", "114226.765000", "114226.768000", "114226.771000", "114226.774000", "114226.777000", "114226.780000", "114226.783000", "114226.785000", "114226.788000", "114226.791000", "114226.794000", "114226.797000", "114226.800000", "114226.809000", "114226.812000", "114226.815000", "114226.818000", "114226.821000", "114226.824000", "114226.826000", "114226.829000", "114226.832000", "114226.835000", "114306.754000", "114306.757000", "114306.760000", "114306.763000", "114306.766000", "114306.769000", "114306.772000", "114306.775000", "114306.778000", "114306.781000", "114306.783000", "114306.786000", "114306.789000", "114306.792000", "114306.795000", "114306.798000", "114306.801000", "114306.804000", "114306.807000", "114306.810000", "114306.813000", "114306.816000", "114306.818000", "114306.821000", "114306.824000", "114306.827000", "114306.830000", "114346.753000", "114346.756000", "114346.759000", "114346.762000", "114346.765000", "114346.768000", "114346.916000", "114346.919000", "114346.922000", "114346.924000", "114346.927000", "114346.930000", "114346.933000", "114346.936000", "114346.939000", "114346.942000", "114346.945000", "114346.961000", "114346.964000", "114346.977000", "114346.979000", "114346.982000", "114346.985000", "114346.988000", "114346.991000", "114346.994000", "114346.997000", "114426.753000", "114426.756000", "114426.759000", "114426.762000", "114426.765000", "114426.768000", "114426.772000", "114426.774000", "114426.777000", "114426.780000", "114426.783000", "114426.786000", "114426.789000", "114426.792000", "114426.795000", "114426.798000", "114426.801000", "114426.804000", "114426.807000", "114426.809000", "114426.812000", "114426.815000", "114426.818000", "114426.821000", "114426.824000", "114426.827000", "114426.830000", "114506.753000", "114506.756000", "114506.759000", "114506.762000", "114506.765000", "114506.768000", "114506.771000", "114506.774000", "114506.777000", "114506.780000", "114506.783000", "114506.785000", "114506.788000", "114506.791000", "114506.794000", "114506.797000", "114506.800000", "114506.803000", "114506.806000", "114506.809000", "114506.812000", "114506.815000", "114506.817000", "114506.820000", "114506.823000", "114506.826000", "114506.829000", "114543.754000", "114543.757000", "114543.760000", "114543.763000", "114543.766000", "114543.769000", "114543.772000", "114543.775000", "114543.778000", "114543.782000", "114543.785000", "114543.788000", "114543.791000", "114543.794000", "114543.797000", "114543.800000", "114543.803000", "114543.806000", "114543.809000", "114543.811000", "114543.815000", "114543.817000", "114543.820000", "114543.823000", "114543.826000"],
