{
  "AcquisitionMatrixPE": 104,
  "AcquisitionNumber": 1,
  "AcquisitionTime": "09:41:15.157500",
  "BandwidthPerPixelPhaseEncode": 17.17,
  "BaseResolution": 104,
  "BodyPartExamined": "BRAIN",
  "CoilString": "HC1-7;NC1_2",
  "ConsistencyInfo": "N4_VE11C_LATEST_20160120",
  "ConversionSoftware": "dcm2niix",
  "ConversionSoftwareVersion": "v1.0.20190902",
  "DerivedVendorReportedEchoSpacing": 0.000560011,
  "DeviceSerialNumber": "167006",
  "DwellTime": 2.1e-06,
  "EchoTime": 0.037,
  "EchoTrainLength": 104,
  "EffectiveEchoSpacing": 0.000560011,
  "FlipAngle": 52,
  "ImageComments": "Unaliased_MB4_PE3_LB",
  "ImageOrientationPatientDICOM": [0.999039, 0.0384601, 0.0210051, -0.0282547, 0.931709, -0.362105],
  "ImageType": [
    "ORIGINAL",
    "PRIMARY",
    "M",
    "MB",
    "ND",
    "MOSAIC"
],
  "ImagingFrequency": 123.259,
  "InPlanePhaseEncodingDirectionDICOM": "COL",
  "InstitutionAddress": "Chemin_Queen-Mary_4565_Montreal_District_CA_H3W_1W5",
  "InstitutionName": "IUGM",
  "InstitutionalDepartmentName": "Department",
  "MRAcquisitionType": "2D",
  "MagneticFieldStrength": 3,
  "Manufacturer": "Siemens",
  "ManufacturersModelName": "Prisma_fit",
  "Modality": "MR",
  "MultibandAccelerationFactor": 4,
  "PartialFourier": 1,
  "PatientPosition": "HFS",
  "PercentPhaseFOV": 100,
  "PhaseEncodingDirection": "j",
  "PhaseEncodingSteps": 104,
  "PhaseResolution": 1,
  "PixelBandwidth": 2290,
  "ProcedureStepDescription": "video_friends",
  "ProtocolName": "func_task-friends-s03e23b",
  "PulseSequenceDetails": "%CustomerSeq%_cmrr_mbep2d_bold",
  "ReceiveCoilActiveElements": "HC1-7;NC1,2",
  "ReceiveCoilName": "HeadNeck_64",
  "ReconMatrixPE": 104,
  "RepetitionTime": 1.49,
  "SAR": 0.0375943,
  "ScanOptions": "FS",
  "ScanningSequence": "EP",
  "SequenceName": "epfid2d1_104",
  "SequenceVariant": "SK_SS",
  "SeriesDescription": "func_task-friends-s03e23b",
  "SeriesNumber": 11,
  "ShimSetting": [629, -7182, -8855, 637, 63, 39, 41, -12],
  "SliceThickness": 2,
  "SliceTiming": [0, 0.7825, 0.0975, 0.8825, 0.195, 0.98, 0.2925, 1.0775, 0.3925, 1.175, 0.49, 1.2725, 0.5875, 1.3725, 0.685, 0, 0.7825, 0.0975, 0.8825, 0.195, 0.98, 0.2925, 1.0775, 0.3925, 1.175, 0.49, 1.2725, 0.5875, 1.3725, 0.685, 0, 0.7825, 0.0975, 0.8825, 0.195, 0.98, 0.2925, 1.0775, 0.3925, 1.175, 0.49, 1.2725, 0.5875, 1.3725, 0.685, 0, 0.7825, 0.0975, 0.8825, 0.195, 0.98, 0.2925, 1.0775, 0.3925, 1.175, 0.49, 1.2725, 0.5875, 1.3725, 0.685],
  "SoftwareVersions": "syngo_MR_E11",
  "SpacingBetweenSlices": 2,
  "StationName": "MRC35049",
  "TaskName": "s03e23b",
  "TotalReadoutTime": 0.0576811,
  "TxRefAmp": 244.358,
  "WipMemBlock": "21ae6dd3-bc87-4fa5-8ba1-53364a68d642||Sequence: R016 ve11c/master r/e634e98; Dec 19 2017 11:00:25 by eja",
  "dcmmeta_affine": [
    [-1.99807870388031, -0.05650947988033295, 0.06699442118406296, 104.7520523071289],
    [-0.07692024111747742, 1.8634178638458252, -0.722327470779419, -64.12623596191406],
    [0.04201012849807739, 0.7242102026939392, 1.863801121711731, -69.46588134765625],
    [0.0, 0.0, 0.0, 1.0]
],
  "dcmmeta_reorient_transform": [
    [0.0, -1.0, 0.0, 103.0],
    [1.0, 0.0, 0.0, 0.0],
    [0.0, 0.0, 1.0, 0.0],
    [0.0, 0.0, 0.0, 1.0]
],
  "dcmmeta_shape": [104, 104, 60, 470],
  "dcmmeta_slice_dim": 2,
  "dcmmeta_version": 0.6,
  "global": {
    "const": {
      "AcquisitionMatrix": [104, 0, 0, 104],
      "AngioFlag": "N",
      "BitsAllocated": 16,
      "BitsStored": 16,
      "BodyPartExamined": "BRAIN",
      "Columns": 832,
      "EchoNumbers": 1,
      "EchoTime": 37.0,
      "EchoTrainLength": 104,
      "FlipAngle": 52.0,
      "HighBit": 15,
      "ImageOrientationPatient": [0.99903934176732, 0.03846012048722, 0.02100506446625, -0.028254740759, 0.93170895069317, -0.3621050963779],
      "ImagePositionPatient": [-805.66276517933, -834.08889132792, 253.44858882469],
      "ImageType": [
        "ORIGINAL",
        "PRIMARY",
        "M",
        "MB",
        "ND",
        "MOSAIC"
],
      "ImagedNucleus": "1H",
      "ImagingFrequency": 123.259032,
      "InPlanePhaseEncodingDirection": "COL",
      "MRAcquisitionType": "2D",
      "MagneticFieldStrength": 3.0,
      "Manufacturer": "SIEMENS",
      "ManufacturerModelName": "Prisma_fit",
      "Modality": "MR",
      "NumberOfAverages": 1.0,
      "NumberOfPhaseEncodingSteps": 104,
      "PercentPhaseFieldOfView": 100.0,
      "PercentSampling": 100.0,
      "PerformedProcedureStepStartTime": "091101.581000",
      "PhotometricInterpretation": "MONOCHROME2",
      "PixelBandwidth": 2290.0,
      "PixelRepresentation": 0,
      "PixelSpacing": [2.0, 2.0],
      "ProtocolName": "func_task-friends-s03e23b",
      "RepetitionTime": 1490.0,
      "Rows": 832,
      "SAR": 0.03759425557184,
      "SamplesPerPixel": 1,
      "ScanOptions": "FS",
      "ScanningSequence": "EP",
      "SequenceName": "epfid2d1_104",
      "SequenceVariant": [
        "SK",
        "SS"
],
      "SeriesDescription": "func_task-friends-s03e23b",
      "SeriesNumber": 11,
      "SeriesTime": "094246.491000",
      "SliceLocation": -38.066324305515,
      "SliceThickness": 2.0,
      "SmallestImagePixelValue": 0,
      "SoftwareVersions": "syngo MR E11",
      "SpacingBetweenSlices": 1.9999999879822,
      "SpecificCharacterSet": "ISO_IR 100",
      "StudyID": "1",
      "StudyTime": "091101.425000",
      "TransmitCoilName": "Body",
      "VariableFlipAngleFlag": "N",
      "WindowCenterWidthExplanation": "Algo1",
      "dBdt": 0.0},
    "slices": {}
  },
  "time": {
    "samples": {
      "AcquisitionNumber": [1, 2, 3, 4, 5, 6, 7, 8, 9, 10, 11, 12, 13, 14, 15, 16, 17, 18, 19, 20, 21, 22, 23, 24, 25, 26, 27, 28, 29, 30, 31, 32, 33, 34, 35, 36, 37, 38, 39, 40, 41, 42, 43, 44, 45, 46, 47, 48, 49, 50, 51, 52, 53, 54, 55, 56, 57, 58, 59, 60, 61, 62, 63, 64, 65, 66, 67, 68, 69, 70, 71, 72, 73, 74, 75, 76, 77, 78, 79, 80, 81, 82, 83, 84, 85, 86, 87, 88, 89, 90, 91, 92, 93, 94, 95, 96, 97, 98, 99, 100, 101, 102, 103, 104, 105, 106, 107, 108, 109, 110, 111, 112, 113, 114, 115, 116, 117, 118, 119, 120, 121, 122, 123, 124, 125, 126, 127, 128, 129, 130, 131, 132, 133, 134, 135, 136, 137, 138, 139, 140, 141, 142, 143, 144, 145, 146, 147, 148, 149, 150, 151, 152, 153, 154, 155, 156, 157, 158, 159, 160, 161, 162, 163, 164, 165, 166, 167, 168, 169, 170, 171, 172, 173, 174, 175, 176, 177, 178, 179, 180, 181, 182, 183, 184, 185, 186, 187, 188, 189, 190, 191, 192, 193, 194, 195, 196, 197, 198, 199, 200, 201, 202, 203, 204, 205, 206, 207, 208, 209, 210, 211, 212, 213, 214, 215, 216, 217, 218, 219, 220, 221, 222, 223, 224, 225, 226, 227, 228, 229, 230, 231, 232, 233, 234, 235, 236, 237, 238, 239, 240, 241, 242, 243, 244, 245, 246, 247, 248, 249, 250, 251, 252, 253, 254, 255, 256, 257, 258, 259, 260, 261, 262, 263, 264, 265, 266, 267, 268, 269, 270, 271, 272, 273, 274, 275, 276, 277, 278, 279, 280, 281, 282, 283, 284, 285, 286, 287, 288, 289, 290, 291, 292, 293, 294, 295, 296, 297, 298, 299, 300, 301, 302, 303, 304, 305, 306, 307, 308, 309, 310, 311, 312, 313, 314, 315, 316, 317, 318, 319, 320, 321, 322, 323, 324, 325, 326, 327, 328, 329, 330, 331, 332, 333, 334, 335, 336, 337, 338, 339, 340, 341, 342, 343, 344, 345, 346, 347, 348, 349, 350, 351, 352, 353, 354, 355, 356, 357, 358, 359, 360, 361, 362, 363, 364, 365, 366, 367, 368, 369, 370, 371, 372, 373, 374, 375, 376, 377, 378, 379, 380, 381, 382, 383, 384, 385, 386, 387, 388, 389, 390, 391, 392, 393, 394, 395, 396, 397, 398, 399, 400, 401, 402, 403, 404, 405, 406, 407, 408, 409, 410, 411, 412, 413, 414, 415, 416, 417, 418, 419, 420, 421, 422, 423, 424, 425, 426, 427, 428, 429, 430, 431, 432, 433, 434, 435, 436, 437, 438, 439, 440, 441, 442, 443, 444, 445, 446, 447, 448, 449, 450, 451, 452, 453, 454, 455, 456, 457, 458, 459, 460, 461, 462, 463, 464, 465, 466, 467, 468, 469, 470],
      "AcquisitionTime": ["094115.157500", "094116.647500", "094118.137500", "094119.627500", "094121.117500", "094122.607500", "094124.097500", "094125.587500", "094127.077500", "094128.567500", "094130.057500", "094131.547500", "094133.037500", "094134.527500", "094136.017500", "094137.507500", "094138.997500", "094140.487500", "094141.977500", "094143.467500", "094144.957500", "094146.447500", "094147.937500", "094149.427500", "094150.917500", "094152.407500", "094153.897500", "094155.387500", "094156.877500", "094158.367500", "094159.857500", "094201.347500", "094202.837500", "094204.327500", "094205.817500", "094207.307500", "094208.797500", "094210.287500", "094211.777500", "094213.267500", "094214.757500", "094216.247500", "094217.737500", "094219.227500", "094220.717500", "094222.207500", "094223.697500", "094225.187500", "094226.677500", "094228.167500", "094229.657500", "094231.147500", "094232.637500", "094234.127500", "094235.617500", "094237.107500", "094238.597500", "094240.087500", "094241.577500", "094243.067500", "094244.557500", "094246.047500", "094247.537500", "094249.027500", "094250.517500", "094252.007500", "094253.497500", "094254.987500", "094256.477500", "094257.967500", "094259.457500", "094300.947500", "094302.437500", "094303.927500", "094305.417500", "094306.907500", "094308.397500", "094309.887500", "094311.377500", "094312.867500", "094314.357500", "094315.847500", "094317.337500", "094318.827500", "094320.317500", "094321.807500", "094323.297500", "094324.787500", "094326.277500", "094327.767500", "094329.257500", "094330.747500", "094332.237500", "094333.727500", "094335.217500", "094336.707500", "094338.197500", "094339.687500", "094341.177500", "094342.667500", "094344.157500", "094345.647500", "094347.137500", "094348.627500", "094350.117500", "094351.607500", "094353.097500", "094354.587500", "094356.077500", "094357.567500", "094359.057500", "094400.547500", "094402.037500", "094403.527500", "094405.017500", "094406.507500", "094407.997500", "094409.487500", "094410.977500", "094412.467500", "094413.957500", "094415.447500", "094416.937500", "094418.427500", "094419.917500", "094421.407500", "094422.897500", "094424.387500", "094425.877500", "094427.367500", "094428.857500", "094430.347500", "094431.837500", "094433.327500", "094434.817500", "094436.307500", "094437.797500", "094439.287500", "094440.777500", "094442.267500", "094443.757500", "094445.247500", "094446.737500", "094448.227500", "094449.717500", "094451.207500", "094452.697500", "094454.187500", "094455.677500", "094457.167500", "094458.657500", "094500.147500", "094501.637500", "094503.127500", "094504.617500", "094506.107500", "094507.597500", "094509.087500", "094510.577500", "094512.067500", "094513.557500", "094515.047500", "094516.537500", "094518.027500", "094519.517500", "094521.007500", "094522.497500", "094523.987500", "094525.477500", "094526.967500", "094528.457500", "094529.947500", "094531.437500", "094532.927500", "094534.417500", "094535.907500", "094537.397500", "094538.887500", "094540.377500", "094541.867500", "094543.357500", "094544.847500", "094546.337500", "094547.827500", "094549.317500", "094550.807500", "094552.297500", "094553.787500", "094555.277500", "094556.767500", "094558.257500", "094559.747500", "094601.237500", "094602.727500", "094604.217500", "094605.707500", "094607.197500", "094608.687500", "094610.177500", "094611.667500", "094613.157500", "094614.647500", "094616.137500", "094617.627500", "094619.117500", "094620.607500", "094622.097500", "094623.587500", "094625.077500", "094626.567500", "094628.057500", "094629.547500", "094631.037500", "094632.527500", "094634.017500", "094635.507500", "094636.997500", "094638.487500", "094639.977500", "094641.467500", "094642.957500", "094644.447500", "094645.937500", "094647.427500", "094648.917500", "094650.407500", "094651.897500", "094653.387500", "094654.877500", "094656.367500", "094657.857500", "094659.347500", "094700.837500", "094702.327500", "094703.817500", "094705.307500", "094706.797500", "094708.287500", "094709.777500", "094711.267500", "094712.757500", "094714.247500", "094715.737500", "094717.227500", "094718.717500", "094720.207500", "094721.697500", "094723.187500", "094724.677500", "094726.167500", "094727.657500", "094729.147500", "094730.637500", "094732.127500", "094733.617500", "094735.107500", "094736.597500", "094738.087500", "094739.577500", "094741.067500", "094742.557500", "094744.047500", "094745.537500", "094747.027500", "094748.517500", "094750.007500", "094751.497500", "094752.987500", "094754.477500", "094755.967500", "094757.457500", "094758.947500", "094800.437500", "094801.927500", "094803.417500", "094804.907500", "094806.397500", "094807.887500", "094809.377500", "094810.867500", "094812.357500", "094813.847500", "094815.337500", "094816.827500", "094818.317500", "094819.807500", "094821.297500", "094822.787500", "094824.277500", "094825.767500", "094827.257500", "094828.747500", "094830.237500", "094831.727500", "094833.217500", "094834.707500", "094836.197500", "094837.687500", "094839.177500", "094840.667500", "094842.157500", "094843.647500", "094845.137500", "094846.627500", "094848.117500", "094849.607500", "094851.097500", "094852.587500", "094854.077500", "094855.567500", "094857.057500", "094858.547500", "094900.037500", "094901.527500", "094903.017500", "094904.507500", "094905.997500", "094907.487500", "094908.977500", "094910.467500", "094911.957500", "094913.447500", "094914.937500", "094916.427500", "094917.917500", "094919.407500", "094920.897500", "094922.387500", "094923.877500", "094925.367500", "094926.857500", "094928.347500", "094929.837500", "094931.327500", "094932.817500", "094934.307500", "094935.797500", "094937.287500", "094938.777500", "094940.267500", "094941.757500", "094943.247500", "094944.737500", "094946.227500", "094947.717500", "094949.207500", "094950.697500", "094952.187500", "094953.677500", "094955.167500", "094956.657500", "094958.147500", "094959.637500", "095001.127500", "095002.617500", "095004.107500", "095005.597500", "095007.087500", "095008.577500", "095010.067500", "095011.557500", "095013.047500", "095014.537500", "095016.027500", "095017.517500", "095019.007500", "095020.497500", "095021.987500", "095023.477500", "095024.967500", "095026.457500", "095027.947500", "095029.437500", "095030.927500", "095032.417500", "095033.907500", "095035.397500", "095036.887500", "095038.377500", "095039.867500", "095041.357500", "095042.847500", "095044.337500", "095045.827500", "095047.317500", "095048.807500", "095050.297500", "095051.787500", "095053.277500", "095054.767500", "095056.257500", "095057.747500", "095059.237500", "095100.727500", "095102.217500", "095103.707500", "095105.197500", "095106.687500", "095108.177500", "095109.667500", "095111.157500", "095112.647500", "095114.137500", "095115.627500", "095117.117500", "095118.607500", "095120.097500", "095121.587500", "095123.077500", "095124.567500", "095126.057500", "095127.547500", "095129.037500", "095130.527500", "095132.017500", "095133.507500", "095134.997500", "095136.487500", "095137.977500", "095139.467500", "095140.957500", "095142.447500", "095143.937500", "095145.427500", "095146.917500", "095148.407500", "095149.897500", "095151.387500", "095152.877500", "095154.367500", "095155.857500", "095157.347500", "095158.837500", "095200.327500", "095201.817500", "095203.307500", "095204.797500", "095206.287500", "095207.777500", "095209.267500", "095210.757500", "095212.247500", "095213.737500", "095215.227500", "095216.717500", "095218.207500", "095219.697500", "095221.187500", "095222.677500", "095224.167500", "095225.657500", "095227.147500", "095228.637500", "095230.127500", "095231.617500", "095233.107500", "095234.597500", "095236.087500", "095237.577500", "095239.067500", "095240.557500", "095242.047500", "095243.537500", "095245.027500", "095246.517500", "095248.007500", "095249.497500", "095250.987500", "095252.477500", "095253.967500"],
      "ContentTime": ["094246.493000", "094246.497000", "094246.500000", "094246.502000", "094246.505000", "094246.508000", "094246.511000", "094246.514000", "094246.517000", "094246.520000", "094246.523000", "094246.539000", "094246.542000", "094246.545000", "094246.547000", "094246.550000", "094246.553000", "094246.556000", "094246.559000", "094246.562000", "094246.565000", "094246.568000", "094246.570000", "094246.573000", "094246.576000", "094246.579000", "094246.582000", "094246.585000", "094246.588000", "094246.591000", "094246.593000", "094246.596000", "094246.599000", "094246.602000", "094246.605000", "094246.608000", "094246.611000", "094246.614000", "094246.616000", "094306.459000", "094306.462000", "094306.465000", "094306.467000", "094306.470000", "094306.473000", "094306.476000", "094306.479000", "094306.482000", "094306.485000", "094306.488000", "094306.490000", "094306.493000", "094306.496000", "094306.499000", "094306.502000", "094306.505000", "094306.508000", "094306.511000", "094306.513000", "094326.459000", "094326.462000", "094326.465000", "094326.467000", "094326.470000", "094326.473000", "094326.476000", "094326.479000", "094326.482000", "094326.485000", "094326.488000", "094326.490000", "094326.493000", "094326.496000", "094326.499000", "094326.502000", "094326.505000", "094326.508000", "094326.511000", "094326.513000", "094346.459000", "094346.462000", "094346.467000", "094346.470000", "094346.473000", "094346.476000", "094346.479000", "094346.482000", "094346.484000", "094346.487000", "094346.490000", "094346.493000", "094346.496000", "094346.499000", "094346.502000", "094346.504000", "094346.507000", "094346.510000", "094346.513000", "094346.516000", "094346.519000", "094426.459000", "094426.462000", "094426.465000", "094426.468000", "094426.471000", "094426.473000", "094426.476000", "094426.479000", "094426.482000", "094426.485000", "094426.488000", "094426.491000", "094426.493000", "094426.496000", "094426.499000", "094426.502000", "094426.505000", "094426.508000", "094426.511000", "094426.514000", "094426.517000", "094426.519000", "094426.522000", "094426.525000", "094426.528000", "094426.531000", "094426.534000", "094506.459000", "094506.462000", "094506.465000", "094506.468000", "094506.471000", "094506.473000", "094506.476000", "094506.479000", "094506.482000", "094506.485000", "094506.488000", "094506.491000", "094506.494000", "094506.496000", "094506.499000", "094506.502000", "094506.505000", "094506.508000", "094506.511000", "094506.514000", "094506.517000", "094506.519000", "094506.522000", "094506.525000", "094506.528000", "094506.531000", "094506.534000", "094526.459000", "094526.462000", "094526.465000", "094526.468000", "094526.471000", "094526.473000", "094526.476000", "094526.479000", "094526.482000", "094526.485000", "094526.488000", "094526.491000", "094526.493000", "094526.496000", "094606.459000", "094606.462000", "094606.465000", "094606.468000", "094606.471000", "094606.474000", "094606.477000", "094606.479000", "094606.482000", "094606.485000", "094606.488000", "094606.491000", "094606.494000", "094606.497000", "094606.500000", "094606.503000", "094606.505000", "094606.508000", "094606.511000", "094606.514000", "094606.517000", "094606.520000", "094606.523000", "094606.525000", "094606.528000", "094606.531000", "094646.459000", "094646.462000", "094646.465000", "094646.468000", "094646.471000", "094646.474000", "094646.477000", "094646.479000", "094646.482000", "094646.485000", "094646.488000", "094646.491000", "094646.494000", "094646.497000", "094646.518000", "094646.521000", "094646.524000", "094646.527000", "094646.530000", "094646.532000", "094646.535000", "094646.538000", "094646.541000", "094646.544000", "094646.547000", "094646.550000", "094646.553000", "094726.459000", "094726.462000", "094726.465000", "094726.468000", "094726.471000", "094726.474000", "094726.476000", "094726.479000", "094726.482000", "094726.485000", "094726.488000", "094726.491000", "094726.494000", "094726.497000", "094726.507000", "094726.510000", "094726.513000", "094726.516000", "094726.518000", "094726.521000", "094726.524000", "094726.527000", "094726.530000", "094726.533000", "094726.536000", "094726.539000", "094726.542000", "094806.459000", "094806.462000", "094806.465000", "094806.468000", "094806.471000", "094806.473000", "094806.476000", "094806.479000", "094806.482000", "094806.485000", "094806.488000", "094806.491000", "094806.494000", "094806.497000", "094806.500000", "094806.503000", "094806.505000", "094806.508000", "094806.511000", "094806.514000", "094806.517000", "094806.520000", "094806.522000", "094806.526000", "094806.528000", "094806.531000", "094806.534000", "094846.460000", "094846.463000", "094846.466000", "094846.469000", "094846.472000", "094846.475000", "094846.478000", "094846.480000", "094846.483000", "094846.486000", "094846.489000", "094846.492000", "094846.495000", "094846.498000", "094846.501000", "094846.504000", "094846.507000", "094846.510000", "094846.513000", "094846.515000", "094846.518000", "094846.521000", "094846.524000", "094846.527000", "094846.530000", "094846.533000", "094846.536000", "094926.459000", "094926.462000", "094926.465000", "094926.468000", "094926.471000", "094926.474000", "094926.477000", "094926.479000", "094926.482000", "094926.485000", "094926.488000", "094926.491000", "094926.494000", "094926.497000", "094926.500000", "094926.502000", "094926.505000", "094926.508000", "094926.511000", "094926.514000", "094926.517000", "094926.520000", "094926.523000", "094926.525000", "094926.528000", "094926.531000", "094926.534000", "095006.459000", "095006.462000", "095006.465000", "095006.468000", "095006.471000", "095006.474000", "095006.477000", "095006.480000", "095006.483000", "095006.486000", "095006.489000", "095006.491000", "095006.494000", "095006.497000", "095006.500000", "095006.503000", "095006.506000", "095006.509000", "095006.512000", "095006.514000", "095006.518000", "095006.520000", "095006.523000", "095006.526000", "095006.529000", "095006.532000", "095046.459000", "095046.462000", "095046.465000", "095046.468000", "095046.471000", "095046.474000", "095046.477000", "095046.480000", "095046.482000", "095046.485000", "095046.488000", "095046.491000", "095046.494000", "095046.497000", "095046.500000", "095046.503000", "095046.506000", "095046.509000", "095046.512000", "095046.515000", "095046.517000", "095046.520000", "095046.523000", "095046.526000", "095046.529000", "095046.532000", "095046.535000", "095126.459000", "095126.462000", "095126.465000", "095126.468000", "095126.471000", "095126.474000", "095126.477000", "095126.479000", "095126.482000", "095126.485000", "095126.502000", "095126.505000", "095126.508000", "095126.511000", "095126.514000", "095126.517000", "095126.520000", "095126.523000", "095126.526000", "095126.528000", "095126.531000", "095126.534000", "095126.537000", "095126.540000", "095126.543000", "095126.546000", "095126.549000", "095206.459000", "095206.462000", "095206.465000", "095206.467000", "095206.470000", "095206.473000", "095206.476000", "095206.479000", "095206.482000", "095206.485000", "095206.488000", "095206.491000", "095206.494000", "095206.497000", "095206.499000", "095206.502000", "095206.505000", "095206.508000", "095206.511000", "095206.514000", "095206.517000", "095206.520000", "095206.536000", "095206.539000", "095206.542000", "095206.545000", "095206.547000", "095246.459000", "095246.462000", "095246.465000", "095246.468000", "095246.470000", "095246.473000", "095246.476000", "095246.479000", "095246.482000", "095246.485000", "095246.488000", "095246.491000", "095246.494000", "095246.497000", "095246.500000", "095246.503000", "095246.505000", "095246.508000", "095246.511000", "095246.514000", "095246.517000", "095246.520000", "095246.523000", "095246.526000", "095246.529000", "095246.532000", "095246.534000", "095256.372000", "095256.376000", "095256.384000", "095256.387000", "095256.390000", "095256.393000", "095256.396000"],
