{
  "AcquisitionMatrixPE": 104,
  "AcquisitionNumber": 1,
  "AcquisitionTime": "10:32:53.362500",
  "BandwidthPerPixelPhaseEncode": 17.17,
  "BaseResolution": 104,
  "BodyPartExamined": "BRAIN",
  "CoilString": "HC1-7;NC1_2",
  "ConsistencyInfo": "N4_VE11C_LATEST_20160120",
  "ConversionSoftware": "dcm2niix",
  "ConversionSoftwareVersion": "v1.0.20190902",
  "DerivedVendorReportedEchoSpacing": 0.000560011,
  "DeviceSerialNumber": "167006",
  "DwellTime": 2.1e-06,
  "EchoTime": 0.037,
  "EchoTrainLength": 104,
  "EffectiveEchoSpacing": 0.000560011,
  "FlipAngle": 52,
  "ImageComments": "Unaliased_MB4_PE3_LB",
  "ImageOrientationPatientDICOM": [0.999039, 0.0384601, 0.0210051, -0.0282547, 0.931709, -0.362105],
  "ImageType": [
    "ORIGINAL",
    "PRIMARY",
    "M",
    "MB",
    "ND",
    "MOSAIC"
],
  "ImagingFrequency": 123.259,
  "InPlanePhaseEncodingDirectionDICOM": "COL",
  "InstitutionAddress": "Chemin_Queen-Mary_4565_Montreal_District_CA_H3W_1W5",
  "InstitutionName": "IUGM",
  "InstitutionalDepartmentName": "Department",
  "MRAcquisitionType": "2D",
  "MagneticFieldStrength": 3,
  "Manufacturer": "Siemens",
  "ManufacturersModelName": "Prisma_fit",
  "Modality": "MR",
  "MultibandAccelerationFactor": 4,
  "PartialFourier": 1,
  "PatientPosition": "HFS",
  "PercentPhaseFOV": 100,
  "PhaseEncodingDirection": "j",
  "PhaseEncodingSteps": 104,
  "PhaseResolution": 1,
  "PixelBandwidth": 2290,
  "ProcedureStepDescription": "video_friends",
  "ProtocolName": "func_task-friends-s03e25b",
  "PulseSequenceDetails": "%CustomerSeq%_cmrr_mbep2d_bold",
  "ReceiveCoilActiveElements": "HC1-7;NC1,2",
  "ReceiveCoilName": "HeadNeck_64",
  "ReconMatrixPE": 104,
  "RepetitionTime": 1.49,
  "SAR": 0.0375972,
  "ScanOptions": "FS",
  "ScanningSequence": "EP",
  "SequenceName": "epfid2d1_104",
  "SequenceVariant": "SK_SS",
  "SeriesDescription": "func_task-friends-s03e25b",
  "SeriesNumber": 19,
  "ShimSetting": [629, -7182, -8855, 637, 63, 39, 41, -12],
  "SliceThickness": 2,
  "SliceTiming": [0, 0.7825, 0.0975, 0.8825, 0.195, 0.98, 0.2925, 1.0775, 0.3925, 1.175, 0.49, 1.2725, 0.5875, 1.3725, 0.685, 0, 0.7825, 0.0975, 0.8825, 0.195, 0.98, 0.2925, 1.0775, 0.3925, 1.175, 0.49, 1.2725, 0.5875, 1.3725, 0.685, 0, 0.7825, 0.0975, 0.8825, 0.195, 0.98, 0.2925, 1.0775, 0.3925, 1.175, 0.49, 1.2725, 0.5875, 1.3725, 0.685, 0, 0.7825, 0.0975, 0.8825, 0.195, 0.98, 0.2925, 1.0775, 0.3925, 1.175, 0.49, 1.2725, 0.5875, 1.3725, 0.685],
  "SoftwareVersions": "syngo_MR_E11",
  "SpacingBetweenSlices": 2,
  "StationName": "MRC35049",
  "TaskName": "s03e25b",
  "TotalReadoutTime": 0.0576811,
  "TxRefAmp": 244.358,
  "WipMemBlock": "932eb2d6-a825-4d04-b522-1d511e461c54||Sequence: R016 ve11c/master r/e634e98; Dec 19 2017 11:00:25 by eja",
  "dcmmeta_affine": [
    [-1.99807870388031, -0.05650947988033295, 0.06699442118406296, 104.7520523071289],
    [-0.07692024111747742, 1.8634178638458252, -0.722327470779419, -64.12623596191406],
    [0.04201012849807739, 0.7242102026939392, 1.863801121711731, -69.46588134765625],
    [0.0, 0.0, 0.0, 1.0]
],
  "dcmmeta_reorient_transform": [
    [0.0, -1.0, 0.0, 103.0],
    [1.0, 0.0, 0.0, 0.0],
    [0.0, 0.0, 1.0, 0.0],
    [0.0, 0.0, 0.0, 1.0]
],
  "dcmmeta_shape": [104, 104, 60, 479],
  "dcmmeta_slice_dim": 2,
  "dcmmeta_version": 0.6,
  "global": {
    "const": {
      "AcquisitionMatrix": [104, 0, 0, 104],
      "AngioFlag": "N",
      "BitsAllocated": 16,
      "BitsStored": 16,
      "BodyPartExamined": "BRAIN",
      "Columns": 832,
      "EchoNumbers": 1,
      "EchoTime": 37.0,
      "EchoTrainLength": 104,
      "FlipAngle": 52.0,
      "HighBit": 15,
      "ImageOrientationPatient": [0.99903934176732, 0.03846012048722, 0.02100506446625, -0.028254740759, 0.93170895069317, -0.3621050963779],
      "ImagePositionPatient": [-805.66276517933, -834.08889132792, 253.44858882469],
      "ImageType": [
        "ORIGINAL",
        "PRIMARY",
        "M",
        "MB",
        "ND",
        "MOSAIC"
],
      "ImagedNucleus": "1H",
      "ImagingFrequency": 123.25904,
      "InPlanePhaseEncodingDirection": "COL",
      "MRAcquisitionType": "2D",
      "MagneticFieldStrength": 3.0,
      "Manufacturer": "SIEMENS",
      "ManufacturerModelName": "Prisma_fit",
      "Modality": "MR",
      "NumberOfAverages": 1.0,
      "NumberOfPhaseEncodingSteps": 104,
      "PercentPhaseFieldOfView": 100.0,
      "PercentSampling": 100.0,
      "PerformedProcedureStepStartTime": "091101.581000",
      "PhotometricInterpretation": "MONOCHROME2",
      "PixelBandwidth": 2290.0,
      "PixelRepresentation": 0,
      "PixelSpacing": [2.0, 2.0],
      "ProtocolName": "func_task-friends-s03e25b",
      "RepetitionTime": 1490.0,
      "Rows": 832,
      "SAR": 0.0375972262848,
      "SamplesPerPixel": 1,
      "ScanOptions": "FS",
      "ScanningSequence": "EP",
      "SequenceName": "epfid2d1_104",
      "SequenceVariant": [
        "SK",
        "SS"
],
      "SeriesDescription": "func_task-friends-s03e25b",
      "SeriesNumber": 19,
      "SeriesTime": "103426.345000",
      "SliceLocation": -38.066324305515,
      "SliceThickness": 2.0,
      "SmallestImagePixelValue": 0,
      "SoftwareVersions": "syngo MR E11",
      "SpacingBetweenSlices": 1.9999999879822,
      "SpecificCharacterSet": "ISO_IR 100",
      "StudyID": "1",
      "StudyTime": "091101.425000",
      "TransmitCoilName": "Body",
      "VariableFlipAngleFlag": "N",
      "WindowCenterWidthExplanation": "Algo1",
      "dBdt": 0.0},
    "slices": {}
  },
  "time": {
    "samples": {
      "AcquisitionNumber": [1, 2, 3, 4, 5, 6, 7, 8, 9, 10, 11, 12, 13, 14, 15, 16, 17, 18, 19, 20, 21, 22, 23, 24, 25, 26, 27, 28, 29, 30, 31, 32, 33, 34, 35, 36, 37, 38, 39, 40, 41, 42, 43, 44, 45, 46, 47, 48, 49, 50, 51, 52, 53, 54, 55, 56, 57, 58, 59, 60, 61, 62, 63, 64, 65, 66, 67, 68, 69, 70, 71, 72, 73, 74, 75, 76, 77, 78, 79, 80, 81, 82, 83, 84, 85, 86, 87, 88, 89, 90, 91, 92, 93, 94, 95, 96, 97, 98, 99, 100, 101, 102, 103, 104, 105, 106, 107, 108, 109, 110, 111, 112, 113, 114, 115, 116, 117, 118, 119, 120, 121, 122, 123, 124, 125, 126, 127, 128, 129, 130, 131, 132, 133, 134, 135, 136, 137, 138, 139, 140, 141, 142, 143, 144, 145, 146, 147, 148, 149, 150, 151, 152, 153, 154, 155, 156, 157, 158, 159, 160, 161, 162, 163, 164, 165, 166, 167, 168, 169, 170, 171, 172, 173, 174, 175, 176, 177, 178, 179, 180, 181, 182, 183, 184, 185, 186, 187, 188, 189, 190, 191, 192, 193, 194, 195, 196, 197, 198, 199, 200, 201, 202, 203, 204, 205, 206, 207, 208, 209, 210, 211, 212, 213, 214, 215, 216, 217, 218, 219, 220, 221, 222, 223, 224, 225, 226, 227, 228, 229, 230, 231, 232, 233, 234, 235, 236, 237, 238, 239, 240, 241, 242, 243, 244, 245, 246, 247, 248, 249, 250, 251, 252, 253, 254, 255, 256, 257, 258, 259, 260, 261, 262, 263, 264, 265, 266, 267, 268, 269, 270, 271, 272, 273, 274, 275, 276, 277, 278, 279, 280, 281, 282, 283, 284, 285, 286, 287, 288, 289, 290, 291, 292, 293, 294, 295, 296, 297, 298, 299, 300, 301, 302, 303, 304, 305, 306, 307, 308, 309, 310, 311, 312, 313, 314, 315, 316, 317, 318, 319, 320, 321, 322, 323, 324, 325, 326, 327, 328, 329, 330, 331, 332, 333, 334, 335, 336, 337, 338, 339, 340, 341, 342, 343, 344, 345, 346, 347, 348, 349, 350, 351, 352, 353, 354, 355, 356, 357, 358, 359, 360, 361, 362, 363, 364, 365, 366, 367, 368, 369, 370, 371, 372, 373, 374, 375, 376, 377, 378, 379, 380, 381, 382, 383, 384, 385, 386, 387, 388, 389, 390, 391, 392, 393, 394, 395, 396, 397, 398, 399, 400, 401, 402, 403, 404, 405, 406, 407, 408, 409, 410, 411, 412, 413, 414, 415, 416, 417, 418, 419, 420, 421, 422, 423, 424, 425, 426, 427, 428, 429, 430, 431, 432, 433, 434, 435, 436, 437, 438, 439, 440, 441, 442, 443, 444, 445, 446, 447, 448, 449, 450, 451, 452, 453, 454, 455, 456, 457, 458, 459, 460, 461, 462, 463, 464, 465, 466, 467, 468, 469, 470, 471, 472, 473, 474, 475, 476, 477, 478, 479],
      "AcquisitionTime": ["103253.362500", "103254.852500", "103256.342500", "103257.832500", "103259.322500", "103300.812500", "103302.302500", "103303.792500", "103305.282500", "103306.772500", "103308.262500", "103309.752500", "103311.242500", "103312.732500", "103314.222500", "103315.712500", "103317.202500", "103318.692500", "103320.182500", "103321.672500", "103323.162500", "103324.652500", "103326.142500", "103327.632500", "103329.122500", "103330.612500", "103332.102500", "103333.592500", "103335.082500", "103336.572500", "103338.062500", "103339.552500", "103341.042500", "103342.532500", "103344.022500", "103345.512500", "103347.002500", "103348.492500", "103349.982500", "103351.472500", "103352.962500", "103354.452500", "103355.942500", "103357.432500", "103358.922500", "103400.412500", "103401.902500", "103403.392500", "103404.882500", "103406.372500", "103407.862500", "103409.352500", "103410.842500", "103412.332500", "103413.822500", "103415.312500", "103416.802500", "103418.292500", "103419.782500", "103421.272500", "103422.762500", "103424.252500", "103425.742500", "103427.232500", "103428.722500", "103430.212500", "103431.702500", "103433.192500", "103434.682500", "103436.172500", "103437.662500", "103439.152500", "103440.642500", "103442.132500", "103443.622500", "103445.112500", "103446.602500", "103448.092500", "103449.582500", "103451.072500", "103452.562500", "103454.052500", "103455.542500", "103457.032500", "103458.522500", "103500.012500", "103501.502500", "103502.992500", "103504.482500", "103505.972500", "103507.462500", "103508.952500", "103510.442500", "103511.932500", "103513.422500", "103514.912500", "103516.402500", "103517.892500", "103519.382500", "103520.872500", "103522.362500", "103523.852500", "103525.342500", "103526.832500", "103528.322500", "103529.812500", "103531.302500", "103532.792500", "103534.282500", "103535.772500", "103537.262500", "103538.752500", "103540.242500", "103541.732500", "103543.222500", "103544.712500", "103546.202500", "103547.692500", "103549.182500", "103550.672500", "103552.162500", "103553.652500", "103555.142500", "103556.632500", "103558.122500", "103559.612500", "103601.102500", "103602.592500", "103604.082500", "103605.572500", "103607.062500", "103608.552500", "103610.042500", "103611.532500", "103613.022500", "103614.512500", "103616.002500", "103617.492500", "103618.982500", "103620.472500", "103621.962500", "103623.452500", "103624.942500", "103626.432500", "103627.922500", "103629.412500", "103630.902500", "103632.392500", "103633.882500", "103635.372500", "103636.862500", "103638.352500", "103639.842500", "103641.332500", "103642.822500", "103644.312500", "103645.802500", "103647.292500", "103648.782500", "103650.272500", "103651.762500", "103653.252500", "103654.742500", "103656.232500", "103657.722500", "103659.212500", "103700.702500", "103702.192500", "103703.682500", "103705.172500", "103706.662500", "103708.152500", "103709.642500", "103711.132500", "103712.622500", "103714.112500", "103715.602500", "103717.092500", "103718.582500", "103720.072500", "103721.562500", "103723.052500", "103724.542500", "103726.032500", "103727.522500", "103729.012500", "103730.502500", "103731.992500", "103733.482500", "103734.972500", "103736.462500", "103737.952500", "103739.442500", "103740.932500", "103742.422500", "103743.912500", "103745.402500", "103746.892500", "103748.382500", "103749.872500", "103751.362500", "103752.852500", "103754.342500", "103755.832500", "103757.322500", "103758.812500", "103800.302500", "103801.792500", "103803.282500", "103804.772500", "103806.262500", "103807.752500", "103809.242500", "103810.732500", "103812.222500", "103813.712500", "103815.202500", "103816.692500", "103818.182500", "103819.672500", "103821.162500", "103822.652500", "103824.142500", "103825.632500", "103827.122500", "103828.612500", "103830.102500", "103831.592500", "103833.082500", "103834.572500", "103836.062500", "103837.552500", "103839.042500", "103840.532500", "103842.022500", "103843.512500", "103845.002500", "103846.492500", "103847.982500", "103849.472500", "103850.962500", "103852.452500", "103853.942500", "103855.432500", "103856.922500", "103858.412500", "103859.902500", "103901.392500", "103902.882500", "103904.372500", "103905.862500", "103907.352500", "103908.842500", "103910.332500", "103911.822500", "103913.312500", "103914.802500", "103916.292500", "103917.782500", "103919.272500", "103920.762500", "103922.252500", "103923.742500", "103925.232500", "103926.722500", "103928.212500", "103929.702500", "103931.192500", "103932.682500", "103934.172500", "103935.662500", "103937.152500", "103938.642500", "103940.132500", "103941.622500", "103943.112500", "103944.602500", "103946.092500", "103947.582500", "103949.072500", "103950.562500", "103952.052500", "103953.542500", "103955.032500", "103956.522500", "103958.012500", "103959.502500", "104000.992500", "104002.482500", "104003.972500", "104005.462500", "104006.952500", "104008.442500", "104009.932500", "104011.422500", "104012.912500", "104014.402500", "104015.892500", "104017.382500", "104018.872500", "104020.362500", "104021.852500", "104023.342500", "104024.832500", "104026.322500", "104027.812500", "104029.302500", "104030.792500", "104032.282500", "104033.772500", "104035.262500", "104036.752500", "104038.242500", "104039.732500", "104041.222500", "104042.712500", "104044.202500", "104045.692500", "104047.182500", "104048.672500", "104050.162500", "104051.652500", "104053.142500", "104054.632500", "104056.122500", "104057.612500", "104059.102500", "104100.592500", "104102.082500", "104103.572500", "104105.062500", "104106.552500", "104108.042500", "104109.532500", "104111.022500", "104112.512500", "104114.002500", "104115.492500", "104116.982500", "104118.472500", "104119.962500", "104121.452500", "104122.942500", "104124.432500", "104125.922500", "104127.412500", "104128.902500", "104130.392500", "104131.882500", "104133.372500", "104134.862500", "104136.352500", "104137.842500", "104139.332500", "104140.822500", "104142.312500", "104143.802500", "104145.292500", "104146.782500", "104148.272500", "104149.762500", "104151.252500", "104152.742500", "104154.232500", "104155.722500", "104157.212500", "104158.702500", "104200.192500", "104201.682500", "104203.172500", "104204.662500", "104206.152500", "104207.642500", "104209.132500", "104210.622500", "104212.112500", "104213.602500", "104215.092500", "104216.582500", "104218.072500", "104219.562500", "104221.052500", "104222.542500", "104224.032500", "104225.522500", "104227.012500", "104228.502500", "104229.992500", "104231.482500", "104232.972500", "104234.462500", "104235.952500", "104237.442500", "104238.932500", "104240.422500", "104241.912500", "104243.402500", "104244.892500", "104246.382500", "104247.872500", "104249.362500", "104250.852500", "104252.342500", "104253.832500", "104255.322500", "104256.812500", "104258.302500", "104259.792500", "104301.282500", "104302.772500", "104304.262500", "104305.752500", "104307.242500", "104308.732500", "104310.222500", "104311.712500", "104313.202500", "104314.692500", "104316.182500", "104317.672500", "104319.162500", "104320.652500", "104322.142500", "104323.632500", "104325.122500", "104326.612500", "104328.102500", "104329.592500", "104331.082500", "104332.572500", "104334.062500", "104335.552500", "104337.042500", "104338.532500", "104340.022500", "104341.512500", "104343.002500", "104344.492500", "104345.982500", "104347.472500", "104348.962500", "104350.452500", "104351.942500", "104353.432500", "104354.922500", "104356.412500", "104357.902500", "104359.392500", "104400.882500", "104402.372500", "104403.862500", "104405.352500", "104406.842500", "104408.332500", "104409.822500", "104411.312500", "104412.802500", "104414.292500", "104415.782500", "104417.272500", "104418.762500", "104420.252500", "104421.742500", "104423.232500", "104424.722500", "104426.212500", "104427.702500", "104429.192500", "104430.682500", "104432.172500", "104433.662500", "104435.152500", "104436.642500", "104438.132500", "104439.622500", "104441.112500", "104442.602500", "104444.092500", "104445.582500"],
      "ContentTime": ["103426.347000", "103426.357000", "103426.360000", "103426.362000", "103426.365000", "103426.368000", "103426.371000", "103426.374000", "103426.377000", "103426.380000", "103426.383000", "103426.385000", "103426.388000", "103426.397000", "103426.400000", "103426.403000", "103426.406000", "103426.409000", "103426.412000", "103426.414000", "103426.417000", "103426.420000", "103426.423000", "103426.426000", "103426.429000", "103426.432000", "103426.435000", "103426.437000", "103426.440000", "103426.443000", "103426.446000", "103426.449000", "103426.452000", "103426.455000", "103426.458000", "103426.460000", "103426.463000", "103426.466000", "103426.469000", "103446.315000", "103446.318000", "103446.321000", "103446.323000", "103446.327000", "103446.329000", "103446.332000", "103446.335000", "103446.338000", "103446.341000", "103446.344000", "103446.346000", "103446.349000", "103446.352000", "103446.355000", "103446.358000", "103446.361000", "103446.364000", "103446.366000", "103446.369000", "103506.316000", "103506.319000", "103506.322000", "103506.324000", "103506.327000", "103506.330000", "103506.333000", "103506.336000", "103506.339000", "103506.342000", "103506.345000", "103506.348000", "103506.351000", "103506.354000", "103506.356000", "103506.359000", "103506.362000", "103506.365000", "103506.368000", "103506.371000", "103526.315000", "103526.318000", "103526.321000", "103526.323000", "103526.326000", "103526.329000", "103526.332000", "103526.335000", "103526.338000", "103526.341000", "103526.344000", "103526.347000", "103526.350000", "103526.352000", "103526.355000", "103526.358000", "103526.361000", "103526.364000", "103526.367000", "103526.370000", "103606.315000", "103606.318000", "103606.321000", "103606.324000", "103606.327000", "103606.329000", "103606.333000", "103606.335000", "103606.338000", "103606.341000", "103606.344000", "103606.347000", "103606.350000", "103606.353000", "103606.356000", "103606.358000", "103606.361000", "103606.364000", "103606.368000", "103606.371000", "103606.374000", "103606.377000", "103606.380000", "103606.383000", "103606.386000", "103606.388000", "103606.391000", "103606.394000", "103606.397000", "103646.315000", "103646.318000", "103646.321000", "103646.324000", "103646.327000", "103646.329000", "103646.332000", "103646.335000", "103646.338000", "103646.341000", "103646.344000", "103646.347000", "103646.350000", "103646.352000", "103646.355000", "103646.358000", "103646.361000", "103646.364000", "103646.367000", "103646.370000", "103646.373000", "103646.375000", "103646.378000", "103646.381000", "103646.384000", "103646.387000", "103646.390000", "103726.316000", "103726.332000", "103726.335000", "103726.338000", "103726.341000", "103726.344000", "103726.347000", "103726.349000", "103726.352000", "103726.355000", "103726.358000", "103726.361000", "103726.364000", "103726.367000", "103726.370000", "103726.373000", "103726.375000", "103726.378000", "103726.381000", "103726.384000", "103726.387000", "103726.390000", "103726.393000", "103726.396000", "103726.398000", "103726.401000", "103726.404000", "103806.315000", "103806.318000", "103806.321000", "103806.324000", "103806.327000", "103806.330000", "103806.333000", "103806.335000", "103806.338000", "103806.341000", "103806.344000", "103806.347000", "103806.350000", "103806.353000", "103806.356000", "103806.359000", "103806.362000", "103806.365000", "103806.367000", "103806.370000", "103806.373000", "103806.376000", "103806.379000", "103806.382000", "103806.384000", "103806.387000", "103806.390000", "103846.315000", "103846.318000", "103846.321000", "103846.324000", "103846.327000", "103846.329000", "103846.332000", "103846.335000", "103846.338000", "103846.341000", "103846.344000", "103846.347000", "103846.350000", "103846.352000", "103846.355000", "103846.358000", "103846.361000", "103846.364000", "103846.367000", "103846.370000", "103846.373000", "103846.376000", "103846.378000", "103846.381000", "103846.384000", "103846.387000", "103846.390000", "103926.315000", "103926.318000", "103926.321000", "103926.324000", "103926.327000", "103926.329000", "103926.332000", "103926.335000", "103926.344000", "103926.346000", "103926.349000", "103926.352000", "103926.355000", "103926.358000", "103926.361000", "103926.364000", "103926.367000", "103926.369000", "103926.372000", "103926.375000", "103926.378000", "103926.381000", "103926.384000", "103926.387000", "103926.390000", "103926.393000", "103926.395000", "104006.315000", "104006.318000", "104006.321000", "104006.324000", "104006.327000", "104006.330000", "104006.332000", "104006.335000", "104006.338000", "104006.341000", "104006.344000", "104006.347000", "104006.350000", "104006.353000", "104006.356000", "104006.358000", "104006.362000", "104006.364000", "104006.367000", "104006.371000", "104006.374000", "104006.377000", "104006.379000", "104006.383000", "104006.386000", "104006.389000", "104046.315000", "104046.318000", "104046.321000", "104046.324000", "104046.327000", "104046.330000", "104046.332000", "104046.335000", "104046.338000", "104046.341000", "104046.344000", "104046.347000", "104046.350000", "104046.353000", "104046.356000", "104046.358000", "104046.362000", "104046.364000", "104046.367000", "104046.370000", "104046.373000", "104046.376000", "104046.379000", "104046.382000", "104046.385000", "104046.388000", "104046.390000", "104126.315000", "104126.318000", "104126.321000", "104126.324000", "104126.327000", "104126.329000", "104126.332000", "104126.335000", "104126.338000", "104126.341000", "104126.344000", "104126.347000", "104126.360000", "104126.362000", "104126.365000", "104126.368000", "104126.371000", "104126.374000", "104126.377000", "104126.380000", "104126.383000", "104126.385000", "104126.388000", "104126.402000", "104126.405000", "104126.407000", "104126.410000", "104206.316000", "104206.319000", "104206.322000", "104206.325000", "104206.328000", "104206.330000", "104206.334000", "104206.336000", "104206.339000", "104206.342000", "104206.345000", "104206.348000", "104206.351000", "104206.354000", "104206.357000", "104206.360000", "104206.362000", "104206.365000", "104206.368000", "104206.371000", "104206.374000", "104206.377000", "104206.380000", "104206.383000", "104206.386000", "104206.389000", "104206.392000", "104246.315000", "104246.318000", "104246.321000", "104246.324000", "104246.327000", "104246.330000", "104246.333000", "104246.335000", "104246.338000", "104246.341000", "104246.344000", "104246.347000", "104246.350000", "104246.353000", "104246.356000", "104246.359000", "104246.361000", "104246.364000", "104246.367000", "104246.370000", "104246.373000", "104246.376000", "104246.379000", "104246.382000", "104246.385000", "104246.388000", "104246.391000", "104326.315000", "104326.318000", "104326.321000", "104326.324000", "104326.327000", "104326.330000", "104326.332000", "104326.335000", "104326.338000", "104326.341000", "104326.344000", "104326.347000", "104326.350000", "104326.353000", "104326.356000", "104326.359000", "104326.362000", "104326.365000", "104326.367000", "104326.370000", "104326.373000", "104326.376000", "104326.379000", "104326.382000", "104326.385000", "104326.388000", "104326.391000", "104406.315000", "104406.318000", "104406.321000", "104406.324000", "104406.327000", "104406.330000", "104406.332000", "104406.335000", "104406.338000", "104406.341000", "104406.344000", "104406.347000", "104406.350000", "104406.353000", "104406.356000", "104406.359000", "104406.361000", "104406.364000", "104406.367000", "104406.370000", "104406.373000", "104406.376000", "104406.379000", "104406.382000", "104406.385000", "104406.387000", "104406.390000", "104446.315000", "104446.318000", "104446.321000", "104446.324000", "104446.327000", "104446.330000", "104446.333000", "104446.335000", "104446.338000", "104446.341000", "104446.344000", "104446.347000", "104446.350000", "104446.353000", "104446.356000", "104446.359000", "104446.362000", "104446.364000", "104446.367000", "104446.371000", "104446.374000", "104446.377000", "104446.380000", "104446.383000", "104446.386000", "104446.389000", "104448.039000", "104448.042000"],
