{
  "AcquisitionMatrixPE": 104,
  "AcquisitionNumber": 1,
  "AcquisitionTime": "11:08:52.705000",
  "BandwidthPerPixelPhaseEncode": 17.17,
  "BaseResolution": 104,
  "BodyPartExamined": "BRAIN",
  "CoilString": "HC1-7;NC1_2",
  "ConsistencyInfo": "N4_VE11C_LATEST_20160120",
  "ConversionSoftware": "dcm2niix",
  "ConversionSoftwareVersion": "v1.0.20190902",
  "DerivedVendorReportedEchoSpacing": 0.000560011,
  "DeviceSerialNumber": "167006",
  "DwellTime": 2.1e-06,
  "EchoTime": 0.037,
  "EchoTrainLength": 104,
  "EffectiveEchoSpacing": 0.000560011,
  "FlipAngle": 52,
  "ImageComments": "Unaliased_MB4_PE3_LB",
  "ImageOrientationPatientDICOM": [0.999143, 0.0411924, 0.0040284, -0.0366369, 0.925512, -0.376943],
  "ImageType": [
    "ORIGINAL",
    "PRIMARY",
    "M",
    "MB",
    "ND",
    "MOSAIC"
],
  "ImagingFrequency": 123.259,
  "InPlanePhaseEncodingDirectionDICOM": "COL",
  "InstitutionAddress": "Chemin_Queen-Mary_4565_Montreal_District_CA_H3W_1W5",
  "InstitutionName": "IUGM",
  "InstitutionalDepartmentName": "Department",
  "MRAcquisitionType": "2D",
  "MagneticFieldStrength": 3,
  "Manufacturer": "Siemens",
  "ManufacturersModelName": "Prisma_fit",
  "Modality": "MR",
  "MultibandAccelerationFactor": 4,
  "PartialFourier": 1,
  "PatientPosition": "HFS",
  "PercentPhaseFOV": 100,
  "PhaseEncodingDirection": "j",
  "PhaseEncodingSteps": 104,
  "PhaseResolution": 1,
  "PixelBandwidth": 2290,
  "ProcedureStepDescription": "video_friends",
  "ProtocolName": "func_task-friends-s04e01b",
  "PulseSequenceDetails": "%CustomerSeq%_cmrr_mbep2d_bold",
  "ReceiveCoilActiveElements": "HC1-7;NC1,2",
  "ReceiveCoilName": "HeadNeck_64",
  "ReconMatrixPE": 104,
  "RepetitionTime": 1.49,
  "SAR": 0.0400302,
  "ScanOptions": "FS",
  "ScanningSequence": "EP",
  "SequenceName": "epfid2d1_104",
  "SequenceVariant": "SK_SS",
  "SeriesDescription": "func_task-friends-s04e01b",
  "SeriesNumber": 30,
  "ShimSetting": [636, -7181, -8848, 643, 79, 28, 24, -2],
  "SliceThickness": 2,
  "SliceTiming": [0, 0.785, 0.0975, 0.8825, 0.195, 0.98, 0.295, 1.0775, 0.3925, 1.175, 0.49, 1.275, 0.5875, 1.3725, 0.685, 0, 0.785, 0.0975, 0.8825, 0.195, 0.98, 0.295, 1.0775, 0.3925, 1.175, 0.49, 1.275, 0.5875, 1.3725, 0.685, 0, 0.785, 0.0975, 0.8825, 0.195, 0.98, 0.295, 1.0775, 0.3925, 1.175, 0.49, 1.275, 0.5875, 1.3725, 0.685, 0, 0.785, 0.0975, 0.8825, 0.195, 0.98, 0.295, 1.0775, 0.3925, 1.175, 0.49, 1.275, 0.5875, 1.3725, 0.685],
  "SoftwareVersions": "syngo_MR_E11",
  "SpacingBetweenSlices": 2,
  "StationName": "MRC35049",
  "TaskName": "s04e01b",
  "TotalReadoutTime": 0.0576811,
  "TxRefAmp": 248.69,
  "WipMemBlock": "4926c67d-d4fd-453b-aa52-d5bea7bace8e||Sequence: R016 ve11c/master r/e634e98; Dec 19 2017 11:00:25 by eja",
  "dcmmeta_affine": [
    [-1.998286247253418, -0.07327386736869812, 0.03851103037595749, 106.07166290283203],
    [-0.08238475024700165, 1.8510230779647827, -0.7529451251029968, -62.720497131347656],
    [0.008056802675127983, 0.7538862824440002, 1.8524552583694458, -65.59620666503906],
    [0.0, 0.0, 0.0, 1.0]
],
  "dcmmeta_reorient_transform": [
    [0.0, -1.0, 0.0, 103.0],
    [1.0, 0.0, 0.0, 0.0],
    [0.0, 0.0, 1.0, 0.0],
    [0.0, 0.0, 0.0, 1.0]
],
  "dcmmeta_shape": [104, 104, 60, 468],
  "dcmmeta_slice_dim": 2,
  "dcmmeta_version": 0.6,
  "global": {
    "const": {
      "AcquisitionMatrix": [104, 0, 0, 104],
      "AngioFlag": "N",
      "BitsAllocated": 16,
      "BitsStored": 16,
      "BodyPartExamined": "BRAIN",
      "Columns": 832,
      "EchoNumbers": 1,
      "EchoTime": 37.0,
      "EchoTrainLength": 104,
      "FlipAngle": 52.0,
      "HighBit": 15,
      "ImageOrientationPatient": [0.99914311299936, 0.04119237465305, 0.00402840122005, -0.0366369332159, 0.92551153165811, -0.3769431520699],
      "ImagePositionPatient": [-799.22895230028, -831.69532079673, 283.53602111711],
      "ImageType": [
        "ORIGINAL",
        "PRIMARY",
        "M",
        "MB",
        "ND",
        "MOSAIC"
],
      "ImagedNucleus": "1H",
      "ImagingFrequency": 123.259032,
      "InPlanePhaseEncodingDirection": "COL",
      "MRAcquisitionType": "2D",
      "MagneticFieldStrength": 3.0,
      "Manufacturer": "SIEMENS",
      "ManufacturerModelName": "Prisma_fit",
      "Modality": "MR",
      "NumberOfAverages": 1.0,
      "NumberOfPhaseEncodingSteps": 104,
      "PercentPhaseFieldOfView": 100.0,
      "PercentSampling": 100.0,
      "PerformedProcedureStepStartTime": "091101.581000",
      "PhotometricInterpretation": "MONOCHROME2",
      "PixelBandwidth": 2290.0,
      "PixelRepresentation": 0,
      "PixelSpacing": [2.0, 2.0],
      "ProtocolName": "func_task-friends-s04e01b",
      "RepetitionTime": 1490.0,
      "Rows": 832,
      "SAR": 0.04003021174353,
      "SamplesPerPixel": 1,
      "ScanOptions": "FS",
      "ScanningSequence": "EP",
      "SequenceName": "epfid2d1_104",
      "SequenceVariant": [
        "SK",
        "SS"
],
      "SeriesDescription": "func_task-friends-s04e01b",
      "SeriesNumber": 30,
      "SeriesTime": "111011.868000",
      "SliceLocation": -35.102007991758,
      "SliceThickness": 2.0,
      "SmallestImagePixelValue": 0,
      "SoftwareVersions": "syngo MR E11",
      "SpacingBetweenSlices": 2.0000000195154,
      "SpecificCharacterSet": "ISO_IR 100",
      "StudyID": "1",
      "StudyTime": "091101.425000",
      "TransmitCoilName": "Body",
      "VariableFlipAngleFlag": "N",
      "WindowCenterWidthExplanation": "Algo1",
      "dBdt": 0.0},
    "slices": {}
  },
  "time": {
    "samples": {
      "AcquisitionNumber": [1, 2, 3, 4, 5, 6, 7, 8, 9, 10, 11, 12, 13, 14, 15, 16, 17, 18, 19, 20, 21, 22, 23, 24, 25, 26, 27, 28, 29, 30, 31, 32, 33, 34, 35, 36, 37, 38, 39, 40, 41, 42, 43, 44, 45, 46, 47, 48, 49, 50, 51, 52, 53, 54, 55, 56, 57, 58, 59, 60, 61, 62, 63, 64, 65, 66, 67, 68, 69, 70, 71, 72, 73, 74, 75, 76, 77, 78, 79, 80, 81, 82, 83, 84, 85, 86, 87, 88, 89, 90, 91, 92, 93, 94, 95, 96, 97, 98, 99, 100, 101, 102, 103, 104, 105, 106, 107, 108, 109, 110, 111, 112, 113, 114, 115, 116, 117, 118, 119, 120, 121, 122, 123, 124, 125, 126, 127, 128, 129, 130, 131, 132, 133, 134, 135, 136, 137, 138, 139, 140, 141, 142, 143, 144, 145, 146, 147, 148, 149, 150, 151, 152, 153, 154, 155, 156, 157, 158, 159, 160, 161, 162, 163, 164, 165, 166, 167, 168, 169, 170, 171, 172, 173, 174, 175, 176, 177, 178, 179, 180, 181, 182, 183, 184, 185, 186, 187, 188, 189, 190, 191, 192, 193, 194, 195, 196, 197, 198, 199, 200, 201, 202, 203, 204, 205, 206, 207, 208, 209, 210, 211, 212, 213, 214, 215, 216, 217, 218, 219, 220, 221, 222, 223, 224, 225, 226, 227, 228, 229, 230, 231, 232, 233, 234, 235, 236, 237, 238, 239, 240, 241, 242, 243, 244, 245, 246, 247, 248, 249, 250, 251, 252, 253, 254, 255, 256, 257, 258, 259, 260, 261, 262, 263, 264, 265, 266, 267, 268, 269, 270, 271, 272, 273, 274, 275, 276, 277, 278, 279, 280, 281, 282, 283, 284, 285, 286, 287, 288, 289, 290, 291, 292, 293, 294, 295, 296, 297, 298, 299, 300, 301, 302, 303, 304, 305, 306, 307, 308, 309, 310, 311, 312, 313, 314, 315, 316, 317, 318, 319, 320, 321, 322, 323, 324, 325, 326, 327, 328, 329, 330, 331, 332, 333, 334, 335, 336, 337, 338, 339, 340, 341, 342, 343, 344, 345, 346, 347, 348, 349, 350, 351, 352, 353, 354, 355, 356, 357, 358, 359, 360, 361, 362, 363, 364, 365, 366, 367, 368, 369, 370, 371, 372, 373, 374, 375, 376, 377, 378, 379, 380, 381, 382, 383, 384, 385, 386, 387, 388, 389, 390, 391, 392, 393, 394, 395, 396, 397, 398, 399, 400, 401, 402, 403, 404, 405, 406, 407, 408, 409, 410, 411, 412, 413, 414, 415, 416, 417, 418, 419, 420, 421, 422, 423, 424, 425, 426, 427, 428, 429, 430, 431, 432, 433, 434, 435, 436, 437, 438, 439, 440, 441, 442, 443, 444, 445, 446, 447, 448, 449, 450, 451, 452, 453, 454, 455, 456, 457, 458, 459, 460, 461, 462, 463, 464, 465, 466, 467, 468],
      "AcquisitionTime": ["110852.705000", "110854.195000", "110855.685000", "110857.175000", "110858.665000", "110900.155000", "110901.645000", "110903.135000", "110904.625000", "110906.115000", "110907.605000", "110909.095000", "110910.585000", "110912.075000", "110913.565000", "110915.055000", "110916.545000", "110918.035000", "110919.525000", "110921.015000", "110922.505000", "110923.995000", "110925.485000", "110926.975000", "110928.465000", "110929.955000", "110931.445000", "110932.935000", "110934.425000", "110935.915000", "110937.405000", "110938.895000", "110940.385000", "110941.875000", "110943.365000", "110944.855000", "110946.345000", "110947.835000", "110949.325000", "110950.815000", "110952.305000", "110953.795000", "110955.285000", "110956.775000", "110958.265000", "110959.755000", "111001.245000", "111002.735000", "111004.225000", "111005.715000", "111007.205000", "111008.695000", "111010.185000", "111011.675000", "111013.165000", "111014.655000", "111016.145000", "111017.635000", "111019.125000", "111020.615000", "111022.105000", "111023.595000", "111025.085000", "111026.575000", "111028.065000", "111029.555000", "111031.045000", "111032.535000", "111034.025000", "111035.515000", "111037.005000", "111038.495000", "111039.985000", "111041.475000", "111042.965000", "111044.455000", "111045.945000", "111047.435000", "111048.925000", "111050.415000", "111051.905000", "111053.395000", "111054.885000", "111056.375000", "111057.865000", "111059.355000", "111100.845000", "111102.335000", "111103.825000", "111105.315000", "111106.805000", "111108.295000", "111109.785000", "111111.275000", "111112.765000", "111114.255000", "111115.745000", "111117.235000", "111118.725000", "111120.215000", "111121.705000", "111123.195000", "111124.685000", "111126.175000", "111127.665000", "111129.155000", "111130.645000", "111132.135000", "111133.625000", "111135.115000", "111136.605000", "111138.095000", "111139.585000", "111141.075000", "111142.565000", "111144.055000", "111145.545000", "111147.035000", "111148.525000", "111150.015000", "111151.505000", "111152.995000", "111154.485000", "111155.975000", "111157.465000", "111158.955000", "111200.445000", "111201.935000", "111203.425000", "111204.915000", "111206.405000", "111207.895000", "111209.385000", "111210.875000", "111212.365000", "111213.855000", "111215.345000", "111216.835000", "111218.325000", "111219.815000", "111221.305000", "111222.795000", "111224.285000", "111225.775000", "111227.265000", "111228.755000", "111230.245000", "111231.735000", "111233.225000", "111234.715000", "111236.205000", "111237.695000", "111239.185000", "111240.675000", "111242.165000", "111243.655000", "111245.145000", "111246.635000", "111248.125000", "111249.615000", "111251.105000", "111252.595000", "111254.085000", "111255.575000", "111257.065000", "111258.555000", "111300.045000", "111301.535000", "111303.025000", "111304.515000", "111306.005000", "111307.495000", "111308.985000", "111310.475000", "111311.965000", "111313.455000", "111314.945000", "111316.435000", "111317.925000", "111319.415000", "111320.905000", "111322.395000", "111323.885000", "111325.375000", "111326.865000", "111328.355000", "111329.845000", "111331.335000", "111332.825000", "111334.315000", "111335.805000", "111337.295000", "111338.785000", "111340.275000", "111341.765000", "111343.255000", "111344.745000", "111346.235000", "111347.725000", "111349.215000", "111350.705000", "111352.195000", "111353.685000", "111355.175000", "111356.665000", "111358.155000", "111359.645000", "111401.135000", "111402.625000", "111404.115000", "111405.605000", "111407.095000", "111408.585000", "111410.075000", "111411.565000", "111413.055000", "111414.545000", "111416.035000", "111417.525000", "111419.015000", "111420.505000", "111421.995000", "111423.485000", "111424.975000", "111426.465000", "111427.955000", "111429.445000", "111430.935000", "111432.425000", "111433.915000", "111435.405000", "111436.895000", "111438.385000", "111439.875000", "111441.365000", "111442.855000", "111444.345000", "111445.835000", "111447.325000", "111448.815000", "111450.305000", "111451.795000", "111453.285000", "111454.775000", "111456.265000", "111457.755000", "111459.245000", "111500.735000", "111502.225000", "111503.715000", "111505.205000", "111506.695000", "111508.185000", "111509.675000", "111511.165000", "111512.655000", "111514.145000", "111515.635000", "111517.125000", "111518.615000", "111520.105000", "111521.595000", "111523.085000", "111524.575000", "111526.065000", "111527.555000", "111529.045000", "111530.535000", "111532.025000", "111533.515000", "111535.005000", "111536.495000", "111537.985000", "111539.475000", "111540.965000", "111542.455000", "111543.945000", "111545.435000", "111546.925000", "111548.415000", "111549.905000", "111551.395000", "111552.885000", "111554.375000", "111555.865000", "111557.355000", "111558.845000", "111600.335000", "111601.825000", "111603.315000", "111604.805000", "111606.295000", "111607.785000", "111609.275000", "111610.765000", "111612.255000", "111613.745000", "111615.235000", "111616.725000", "111618.215000", "111619.705000", "111621.195000", "111622.685000", "111624.175000", "111625.665000", "111627.155000", "111628.645000", "111630.135000", "111631.625000", "111633.115000", "111634.605000", "111636.095000", "111637.585000", "111639.075000", "111640.565000", "111642.055000", "111643.545000", "111645.035000", "111646.525000", "111648.015000", "111649.505000", "111650.995000", "111652.485000", "111653.975000", "111655.465000", "111656.955000", "111658.445000", "111659.935000", "111701.425000", "111702.915000", "111704.405000", "111705.895000", "111707.385000", "111708.875000", "111710.365000", "111711.855000", "111713.345000", "111714.835000", "111716.325000", "111717.815000", "111719.305000", "111720.795000", "111722.285000", "111723.775000", "111725.265000", "111726.755000", "111728.245000", "111729.735000", "111731.225000", "111732.715000", "111734.205000", "111735.695000", "111737.185000", "111738.675000", "111740.165000", "111741.655000", "111743.145000", "111744.635000", "111746.125000", "111747.615000", "111749.105000", "111750.595000", "111752.085000", "111753.575000", "111755.065000", "111756.555000", "111758.045000", "111759.535000", "111801.025000", "111802.515000", "111804.005000", "111805.495000", "111806.985000", "111808.475000", "111809.965000", "111811.455000", "111812.945000", "111814.435000", "111815.925000", "111817.415000", "111818.905000", "111820.395000", "111821.885000", "111823.375000", "111824.865000", "111826.355000", "111827.845000", "111829.335000", "111830.825000", "111832.315000", "111833.805000", "111835.295000", "111836.785000", "111838.275000", "111839.765000", "111841.255000", "111842.745000", "111844.235000", "111845.725000", "111847.215000", "111848.705000", "111850.195000", "111851.685000", "111853.175000", "111854.665000", "111856.155000", "111857.645000", "111859.135000", "111900.625000", "111902.115000", "111903.605000", "111905.095000", "111906.585000", "111908.075000", "111909.565000", "111911.055000", "111912.545000", "111914.035000", "111915.525000", "111917.015000", "111918.505000", "111919.995000", "111921.485000", "111922.975000", "111924.465000", "111925.955000", "111927.445000", "111928.935000", "111930.425000", "111931.915000", "111933.405000", "111934.895000", "111936.385000", "111937.875000", "111939.365000", "111940.855000", "111942.345000", "111943.835000", "111945.325000", "111946.815000", "111948.305000", "111949.795000", "111951.285000", "111952.775000", "111954.265000", "111955.755000", "111957.245000", "111958.735000", "112000.225000", "112001.715000", "112003.205000", "112004.695000", "112006.185000", "112007.675000", "112009.165000", "112010.655000", "112012.145000", "112013.635000", "112015.125000", "112016.615000", "112018.105000", "112019.595000", "112021.085000", "112022.575000", "112024.065000", "112025.555000", "112027.045000", "112028.535000"],
      "ContentTime": ["111011.871000", "111011.874000", "111011.877000", "111011.879000", "111011.883000", "111011.885000", "111011.888000", "111011.891000", "111011.894000", "111011.897000", "111011.900000", "111011.903000", "111011.906000", "111011.908000", "111011.911000", "111011.914000", "111011.917000", "111011.920000", "111011.923000", "111011.926000", "111011.929000", "111011.931000", "111011.934000", "111011.937000", "111031.841000", "111031.844000", "111031.847000", "111031.850000", "111031.853000", "111031.855000", "111031.858000", "111031.861000", "111031.864000", "111031.867000", "111031.870000", "111031.873000", "111031.876000", "111031.878000", "111031.892000", "111031.902000", "111031.904000", "111031.907000", "111031.910000", "111031.913000", "111051.841000", "111051.844000", "111051.847000", "111051.850000", "111051.853000", "111051.856000", "111051.859000", "111051.862000", "111051.865000", "111051.868000", "111051.871000", "111051.874000", "111051.876000", "111051.879000", "111051.882000", "111051.885000", "111051.888000", "111051.891000", "111051.894000", "111051.896000", "111111.841000", "111111.844000", "111111.847000", "111111.850000", "111111.853000", "111111.855000", "111111.858000", "111111.861000", "111111.864000", "111111.867000", "111111.870000", "111111.873000", "111111.875000", "111111.878000", "111111.881000", "111111.884000", "111111.887000", "111111.890000", "111111.893000", "111111.895000", "111131.841000", "111131.844000", "111131.847000", "111131.850000", "111131.853000", "111131.855000", "111131.858000", "111131.861000", "111131.864000", "111131.867000", "111131.870000", "111131.873000", "111131.876000", "111131.879000", "111131.881000", "111131.884000", "111131.887000", "111131.890000", "111131.893000", "111131.896000", "111211.841000", "111211.844000", "111211.847000", "111211.850000", "111211.853000", "111211.856000", "111211.858000", "111211.861000", "111211.864000", "111211.867000", "111211.870000", "111211.873000", "111211.876000", "111211.879000", "111211.881000", "111211.884000", "111211.887000", "111211.890000", "111211.893000", "111211.896000", "111211.898000", "111211.901000", "111211.904000", "111211.907000", "111211.910000", "111211.913000", "111211.916000", "111211.919000", "111211.921000", "111251.841000", "111251.844000", "111251.847000", "111251.850000", "111251.853000", "111251.855000", "111251.859000", "111251.861000", "111251.864000", "111251.867000", "111251.870000", "111251.873000", "111251.876000", "111251.879000", "111251.882000", "111251.885000", "111251.887000", "111251.890000", "111251.893000", "111251.896000", "111251.899000", "111251.902000", "111251.905000", "111251.908000", "111251.910000", "111251.913000", "111251.916000", "111331.841000", "111331.844000", "111331.847000", "111331.851000", "111331.853000", "111331.856000", "111331.859000", "111331.862000", "111331.865000", "111331.868000", "111331.871000", "111331.874000", "111331.877000", "111331.880000", "111331.883000", "111331.885000", "111331.888000", "111331.891000", "111331.894000", "111331.897000", "111331.900000", "111331.903000", "111331.906000", "111331.908000", "111331.911000", "111331.914000", "111411.841000", "111411.844000", "111411.847000", "111411.850000", "111411.853000", "111411.856000", "111411.858000", "111411.861000", "111411.864000", "111411.867000", "111411.870000", "111411.873000", "111411.876000", "111411.879000", "111411.882000", "111411.885000", "111411.887000", "111411.890000", "111411.893000", "111411.896000", "111411.899000", "111411.902000", "111411.905000", "111411.908000", "111411.911000", "111411.913000", "111411.916000", "111451.841000", "111451.844000", "111451.854000", "111451.857000", "111451.860000", "111451.863000", "111451.866000", "111451.868000", "111451.871000", "111451.874000", "111451.877000", "111451.880000", "111451.883000", "111451.886000", "111451.889000", "111451.891000", "111451.894000", "111451.897000", "111451.900000", "111451.903000", "111451.906000", "111451.909000", "111451.912000", "111451.915000", "111451.918000", "111451.920000", "111451.923000", "111531.841000", "111531.845000", "111531.848000", "111531.851000", "111531.853000", "111531.857000", "111531.859000", "111531.862000", "111531.865000", "111531.868000", "111531.871000", "111531.874000", "111531.877000", "111531.880000", "111531.883000", "111531.886000", "111531.889000", "111531.892000", "111531.895000", "111531.898000", "111531.901000", "111531.904000", "111531.906000", "111531.909000", "111531.912000", "111531.915000", "111531.918000", "111611.841000", "111611.844000", "111611.847000", "111611.850000", "111611.858000", "111611.861000", "111611.864000", "111611.867000", "111611.870000", "111611.873000", "111611.876000", "111611.879000", "111611.882000", "111611.885000", "111611.888000", "111611.891000", "111611.894000", "111611.897000", "111611.899000", "111611.902000", "111611.905000", "111611.908000", "111611.911000", "111611.914000", "111611.917000", "111611.920000", "111611.923000", "111651.841000", "111651.844000", "111651.847000", "111651.850000", "111651.853000", "111651.856000", "111651.858000", "111651.861000", "111651.864000", "111651.867000", "111651.870000", "111651.873000", "111651.876000", "111651.879000", "111651.882000", "111651.885000", "111651.888000", "111651.890000", "111651.893000", "111651.896000", "111651.899000", "111651.902000", "111651.905000", "111651.908000", "111651.911000", "111651.914000", "111651.916000", "111731.841000", "111731.844000", "111731.847000", "111731.850000", "111731.853000", "111731.856000", "111731.859000", "111731.861000", "111731.864000", "111731.867000", "111731.870000", "111731.873000", "111731.876000", "111731.879000", "111731.882000", "111731.885000", "111731.888000", "111731.890000", "111731.894000", "111731.896000", "111731.899000", "111731.902000", "111731.905000", "111731.908000", "111731.911000", "111731.914000", "111731.917000", "111811.841000", "111811.844000", "111811.847000", "111811.850000", "111811.853000", "111811.856000", "111811.859000", "111811.862000", "111811.864000", "111811.867000", "111811.870000", "111811.873000", "111811.876000", "111811.879000", "111811.882000", "111811.885000", "111811.888000", "111811.891000", "111811.894000", "111811.897000", "111811.900000", "111811.903000", "111811.905000", "111811.908000", "111811.911000", "111811.914000", "111851.841000", "111851.844000", "111851.847000", "111851.850000", "111851.853000", "111851.856000", "111851.859000", "111851.862000", "111851.865000", "111851.867000", "111851.870000", "111851.873000", "111851.876000", "111851.879000", "111851.882000", "111851.885000", "111851.888000", "111851.891000", "111851.904000", "111851.907000", "111851.910000", "111851.913000", "111851.916000", "111851.919000", "111851.922000", "111851.925000", "111851.928000", "111931.841000", "111931.844000", "111931.847000", "111931.850000", "111931.853000", "111931.856000", "111931.859000", "111931.862000", "111931.865000", "111931.868000", "111931.871000", "111931.873000", "111931.876000", "111931.879000", "111931.882000", "111931.885000", "111931.888000", "111931.891000", "111931.894000", "111931.897000", "111931.900000", "111931.902000", "111931.905000", "111931.908000", "111931.911000", "111931.914000", "111931.917000", "112011.841000", "112011.844000", "112011.847000", "112011.850000", "112011.853000", "112011.856000", "112011.859000", "112011.862000", "112011.864000", "112011.867000", "112011.870000", "112011.873000", "112011.876000", "112011.879000", "112011.882000", "112011.885000", "112011.888000", "112011.891000", "112011.894000", "112011.896000", "112011.899000", "112011.902000", "112011.905000", "112011.908000", "112011.911000", "112011.914000", "112011.917000", "112030.581000", "112030.584000", "112030.587000", "112030.590000", "112030.593000", "112030.596000", "112030.599000", "112030.602000", "112030.605000", "112030.608000", "112030.611000", "112030.613000", "112030.616000"],
