{
  "AcquisitionMatrixPE": 104,
  "AcquisitionNumber": 1,
  "AcquisitionTime": "10:56:30.427500",
  "BandwidthPerPixelPhaseEncode": 17.17,
  "BaseResolution": 104,
  "BodyPartExamined": "BRAIN",
  "CoilString": "HC1-7;NC1_2",
  "ConsistencyInfo": "N4_VE11C_LATEST_20160120",
  "ConversionSoftware": "dcm2niix",
  "ConversionSoftwareVersion": "v1.0.20190902",
  "DerivedVendorReportedEchoSpacing": 0.000560011,
  "DeviceSerialNumber": "167006",
  "DwellTime": 2.1e-06,
  "EchoTime": 0.037,
  "EchoTrainLength": 104,
  "EffectiveEchoSpacing": 0.000560011,
  "FlipAngle": 52,
  "ImageComments": "Unaliased_MB4_PE3_LB",
  "ImageOrientationPatientDICOM": [0.999143, 0.0411924, 0.0040284, -0.0366369, 0.925512, -0.376943],
  "ImageType": [
    "ORIGINAL",
    "PRIMARY",
    "M",
    "MB",
    "ND",
    "MOSAIC"
],
  "ImagingFrequency": 123.259,
  "InPlanePhaseEncodingDirectionDICOM": "COL",
  "InstitutionAddress": "Chemin_Queen-Mary_4565_Montreal_District_CA_H3W_1W5",
  "InstitutionName": "IUGM",
  "InstitutionalDepartmentName": "Department",
  "MRAcquisitionType": "2D",
  "MagneticFieldStrength": 3,
  "Manufacturer": "Siemens",
  "ManufacturersModelName": "Prisma_fit",
  "Modality": "MR",
  "MultibandAccelerationFactor": 4,
  "PartialFourier": 1,
  "PatientPosition": "HFS",
  "PercentPhaseFOV": 100,
  "PhaseEncodingDirection": "j",
  "PhaseEncodingSteps": 104,
  "PhaseResolution": 1,
  "PixelBandwidth": 2290,
  "ProcedureStepDescription": "video_friends",
  "ProtocolName": "func_task-friends-s04e01a",
  "PulseSequenceDetails": "%CustomerSeq%_cmrr_mbep2d_bold",
  "ReceiveCoilActiveElements": "HC1-7;NC1,2",
  "ReceiveCoilName": "HeadNeck_64",
  "ReconMatrixPE": 104,
  "RepetitionTime": 1.49,
  "SAR": 0.0400302,
  "ScanOptions": "FS",
  "ScanningSequence": "EP",
  "SequenceName": "epfid2d1_104",
  "SequenceVariant": "SK_SS",
  "SeriesDescription": "func_task-friends-s04e01a",
  "SeriesNumber": 28,
  "ShimSetting": [636, -7181, -8848, 643, 79, 28, 24, -2],
  "SliceThickness": 2,
  "SliceTiming": [0, 0.785, 0.0975, 0.8825, 0.1975, 0.98, 0.295, 1.0775, 0.3925, 1.1775, 0.49, 1.275, 0.5875, 1.3725, 0.6875, 0, 0.785, 0.0975, 0.8825, 0.1975, 0.98, 0.295, 1.0775, 0.3925, 1.1775, 0.49, 1.275, 0.5875, 1.3725, 0.6875, 0, 0.785, 0.0975, 0.8825, 0.1975, 0.98, 0.295, 1.0775, 0.3925, 1.1775, 0.49, 1.275, 0.5875, 1.3725, 0.6875, 0, 0.785, 0.0975, 0.8825, 0.1975, 0.98, 0.295, 1.0775, 0.3925, 1.1775, 0.49, 1.275, 0.5875, 1.3725, 0.6875],
  "SoftwareVersions": "syngo_MR_E11",
  "SpacingBetweenSlices": 2,
  "StationName": "MRC35049",
  "TaskName": "s04e01a",
  "TotalReadoutTime": 0.0576811,
  "TxRefAmp": 248.69,
  "WipMemBlock": "c5fedf33-d07f-4c76-939e-68e8257d549c||Sequence: R016 ve11c/master r/e634e98; Dec 19 2017 11:00:25 by eja",
  "dcmmeta_affine": [
    [-1.998286247253418, -0.07327386736869812, 0.03851103037595749, 106.07166290283203],
    [-0.08238475024700165, 1.8510230779647827, -0.7529451251029968, -62.720497131347656],
    [0.008056802675127983, 0.7538862824440002, 1.8524552583694458, -65.59620666503906],
    [0.0, 0.0, 0.0, 1.0]
],
  "dcmmeta_reorient_transform": [
    [0.0, -1.0, 0.0, 103.0],
    [1.0, 0.0, 0.0, 0.0],
    [0.0, 0.0, 1.0, 0.0],
    [0.0, 0.0, 0.0, 1.0]
],
  "dcmmeta_shape": [104, 104, 60, 468],
  "dcmmeta_slice_dim": 2,
  "dcmmeta_version": 0.6,
  "global": {
    "const": {
      "AcquisitionMatrix": [104, 0, 0, 104],
      "AngioFlag": "N",
      "BitsAllocated": 16,
      "BitsStored": 16,
      "BodyPartExamined": "BRAIN",
      "Columns": 832,
      "EchoNumbers": 1,
      "EchoTime": 37.0,
      "EchoTrainLength": 104,
      "FlipAngle": 52.0,
      "HighBit": 15,
      "ImageOrientationPatient": [0.99914311299936, 0.04119237465305, 0.00402840122005, -0.0366369332159, 0.92551153165811, -0.3769431520699],
      "ImagePositionPatient": [-799.22895230028, -831.69532079673, 283.53602111711],
      "ImageType": [
        "ORIGINAL",
        "PRIMARY",
        "M",
        "MB",
        "ND",
        "MOSAIC"
],
      "ImagedNucleus": "1H",
      "ImagingFrequency": 123.259027,
      "InPlanePhaseEncodingDirection": "COL",
      "MRAcquisitionType": "2D",
      "MagneticFieldStrength": 3.0,
      "Manufacturer": "SIEMENS",
      "ManufacturerModelName": "Prisma_fit",
      "Modality": "MR",
      "NumberOfAverages": 1.0,
      "NumberOfPhaseEncodingSteps": 104,
      "PercentPhaseFieldOfView": 100.0,
      "PercentSampling": 100.0,
      "PerformedProcedureStepStartTime": "091101.581000",
      "PhotometricInterpretation": "MONOCHROME2",
      "PixelBandwidth": 2290.0,
      "PixelRepresentation": 0,
      "PixelSpacing": [2.0, 2.0],
      "ProtocolName": "func_task-friends-s04e01a",
      "RepetitionTime": 1490.0,
      "Rows": 832,
      "SAR": 0.04003021174353,
      "SamplesPerPixel": 1,
      "ScanOptions": "FS",
      "ScanningSequence": "EP",
      "SequenceName": "epfid2d1_104",
      "SequenceVariant": [
        "SK",
        "SS"
],
      "SeriesDescription": "func_task-friends-s04e01a",
      "SeriesNumber": 28,
      "SeriesTime": "105822.096000",
      "SliceLocation": -35.102007991758,
      "SliceThickness": 2.0,
      "SmallestImagePixelValue": 0,
      "SoftwareVersions": "syngo MR E11",
      "SpacingBetweenSlices": 2.0000000195154,
      "SpecificCharacterSet": "ISO_IR 100",
      "StudyID": "1",
      "StudyTime": "091101.425000",
      "TransmitCoilName": "Body",
      "VariableFlipAngleFlag": "N",
      "WindowCenterWidthExplanation": "Algo1",
      "dBdt": 0.0},
    "slices": {}
  },
  "time": {
    "samples": {
      "AcquisitionNumber": [1, 2, 3, 4, 5, 6, 7, 8, 9, 10, 11, 12, 13, 14, 15, 16, 17, 18, 19, 20, 21, 22, 23, 24, 25, 26, 27, 28, 29, 30, 31, 32, 33, 34, 35, 36, 37, 38, 39, 40, 41, 42, 43, 44, 45, 46, 47, 48, 49, 50, 51, 52, 53, 54, 55, 56, 57, 58, 59, 60, 61, 62, 63, 64, 65, 66, 67, 68, 69, 70, 71, 72, 73, 74, 75, 76, 77, 78, 79, 80, 81, 82, 83, 84, 85, 86, 87, 88, 89, 90, 91, 92, 93, 94, 95, 96, 97, 98, 99, 100, 101, 102, 103, 104, 105, 106, 107, 108, 109, 110, 111, 112, 113, 114, 115, 116, 117, 118, 119, 120, 121, 122, 123, 124, 125, 126, 127, 128, 129, 130, 131, 132, 133, 134, 135, 136, 137, 138, 139, 140, 141, 142, 143, 144, 145, 146, 147, 148, 149, 150, 151, 152, 153, 154, 155, 156, 157, 158, 159, 160, 161, 162, 163, 164, 165, 166, 167, 168, 169, 170, 171, 172, 173, 174, 175, 176, 177, 178, 179, 180, 181, 182, 183, 184, 185, 186, 187, 188, 189, 190, 191, 192, 193, 194, 195, 196, 197, 198, 199, 200, 201, 202, 203, 204, 205, 206, 207, 208, 209, 210, 211, 212, 213, 214, 215, 216, 217, 218, 219, 220, 221, 222, 223, 224, 225, 226, 227, 228, 229, 230, 231, 232, 233, 234, 235, 236, 237, 238, 239, 240, 241, 242, 243, 244, 245, 246, 247, 248, 249, 250, 251, 252, 253, 254, 255, 256, 257, 258, 259, 260, 261, 262, 263, 264, 265, 266, 267, 268, 269, 270, 271, 272, 273, 274, 275, 276, 277, 278, 279, 280, 281, 282, 283, 284, 285, 286, 287, 288, 289, 290, 291, 292, 293, 294, 295, 296, 297, 298, 299, 300, 301, 302, 303, 304, 305, 306, 307, 308, 309, 310, 311, 312, 313, 314, 315, 316, 317, 318, 319, 320, 321, 322, 323, 324, 325, 326, 327, 328, 329, 330, 331, 332, 333, 334, 335, 336, 337, 338, 339, 340, 341, 342, 343, 344, 345, 346, 347, 348, 349, 350, 351, 352, 353, 354, 355, 356, 357, 358, 359, 360, 361, 362, 363, 364, 365, 366, 367, 368, 369, 370, 371, 372, 373, 374, 375, 376, 377, 378, 379, 380, 381, 382, 383, 384, 385, 386, 387, 388, 389, 390, 391, 392, 393, 394, 395, 396, 397, 398, 399, 400, 401, 402, 403, 404, 405, 406, 407, 408, 409, 410, 411, 412, 413, 414, 415, 416, 417, 418, 419, 420, 421, 422, 423, 424, 425, 426, 427, 428, 429, 430, 431, 432, 433, 434, 435, 436, 437, 438, 439, 440, 441, 442, 443, 444, 445, 446, 447, 448, 449, 450, 451, 452, 453, 454, 455, 456, 457, 458, 459, 460, 461, 462, 463, 464, 465, 466, 467, 468],
      "AcquisitionTime": ["105630.427500", "105631.917500", "105633.407500", "105634.897500", "105636.387500", "105637.877500", "105639.367500", "105640.857500", "105642.347500", "105643.837500", "105645.327500", "105646.817500", "105648.307500", "105649.797500", "105651.287500", "105652.777500", "105654.267500", "105655.757500", "105657.247500", "105658.737500", "105700.227500", "105701.717500", "105703.207500", "105704.697500", "105706.187500", "105707.677500", "105709.167500", "105710.657500", "105712.147500", "105713.637500", "105715.127500", "105716.617500", "105718.107500", "105719.597500", "105721.087500", "105722.577500", "105724.067500", "105725.557500", "105727.047500", "105728.537500", "105730.027500", "105731.517500", "105733.007500", "105734.497500", "105735.987500", "105737.477500", "105738.967500", "105740.457500", "105741.947500", "105743.437500", "105744.927500", "105746.417500", "105747.907500", "105749.397500", "105750.887500", "105752.377500", "105753.867500", "105755.357500", "105756.847500", "105758.337500", "105759.827500", "105801.317500", "105802.807500", "105804.297500", "105805.787500", "105807.277500", "105808.767500", "105810.257500", "105811.747500", "105813.237500", "105814.727500", "105816.217500", "105817.707500", "105819.197500", "105820.687500", "105822.177500", "105823.667500", "105825.157500", "105826.647500", "105828.137500", "105829.627500", "105831.117500", "105832.607500", "105834.097500", "105835.587500", "105837.077500", "105838.567500", "105840.057500", "105841.547500", "105843.037500", "105844.527500", "105846.017500", "105847.507500", "105848.997500", "105850.487500", "105851.977500", "105853.467500", "105854.957500", "105856.447500", "105857.937500", "105859.427500", "105900.917500", "105902.407500", "105903.897500", "105905.387500", "105906.877500", "105908.367500", "105909.857500", "105911.347500", "105912.837500", "105914.327500", "105915.817500", "105917.307500", "105918.797500", "105920.287500", "105921.777500", "105923.267500", "105924.757500", "105926.247500", "105927.737500", "105929.227500", "105930.717500", "105932.207500", "105933.697500", "105935.187500", "105936.677500", "105938.167500", "105939.657500", "105941.147500", "105942.637500", "105944.127500", "105945.617500", "105947.107500", "105948.597500", "105950.087500", "105951.577500", "105953.067500", "105954.557500", "105956.047500", "105957.537500", "105959.027500", "110000.517500", "110002.007500", "110003.497500", "110004.987500", "110006.477500", "110007.967500", "110009.457500", "110010.947500", "110012.437500", "110013.927500", "110015.417500", "110016.907500", "110018.397500", "110019.887500", "110021.377500", "110022.867500", "110024.357500", "110025.847500", "110027.337500", "110028.827500", "110030.317500", "110031.807500", "110033.297500", "110034.787500", "110036.277500", "110037.767500", "110039.257500", "110040.747500", "110042.237500", "110043.727500", "110045.217500", "110046.707500", "110048.197500", "110049.687500", "110051.177500", "110052.667500", "110054.157500", "110055.647500", "110057.137500", "110058.627500", "110100.117500", "110101.607500", "110103.097500", "110104.587500", "110106.077500", "110107.567500", "110109.057500", "110110.547500", "110112.037500", "110113.527500", "110115.017500", "110116.507500", "110117.997500", "110119.487500", "110120.977500", "110122.467500", "110123.957500", "110125.447500", "110126.937500", "110128.427500", "110129.917500", "110131.407500", "110132.897500", "110134.387500", "110135.877500", "110137.367500", "110138.857500", "110140.347500", "110141.837500", "110143.327500", "110144.817500", "110146.307500", "110147.797500", "110149.287500", "110150.777500", "110152.267500", "110153.757500", "110155.247500", "110156.737500", "110158.227500", "110159.717500", "110201.207500", "110202.697500", "110204.187500", "110205.677500", "110207.167500", "110208.657500", "110210.147500", "110211.637500", "110213.127500", "110214.617500", "110216.107500", "110217.597500", "110219.087500", "110220.577500", "110222.067500", "110223.557500", "110225.047500", "110226.537500", "110228.027500", "110229.517500", "110231.007500", "110232.497500", "110233.987500", "110235.477500", "110236.967500", "110238.457500", "110239.947500", "110241.437500", "110242.927500", "110244.417500", "110245.907500", "110247.397500", "110248.887500", "110250.377500", "110251.867500", "110253.357500", "110254.847500", "110256.337500", "110257.827500", "110259.317500", "110300.807500", "110302.297500", "110303.787500", "110305.277500", "110306.767500", "110308.257500", "110309.747500", "110311.237500", "110312.727500", "110314.217500", "110315.707500", "110317.197500", "110318.687500", "110320.177500", "110321.667500", "110323.157500", "110324.647500", "110326.137500", "110327.627500", "110329.117500", "110330.607500", "110332.097500", "110333.587500", "110335.077500", "110336.567500", "110338.057500", "110339.547500", "110341.037500", "110342.527500", "110344.017500", "110345.507500", "110346.997500", "110348.487500", "110349.977500", "110351.467500", "110352.957500", "110354.447500", "110355.937500", "110357.427500", "110358.917500", "110400.407500", "110401.897500", "110403.387500", "110404.877500", "110406.367500", "110407.857500", "110409.347500", "110410.837500", "110412.327500", "110413.817500", "110415.307500", "110416.797500", "110418.287500", "110419.777500", "110421.267500", "110422.757500", "110424.247500", "110425.737500", "110427.227500", "110428.717500", "110430.207500", "110431.697500", "110433.187500", "110434.677500", "110436.167500", "110437.657500", "110439.147500", "110440.637500", "110442.127500", "110443.617500", "110445.107500", "110446.597500", "110448.087500", "110449.577500", "110451.067500", "110452.557500", "110454.047500", "110455.537500", "110457.027500", "110458.517500", "110500.007500", "110501.497500", "110502.987500", "110504.477500", "110505.967500", "110507.457500", "110508.947500", "110510.437500", "110511.927500", "110513.417500", "110514.907500", "110516.397500", "110517.887500", "110519.377500", "110520.867500", "110522.357500", "110523.847500", "110525.337500", "110526.827500", "110528.317500", "110529.807500", "110531.297500", "110532.787500", "110534.277500", "110535.767500", "110537.257500", "110538.747500", "110540.237500", "110541.727500", "110543.217500", "110544.707500", "110546.197500", "110547.687500", "110549.177500", "110550.667500", "110552.157500", "110553.647500", "110555.137500", "110556.627500", "110558.117500", "110559.607500", "110601.097500", "110602.587500", "110604.077500", "110605.567500", "110607.057500", "110608.547500", "110610.037500", "110611.527500", "110613.017500", "110614.507500", "110615.997500", "110617.487500", "110618.977500", "110620.467500", "110621.957500", "110623.447500", "110624.937500", "110626.427500", "110627.917500", "110629.407500", "110630.897500", "110632.387500", "110633.877500", "110635.367500", "110636.857500", "110638.347500", "110639.837500", "110641.327500", "110642.817500", "110644.307500", "110645.797500", "110647.287500", "110648.777500", "110650.267500", "110651.757500", "110653.247500", "110654.737500", "110656.227500", "110657.717500", "110659.207500", "110700.697500", "110702.187500", "110703.677500", "110705.167500", "110706.657500", "110708.147500", "110709.637500", "110711.127500", "110712.617500", "110714.107500", "110715.597500", "110717.087500", "110718.577500", "110720.067500", "110721.557500", "110723.047500", "110724.537500", "110726.027500", "110727.517500", "110729.007500", "110730.497500", "110731.987500", "110733.477500", "110734.967500", "110736.457500", "110737.947500", "110739.437500", "110740.927500", "110742.417500", "110743.907500", "110745.397500", "110746.887500", "110748.377500", "110749.867500", "110751.357500", "110752.847500", "110754.337500", "110755.827500", "110757.317500", "110758.807500", "110800.297500", "110801.787500", "110803.277500", "110804.767500", "110806.257500"],
      "ContentTime": ["105822.099000", "105822.102000", "105822.105000", "105822.108000", "105822.111000", "105822.114000", "105822.117000", "105822.120000", "105822.123000", "105822.125000", "105822.128000", "105822.131000", "105822.134000", "105822.137000", "105822.140000", "105822.143000", "105822.146000", "105822.149000", "105822.151000", "105822.154000", "105822.157000", "105822.160000", "105822.163000", "105822.166000", "105822.169000", "105822.184000", "105822.187000", "105822.190000", "105822.193000", "105822.196000", "105822.199000", "105822.202000", "105822.204000", "105822.207000", "105822.210000", "105822.213000", "105822.216000", "105822.219000", "105822.222000", "105842.069000", "105842.072000", "105842.075000", "105842.088000", "105842.090000", "105842.093000", "105842.096000", "105842.099000", "105842.102000", "105842.105000", "105842.107000", "105842.110000", "105842.113000", "105842.116000", "105842.119000", "105842.122000", "105842.125000", "105842.127000", "105842.130000", "105842.133000", "105902.069000", "105902.072000", "105902.075000", "105902.078000", "105902.081000", "105902.083000", "105902.086000", "105902.089000", "105902.092000", "105902.095000", "105902.098000", "105902.101000", "105902.103000", "105902.106000", "105902.109000", "105902.112000", "105902.115000", "105902.118000", "105902.121000", "105902.124000", "105922.069000", "105922.072000", "105922.075000", "105922.078000", "105922.081000", "105922.083000", "105922.086000", "105922.089000", "105922.092000", "105922.095000", "105922.098000", "105922.101000", "105922.103000", "105922.106000", "105922.109000", "105922.112000", "105922.115000", "105922.118000", "105922.120000", "105922.123000", "105942.068000", "105942.071000", "105942.074000", "105942.077000", "105942.080000", "105942.083000", "105942.085000", "105942.088000", "105942.091000", "105942.094000", "105942.097000", "105942.100000", "105942.103000", "105942.105000", "105942.108000", "105942.111000", "105942.114000", "105942.117000", "105942.120000", "105942.123000", "110002.068000", "110002.071000", "110002.074000", "110002.077000", "110002.080000", "110002.082000", "110002.085000", "110002.088000", "110002.091000", "110002.094000", "110002.097000", "110002.100000", "110002.103000", "110002.105000", "110002.108000", "110002.111000", "110002.114000", "110002.117000", "110002.120000", "110002.123000", "110042.068000", "110042.071000", "110042.074000", "110042.077000", "110042.080000", "110042.083000", "110042.086000", "110042.088000", "110042.091000", "110042.094000", "110042.097000", "110042.100000", "110042.103000", "110042.106000", "110042.109000", "110042.112000", "110042.114000", "110042.117000", "110042.120000", "110042.123000", "110042.126000", "110042.129000", "110042.132000", "110042.135000", "110042.137000", "110042.140000", "110042.143000", "110042.146000", "110042.149000", "110122.069000", "110122.072000", "110122.075000", "110122.078000", "110122.081000", "110122.084000", "110122.087000", "110122.089000", "110122.092000", "110122.095000", "110122.098000", "110122.101000", "110122.104000", "110122.107000", "110122.110000", "110122.112000", "110122.115000", "110122.118000", "110122.121000", "110122.124000", "110122.127000", "110122.130000", "110122.133000", "110122.135000", "110122.138000", "110122.141000", "110122.144000", "110202.068000", "110202.076000", "110202.079000", "110202.082000", "110202.085000", "110202.088000", "110202.091000", "110202.094000", "110202.096000", "110202.099000", "110202.102000", "110202.105000", "110202.108000", "110202.111000", "110202.114000", "110202.117000", "110202.120000", "110202.123000", "110202.125000", "110202.128000", "110202.131000", "110202.134000", "110202.137000", "110202.140000", "110202.143000", "110202.146000", "110202.148000", "110242.068000", "110242.071000", "110242.074000", "110242.077000", "110242.080000", "110242.099000", "110242.102000", "110242.105000", "110242.108000", "110242.111000", "110242.114000", "110242.117000", "110242.120000", "110242.123000", "110242.126000", "110242.128000", "110242.131000", "110242.134000", "110242.137000", "110242.140000", "110242.143000", "110242.146000", "110242.149000", "110242.152000", "110242.154000", "110242.157000", "110322.069000", "110322.072000", "110322.075000", "110322.078000", "110322.081000", "110322.083000", "110322.087000", "110322.090000", "110322.092000", "110322.095000", "110322.098000", "110322.101000", "110322.104000", "110322.107000", "110322.110000", "110322.113000", "110322.115000", "110322.118000", "110322.121000", "110322.124000", "110322.127000", "110322.130000", "110322.133000", "110322.136000", "110322.139000", "110322.141000", "110322.144000", "110402.069000", "110402.072000", "110402.075000", "110402.078000", "110402.081000", "110402.084000", "110402.087000", "110402.089000", "110402.092000", "110402.095000", "110402.098000", "110402.101000", "110402.104000", "110402.107000", "110402.110000", "110402.112000", "110402.115000", "110402.118000", "110402.121000", "110402.124000", "110402.127000", "110402.130000", "110402.133000", "110402.136000", "110402.139000", "110402.142000", "110402.145000", "110442.068000", "110442.071000", "110442.074000", "110442.077000", "110442.080000", "110442.083000", "110442.086000", "110442.088000", "110442.091000", "110442.094000", "110442.097000", "110442.100000", "110442.103000", "110442.106000", "110442.108000", "110442.111000", "110442.114000", "110442.117000", "110442.120000", "110442.123000", "110442.126000", "110442.129000", "110442.132000", "110442.134000", "110442.137000", "110442.140000", "110442.143000", "110522.068000", "110522.071000", "110522.074000", "110522.077000", "110522.080000", "110522.082000", "110522.085000", "110522.088000", "110522.091000", "110522.094000", "110522.097000", "110522.100000", "110522.103000", "110522.106000", "110522.108000", "110522.111000", "110522.114000", "110522.117000", "110522.120000", "110522.123000", "110522.126000", "110522.129000", "110522.132000", "110522.135000", "110522.137000", "110522.140000", "110522.143000", "110542.069000", "110542.072000", "110542.075000", "110542.078000", "110542.081000", "110542.084000", "110542.087000", "110542.090000", "110542.092000", "110542.095000", "110542.098000", "110542.101000", "110542.104000", "110622.069000", "110622.072000", "110622.075000", "110622.078000", "110622.081000", "110622.084000", "110622.087000", "110622.090000", "110622.093000", "110622.095000", "110622.098000", "110622.101000", "110622.104000", "110622.107000", "110622.110000", "110622.113000", "110622.116000", "110622.118000", "110622.121000", "110622.124000", "110622.127000", "110622.130000", "110622.133000", "110622.136000", "110622.139000", "110622.141000", "110622.144000", "110702.068000", "110702.071000", "110702.074000", "110702.077000", "110702.080000", "110702.083000", "110702.086000", "110702.089000", "110702.091000", "110702.094000", "110702.097000", "110702.100000", "110702.103000", "110702.106000", "110702.113000", "110702.116000", "110702.119000", "110702.122000", "110702.125000", "110702.135000", "110702.138000", "110702.141000", "110702.144000", "110702.146000", "110702.149000", "110702.152000", "110702.155000", "110742.068000", "110742.071000", "110742.074000", "110742.077000", "110742.080000", "110742.083000", "110742.086000", "110742.089000", "110742.092000", "110742.095000", "110742.098000", "110742.101000", "110742.103000", "110742.106000", "110742.109000", "110742.112000", "110742.115000", "110742.118000", "110742.121000", "110742.124000", "110742.127000", "110742.130000", "110742.133000", "110742.136000", "110742.139000", "110742.142000", "110742.144000", "110808.593000", "110808.597000", "110808.600000", "110808.603000", "110808.606000", "110808.609000", "110808.612000", "110808.615000", "110808.618000", "110808.622000", "110808.625000", "110808.628000", "110808.630000", "110808.633000", "110808.636000", "110808.639000", "110808.642000", "110808.645000"],
