{
  "AcquisitionMatrixPE": 104,
  "AcquisitionNumber": 1,
  "AcquisitionTime": "09:53:33.095000",
  "BandwidthPerPixelPhaseEncode": 17.17,
  "BaseResolution": 104,
  "BodyPartExamined": "BRAIN",
  "CoilString": "HC1-7;NC1_2",
  "ConsistencyInfo": "N4_VE11C_LATEST_20160120",
  "ConversionSoftware": "dcm2niix",
  "ConversionSoftwareVersion": "v1.0.20190902",
  "DerivedVendorReportedEchoSpacing": 0.000560011,
  "DeviceSerialNumber": "167006",
  "DwellTime": 2.1e-06,
  "EchoTime": 0.037,
  "EchoTrainLength": 104,
  "EffectiveEchoSpacing": 0.000560011,
  "FlipAngle": 52,
  "ImageComments": "Unaliased_MB4_PE3_LB",
  "ImageOrientationPatientDICOM": [0.999039, 0.0384601, 0.0210051, -0.0282547, 0.931709, -0.362105],
  "ImageType": [
    "ORIGINAL",
    "PRIMARY",
    "M",
    "MB",
    "ND",
    "MOSAIC"
],
  "ImagingFrequency": 123.259,
  "InPlanePhaseEncodingDirectionDICOM": "COL",
  "InstitutionAddress": "Chemin_Queen-Mary_4565_Montreal_District_CA_H3W_1W5",
  "InstitutionName": "IUGM",
  "InstitutionalDepartmentName": "Department",
  "MRAcquisitionType": "2D",
  "MagneticFieldStrength": 3,
  "Manufacturer": "Siemens",
  "ManufacturersModelName": "Prisma_fit",
  "Modality": "MR",
  "MultibandAccelerationFactor": 4,
  "PartialFourier": 1,
  "PatientPosition": "HFS",
  "PercentPhaseFOV": 100,
  "PhaseEncodingDirection": "j",
  "PhaseEncodingSteps": 104,
  "PhaseResolution": 1,
  "PixelBandwidth": 2290,
  "ProcedureStepDescription": "video_friends",
  "ProtocolName": "func_task-friends-s03e24a",
  "PulseSequenceDetails": "%CustomerSeq%_cmrr_mbep2d_bold",
  "ReceiveCoilActiveElements": "HC1-7;NC1,2",
  "ReceiveCoilName": "HeadNeck_64",
  "ReconMatrixPE": 104,
  "RepetitionTime": 1.49,
  "SAR": 0.0375887,
  "ScanOptions": "FS",
  "ScanningSequence": "EP",
  "SequenceName": "epfid2d1_104",
  "SequenceVariant": "SK_SS",
  "SeriesDescription": "func_task-friends-s03e24a",
  "SeriesNumber": 13,
  "ShimSetting": [629, -7182, -8855, 637, 63, 39, 41, -12],
  "SliceThickness": 2,
  "SliceTiming": [0, 0.785, 0.1, 0.8825, 0.1975, 0.98, 0.295, 1.08, 0.3925, 1.1775, 0.49, 1.275, 0.59, 1.3725, 0.6875, 0, 0.785, 0.1, 0.8825, 0.1975, 0.98, 0.295, 1.08, 0.3925, 1.1775, 0.49, 1.275, 0.59, 1.3725, 0.6875, 0, 0.785, 0.1, 0.8825, 0.1975, 0.98, 0.295, 1.08, 0.3925, 1.1775, 0.49, 1.275, 0.59, 1.3725, 0.6875, 0, 0.785, 0.1, 0.8825, 0.1975, 0.98, 0.295, 1.08, 0.3925, 1.1775, 0.49, 1.275, 0.59, 1.3725, 0.6875],
  "SoftwareVersions": "syngo_MR_E11",
  "SpacingBetweenSlices": 2,
  "StationName": "MRC35049",
  "TaskName": "s03e24a",
  "TotalReadoutTime": 0.0576811,
  "TxRefAmp": 244.358,
  "WipMemBlock": "2f51befe-c19a-437d-bd59-f9be1e6d4e2e||Sequence: R016 ve11c/master r/e634e98; Dec 19 2017 11:00:25 by eja",
  "dcmmeta_affine": [
    [-1.99807870388031, -0.05650947988033295, 0.06699442118406296, 104.7520523071289],
    [-0.07692024111747742, 1.8634178638458252, -0.722327470779419, -64.12623596191406],
    [0.04201012849807739, 0.7242102026939392, 1.863801121711731, -69.46588134765625],
    [0.0, 0.0, 0.0, 1.0]
],
  "dcmmeta_reorient_transform": [
    [0.0, -1.0, 0.0, 103.0],
    [1.0, 0.0, 0.0, 0.0],
    [0.0, 0.0, 1.0, 0.0],
    [0.0, 0.0, 0.0, 1.0]
],
  "dcmmeta_shape": [104, 104, 60, 454],
  "dcmmeta_slice_dim": 2,
  "dcmmeta_version": 0.6,
  "global": {
    "const": {
      "AcquisitionMatrix": [104, 0, 0, 104],
      "AngioFlag": "N",
      "BitsAllocated": 16,
      "BitsStored": 16,
      "BodyPartExamined": "BRAIN",
      "Columns": 832,
      "EchoNumbers": 1,
      "EchoTime": 37.0,
      "EchoTrainLength": 104,
      "FlipAngle": 52.0,
      "HighBit": 15,
      "ImageOrientationPatient": [0.99903934176732, 0.03846012048722, 0.02100506446625, -0.028254740759, 0.93170895069317, -0.3621050963779],
      "ImagePositionPatient": [-805.66276517933, -834.08889132792, 253.44858882469],
      "ImageType": [
        "ORIGINAL",
        "PRIMARY",
        "M",
        "MB",
        "ND",
        "MOSAIC"
],
      "ImagedNucleus": "1H",
      "ImagingFrequency": 123.259034,
      "InPlanePhaseEncodingDirection": "COL",
      "MRAcquisitionType": "2D",
      "MagneticFieldStrength": 3.0,
      "Manufacturer": "SIEMENS",
      "ManufacturerModelName": "Prisma_fit",
      "Modality": "MR",
      "NumberOfAverages": 1.0,
      "NumberOfPhaseEncodingSteps": 104,
      "PercentPhaseFieldOfView": 100.0,
      "PercentSampling": 100.0,
      "PerformedProcedureStepStartTime": "091101.581000",
      "PhotometricInterpretation": "MONOCHROME2",
      "PixelBandwidth": 2290.0,
      "PixelRepresentation": 0,
      "PixelSpacing": [2.0, 2.0],
      "ProtocolName": "func_task-friends-s03e24a",
      "RepetitionTime": 1490.0,
      "Rows": 832,
      "SAR": 0.03758869105495,
      "SamplesPerPixel": 1,
      "ScanOptions": "FS",
      "ScanningSequence": "EP",
      "SequenceName": "epfid2d1_104",
      "SequenceVariant": [
        "SK",
        "SS"
],
      "SeriesDescription": "func_task-friends-s03e24a",
      "SeriesNumber": 13,
      "SeriesTime": "095446.346000",
      "SliceLocation": -38.066324305515,
      "SliceThickness": 2.0,
      "SmallestImagePixelValue": 0,
      "SoftwareVersions": "syngo MR E11",
      "SpacingBetweenSlices": 1.9999999879822,
      "SpecificCharacterSet": "ISO_IR 100",
      "StudyID": "1",
      "StudyTime": "091101.425000",
      "TransmitCoilName": "Body",
      "VariableFlipAngleFlag": "N",
      "WindowCenterWidthExplanation": "Algo1",
      "dBdt": 0.0},
    "slices": {}
  },
  "time": {
    "samples": {
      "AcquisitionNumber": [1, 2, 3, 4, 5, 6, 7, 8, 9, 10, 11, 12, 13, 14, 15, 16, 17, 18, 19, 20, 21, 22, 23, 24, 25, 26, 27, 28, 29, 30, 31, 32, 33, 34, 35, 36, 37, 38, 39, 40, 41, 42, 43, 44, 45, 46, 47, 48, 49, 50, 51, 52, 53, 54, 55, 56, 57, 58, 59, 60, 61, 62, 63, 64, 65, 66, 67, 68, 69, 70, 71, 72, 73, 74, 75, 76, 77, 78, 79, 80, 81, 82, 83, 84, 85, 86, 87, 88, 89, 90, 91, 92, 93, 94, 95, 96, 97, 98, 99, 100, 101, 102, 103, 104, 105, 106, 107, 108, 109, 110, 111, 112, 113, 114, 115, 116, 117, 118, 119, 120, 121, 122, 123, 124, 125, 126, 127, 128, 129, 130, 131, 132, 133, 134, 135, 136, 137, 138, 139, 140, 141, 142, 143, 144, 145, 146, 147, 148, 149, 150, 151, 152, 153, 154, 155, 156, 157, 158, 159, 160, 161, 162, 163, 164, 165, 166, 167, 168, 169, 170, 171, 172, 173, 174, 175, 176, 177, 178, 179, 180, 181, 182, 183, 184, 185, 186, 187, 188, 189, 190, 191, 192, 193, 194, 195, 196, 197, 198, 199, 200, 201, 202, 203, 204, 205, 206, 207, 208, 209, 210, 211, 212, 213, 214, 215, 216, 217, 218, 219, 220, 221, 222, 223, 224, 225, 226, 227, 228, 229, 230, 231, 232, 233, 234, 235, 236, 237, 238, 239, 240, 241, 242, 243, 244, 245, 246, 247, 248, 249, 250, 251, 252, 253, 254, 255, 256, 257, 258, 259, 260, 261, 262, 263, 264, 265, 266, 267, 268, 269, 270, 271, 272, 273, 274, 275, 276, 277, 278, 279, 280, 281, 282, 283, 284, 285, 286, 287, 288, 289, 290, 291, 292, 293, 294, 295, 296, 297, 298, 299, 300, 301, 302, 303, 304, 305, 306, 307, 308, 309, 310, 311, 312, 313, 314, 315, 316, 317, 318, 319, 320, 321, 322, 323, 324, 325, 326, 327, 328, 329, 330, 331, 332, 333, 334, 335, 336, 337, 338, 339, 340, 341, 342, 343, 344, 345, 346, 347, 348, 349, 350, 351, 352, 353, 354, 355, 356, 357, 358, 359, 360, 361, 362, 363, 364, 365, 366, 367, 368, 369, 370, 371, 372, 373, 374, 375, 376, 377, 378, 379, 380, 381, 382, 383, 384, 385, 386, 387, 388, 389, 390, 391, 392, 393, 394, 395, 396, 397, 398, 399, 400, 401, 402, 403, 404, 405, 406, 407, 408, 409, 410, 411, 412, 413, 414, 415, 416, 417, 418, 419, 420, 421, 422, 423, 424, 425, 426, 427, 428, 429, 430, 431, 432, 433, 434, 435, 436, 437, 438, 439, 440, 441, 442, 443, 444, 445, 446, 447, 448, 449, 450, 451, 452, 453, 454],
      "AcquisitionTime": ["095333.095000", "095334.585000", "095336.075000", "095337.565000", "095339.055000", "095340.545000", "095342.035000", "095343.525000", "095345.015000", "095346.505000", "095347.995000", "095349.485000", "095350.975000", "095352.465000", "095353.955000", "095355.445000", "095356.935000", "095358.425000", "095359.915000", "095401.405000", "095402.895000", "095404.385000", "095405.875000", "095407.365000", "095408.855000", "095410.345000", "095411.835000", "095413.325000", "095414.815000", "095416.305000", "095417.795000", "095419.285000", "095420.775000", "095422.265000", "095423.755000", "095425.245000", "095426.735000", "095428.225000", "095429.715000", "095431.205000", "095432.695000", "095434.185000", "095435.675000", "095437.165000", "095438.655000", "095440.145000", "095441.635000", "095443.125000", "095444.615000", "095446.105000", "095447.595000", "095449.085000", "095450.575000", "095452.065000", "095453.555000", "095455.045000", "095456.535000", "095458.025000", "095459.515000", "095501.005000", "095502.495000", "095503.985000", "095505.475000", "095506.965000", "095508.455000", "095509.945000", "095511.435000", "095512.925000", "095514.415000", "095515.905000", "095517.395000", "095518.885000", "095520.375000", "095521.865000", "095523.355000", "095524.845000", "095526.335000", "095527.825000", "095529.315000", "095530.805000", "095532.295000", "095533.785000", "095535.275000", "095536.765000", "095538.255000", "095539.745000", "095541.235000", "095542.725000", "095544.215000", "095545.705000", "095547.195000", "095548.685000", "095550.175000", "095551.665000", "095553.155000", "095554.645000", "095556.135000", "095557.625000", "095559.115000", "095600.605000", "095602.095000", "095603.585000", "095605.075000", "095606.565000", "095608.055000", "095609.545000", "095611.035000", "095612.525000", "095614.015000", "095615.505000", "095616.995000", "095618.485000", "095619.975000", "095621.465000", "095622.955000", "095624.445000", "095625.935000", "095627.425000", "095628.915000", "095630.405000", "095631.895000", "095633.385000", "095634.875000", "095636.365000", "095637.855000", "095639.345000", "095640.835000", "095642.325000", "095643.815000", "095645.305000", "095646.795000", "095648.285000", "095649.775000", "095651.265000", "095652.755000", "095654.245000", "095655.735000", "095657.225000", "095658.715000", "095700.205000", "095701.695000", "095703.185000", "095704.675000", "095706.165000", "095707.655000", "095709.145000", "095710.635000", "095712.125000", "095713.615000", "095715.105000", "095716.595000", "095718.085000", "095719.575000", "095721.065000", "095722.555000", "095724.045000", "095725.535000", "095727.025000", "095728.515000", "095730.005000", "095731.495000", "095732.985000", "095734.475000", "095735.965000", "095737.455000", "095738.945000", "095740.435000", "095741.925000", "095743.415000", "095744.905000", "095746.395000", "095747.885000", "095749.375000", "095750.865000", "095752.355000", "095753.845000", "095755.335000", "095756.825000", "095758.315000", "095759.805000", "095801.295000", "095802.785000", "095804.275000", "095805.765000", "095807.255000", "095808.745000", "095810.235000", "095811.725000", "095813.215000", "095814.705000", "095816.195000", "095817.685000", "095819.175000", "095820.665000", "095822.155000", "095823.645000", "095825.135000", "095826.625000", "095828.115000", "095829.605000", "095831.095000", "095832.585000", "095834.075000", "095835.565000", "095837.055000", "095838.545000", "095840.035000", "095841.525000", "095843.015000", "095844.505000", "095845.995000", "095847.485000", "095848.975000", "095850.465000", "095851.955000", "095853.445000", "095854.935000", "095856.425000", "095857.915000", "095859.405000", "095900.895000", "095902.385000", "095903.875000", "095905.365000", "095906.855000", "095908.345000", "095909.835000", "095911.325000", "095912.815000", "095914.305000", "095915.795000", "095917.285000", "095918.775000", "095920.265000", "095921.755000", "095923.245000", "095924.735000", "095926.225000", "095927.715000", "095929.205000", "095930.695000", "095932.185000", "095933.675000", "095935.165000", "095936.655000", "095938.145000", "095939.635000", "095941.125000", "095942.615000", "095944.105000", "095945.595000", "095947.085000", "095948.575000", "095950.065000", "095951.555000", "095953.045000", "095954.535000", "095956.025000", "095957.515000", "095959.005000", "100000.495000", "100001.985000", "100003.475000", "100004.965000", "100006.455000", "100007.945000", "100009.435000", "100010.925000", "100012.415000", "100013.905000", "100015.395000", "100016.885000", "100018.375000", "100019.865000", "100021.355000", "100022.845000", "100024.335000", "100025.825000", "100027.315000", "100028.805000", "100030.295000", "100031.785000", "100033.275000", "100034.765000", "100036.255000", "100037.745000", "100039.235000", "100040.725000", "100042.215000", "100043.705000", "100045.195000", "100046.685000", "100048.175000", "100049.665000", "100051.155000", "100052.645000", "100054.135000", "100055.625000", "100057.115000", "100058.605000", "100100.095000", "100101.585000", "100103.075000", "100104.565000", "100106.055000", "100107.545000", "100109.035000", "100110.525000", "100112.015000", "100113.505000", "100114.995000", "100116.485000", "100117.975000", "100119.465000", "100120.955000", "100122.445000", "100123.935000", "100125.425000", "100126.915000", "100128.405000", "100129.895000", "100131.385000", "100132.875000", "100134.365000", "100135.855000", "100137.345000", "100138.835000", "100140.325000", "100141.815000", "100143.305000", "100144.795000", "100146.285000", "100147.775000", "100149.265000", "100150.755000", "100152.245000", "100153.735000", "100155.225000", "100156.715000", "100158.205000", "100159.695000", "100201.185000", "100202.675000", "100204.165000", "100205.655000", "100207.145000", "100208.635000", "100210.125000", "100211.615000", "100213.105000", "100214.595000", "100216.085000", "100217.575000", "100219.065000", "100220.555000", "100222.045000", "100223.535000", "100225.025000", "100226.515000", "100228.005000", "100229.495000", "100230.985000", "100232.475000", "100233.965000", "100235.455000", "100236.945000", "100238.435000", "100239.925000", "100241.415000", "100242.905000", "100244.395000", "100245.885000", "100247.375000", "100248.865000", "100250.355000", "100251.845000", "100253.335000", "100254.825000", "100256.315000", "100257.805000", "100259.295000", "100300.785000", "100302.275000", "100303.765000", "100305.255000", "100306.745000", "100308.235000", "100309.725000", "100311.215000", "100312.705000", "100314.195000", "100315.685000", "100317.175000", "100318.665000", "100320.155000", "100321.645000", "100323.135000", "100324.625000", "100326.115000", "100327.605000", "100329.095000", "100330.585000", "100332.075000", "100333.565000", "100335.055000", "100336.545000", "100338.035000", "100339.525000", "100341.015000", "100342.505000", "100343.995000", "100345.485000", "100346.975000", "100348.465000", "100349.955000", "100351.445000", "100352.935000", "100354.425000", "100355.915000", "100357.405000", "100358.895000", "100400.385000", "100401.875000", "100403.365000", "100404.855000", "100406.345000", "100407.835000", "100409.325000", "100410.815000", "100412.305000", "100413.795000", "100415.285000", "100416.775000", "100418.265000", "100419.755000", "100421.245000", "100422.735000", "100424.225000", "100425.715000", "100427.205000", "100428.695000", "100430.185000", "100431.675000", "100433.165000", "100434.655000", "100436.145000", "100437.635000", "100439.125000", "100440.615000", "100442.105000", "100443.595000", "100445.085000", "100446.575000", "100448.065000"],
      "ContentTime": ["095446.349000", "095446.352000", "095446.355000", "095446.358000", "095446.360000", "095446.363000", "095446.366000", "095446.369000", "095446.372000", "095446.375000", "095446.378000", "095446.381000", "095446.384000", "095446.387000", "095446.389000", "095446.392000", "095446.395000", "095446.398000", "095446.401000", "095446.404000", "095506.315000", "095506.318000", "095506.321000", "095506.324000", "095506.327000", "095506.329000", "095506.332000", "095506.335000", "095506.338000", "095506.341000", "095506.344000", "095506.347000", "095506.350000", "095506.352000", "095506.355000", "095506.358000", "095506.361000", "095506.364000", "095506.367000", "095506.370000", "095526.315000", "095526.318000", "095526.321000", "095526.324000", "095526.326000", "095526.329000", "095526.332000", "095526.335000", "095526.338000", "095526.341000", "095526.344000", "095526.347000", "095526.351000", "095526.353000", "095526.356000", "095526.359000", "095526.362000", "095526.365000", "095526.368000", "095526.371000", "095546.316000", "095546.319000", "095546.322000", "095546.325000", "095546.328000", "095546.331000", "095546.333000", "095546.336000", "095546.339000", "095546.342000", "095546.345000", "095546.348000", "095546.351000", "095546.353000", "095546.356000", "095546.359000", "095546.362000", "095546.365000", "095546.368000", "095546.371000", "095546.374000", "095606.315000", "095606.318000", "095606.321000", "095606.324000", "095606.326000", "095606.329000", "095606.332000", "095606.335000", "095606.338000", "095606.341000", "095606.344000", "095606.347000", "095606.350000", "095606.352000", "095606.355000", "095606.358000", "095606.361000", "095606.364000", "095606.367000", "095606.370000", "095646.315000", "095646.318000", "095646.332000", "095646.335000", "095646.338000", "095646.341000", "095646.344000", "095646.347000", "095646.350000", "095646.353000", "095646.355000", "095646.358000", "095646.361000", "095646.364000", "095646.367000", "095646.370000", "095646.373000", "095646.376000", "095646.378000", "095646.381000", "095646.384000", "095646.387000", "095646.390000", "095646.393000", "095646.396000", "095646.398000", "095646.401000", "095646.404000", "095726.315000", "095726.318000", "095726.321000", "095726.324000", "095726.327000", "095726.330000", "095726.332000", "095726.335000", "095726.338000", "095726.341000", "095726.344000", "095726.347000", "095726.350000", "095726.353000", "095726.356000", "095726.358000", "095726.361000", "095726.364000", "095726.367000", "095726.370000", "095726.373000", "095726.376000", "095726.379000", "095726.382000", "095726.384000", "095726.387000", "095726.390000", "095806.316000", "095806.319000", "095806.322000", "095806.325000", "095806.328000", "095806.331000", "095806.333000", "095806.336000", "095806.339000", "095806.342000", "095806.345000", "095806.348000", "095806.351000", "095806.354000", "095806.356000", "095806.359000", "095806.362000", "095806.365000", "095806.368000", "095806.371000", "095806.374000", "095806.377000", "095806.380000", "095806.382000", "095806.385000", "095806.388000", "095806.391000", "095846.315000", "095846.318000", "095846.321000", "095846.328000", "095846.331000", "095846.333000", "095846.336000", "095846.339000", "095846.342000", "095846.345000", "095846.348000", "095846.351000", "095846.354000", "095846.357000", "095846.360000", "095846.363000", "095846.365000", "095846.368000", "095846.371000", "095846.374000", "095846.377000", "095846.380000", "095846.383000", "095846.386000", "095846.389000", "095846.391000", "095846.394000", "095926.315000", "095926.318000", "095926.321000", "095926.324000", "095926.327000", "095926.329000", "095926.332000", "095926.335000", "095926.338000", "095926.341000", "095926.344000", "095926.347000", "095926.350000", "095926.354000", "095926.357000", "095926.360000", "095926.363000", "095926.366000", "095926.368000", "095926.371000", "095926.374000", "095926.377000", "095926.380000", "095926.383000", "095926.386000", "095926.389000", "100006.315000", "100006.318000", "100006.321000", "100006.324000", "100006.327000", "100006.329000", "100006.332000", "100006.335000", "100006.338000", "100006.341000", "100006.344000", "100006.347000", "100006.350000", "100006.353000", "100006.355000", "100006.358000", "100006.361000", "100006.364000", "100006.367000", "100006.370000", "100006.373000", "100006.376000", "100006.378000", "100006.381000", "100006.384000", "100006.387000", "100006.390000", "100046.315000", "100046.318000", "100046.321000", "100046.324000", "100046.327000", "100046.330000", "100046.332000", "100046.336000", "100046.338000", "100046.341000", "100046.344000", "100046.347000", "100046.350000", "100046.353000", "100046.356000", "100046.359000", "100046.362000", "100046.365000", "100046.367000", "100046.371000", "100046.373000", "100046.376000", "100046.379000", "100046.382000", "100046.396000", "100046.399000", "100046.402000", "100126.315000", "100126.318000", "100126.321000", "100126.324000", "100126.327000", "100126.329000", "100126.332000", "100126.335000", "100126.338000", "100126.341000", "100126.344000", "100126.347000", "100126.350000", "100126.353000", "100126.356000", "100126.359000", "100126.361000", "100126.364000", "100126.367000", "100126.370000", "100126.373000", "100126.376000", "100126.379000", "100126.382000", "100126.385000", "100126.387000", "100126.391000", "100206.315000", "100206.318000", "100206.321000", "100206.324000", "100206.327000", "100206.330000", "100206.332000", "100206.335000", "100206.338000", "100206.341000", "100206.344000", "100206.347000", "100206.350000", "100206.353000", "100206.356000", "100206.358000", "100206.361000", "100206.364000", "100206.367000", "100206.370000", "100206.373000", "100206.376000", "100206.379000", "100206.381000", "100206.384000", "100206.387000", "100206.390000", "100246.316000", "100246.319000", "100246.322000", "100246.325000", "100246.328000", "100246.331000", "100246.333000", "100246.336000", "100246.339000", "100246.342000", "100246.345000", "100246.348000", "100246.351000", "100246.354000", "100246.357000", "100246.360000", "100246.363000", "100246.366000", "100246.368000", "100246.371000", "100246.374000", "100246.377000", "100246.380000", "100246.383000", "100246.386000", "100246.389000", "100246.392000", "100326.315000", "100326.318000", "100326.321000", "100326.324000", "100326.327000", "100326.330000", "100326.333000", "100326.335000", "100326.338000", "100326.341000", "100326.344000", "100326.347000", "100326.350000", "100326.353000", "100326.356000", "100326.359000", "100326.362000", "100326.365000", "100326.368000", "100326.371000", "100326.374000", "100326.377000", "100326.380000", "100326.400000", "100326.403000", "100326.406000", "100406.315000", "100406.318000", "100406.321000", "100406.324000", "100406.327000", "100406.330000", "100406.333000", "100406.335000", "100406.338000", "100406.341000", "100406.344000", "100406.347000", "100406.350000", "100406.353000", "100406.356000", "100406.359000", "100406.362000", "100406.365000", "100406.368000", "100406.370000", "100406.373000", "100406.376000", "100406.379000", "100406.382000", "100406.385000", "100406.388000", "100406.391000", "100446.315000", "100446.318000", "100446.321000", "100446.324000", "100446.327000", "100446.330000", "100446.332000", "100446.335000", "100446.338000", "100446.341000", "100446.344000", "100446.347000", "100446.357000", "100446.360000", "100446.363000", "100446.366000", "100446.369000", "100446.372000", "100446.375000", "100446.378000", "100446.381000", "100446.384000", "100446.386000", "100446.389000", "100446.392000", "100446.395000", "100446.398000", "100449.869000", "100449.872000", "100449.875000"],
