{
  "AcquisitionMatrixPE": 104,
  "AcquisitionNumber": 1,
  "AcquisitionTime": "10:14:58.607500",
  "BandwidthPerPixelPhaseEncode": 17.17,
  "BaseResolution": 104,
  "BodyPartExamined": "BRAIN",
  "CoilString": "HC1-7;NC1_2",
  "ConsistencyInfo": "N4_VE11C_LATEST_20160120",
  "ConversionSoftware": "dcm2niix",
  "ConversionSoftwareVersion": "v1.0.20190902",
  "DerivedVendorReportedEchoSpacing": 0.000560011,
  "DeviceSerialNumber": "167006",
  "DwellTime": 2.1e-06,
  "EchoTime": 0.037,
  "EchoTrainLength": 104,
  "EffectiveEchoSpacing": 0.000560011,
  "FlipAngle": 52,
  "ImageComments": "Unaliased_MB4_PE3_LB",
  "ImageOrientationPatientDICOM": [0.99834, -0.0575119, 0.00322531, 0.0549419, 0.933916, -0.353244],
  "ImageType": [
    "ORIGINAL",
    "PRIMARY",
    "M",
    "MB",
    "ND",
    "MOSAIC"
],
  "ImagingFrequency": 123.259,
  "InPlanePhaseEncodingDirectionDICOM": "COL",
  "InstitutionAddress": "Chemin_Queen-Mary_4565_Montreal_District_CA_H3W_1W5",
  "InstitutionName": "IUGM",
  "InstitutionalDepartmentName": "Department",
  "MRAcquisitionType": "2D",
  "MagneticFieldStrength": 3,
  "Manufacturer": "Siemens",
  "ManufacturersModelName": "Prisma_fit",
  "Modality": "MR",
  "MultibandAccelerationFactor": 4,
  "PartialFourier": 1,
  "PatientPosition": "HFS",
  "PercentPhaseFOV": 100,
  "PhaseEncodingDirection": "j",
  "PhaseEncodingSteps": 104,
  "PhaseResolution": 1,
  "PixelBandwidth": 2290,
  "ProcedureStepDescription": "video_friends",
  "ProtocolName": "func_task-friends-s04e02a",
  "PulseSequenceDetails": "%CustomerSeq%_cmrr_mbep2d_bold",
  "ReceiveCoilActiveElements": "HC1-7;NC1,2",
  "ReceiveCoilName": "HeadNeck_64",
  "ReconMatrixPE": 104,
  "RepetitionTime": 1.49,
  "SAR": 0.0316868,
  "ScanOptions": "FS",
  "ScanningSequence": "EP",
  "SequenceName": "epfid2d1_104",
  "SequenceVariant": "SK_SS",
  "SeriesDescription": "func_task-friends-s04e02a",
  "SeriesNumber": 17,
  "ShimSetting": [635, -7257, -8827, 611, 12, -205, -54, -12],
  "SliceThickness": 2,
  "SliceTiming": [0, 0.785, 0.1, 0.8825, 0.1975, 0.98, 0.295, 1.08, 0.3925, 1.1775, 0.49, 1.275, 0.59, 1.3725, 0.6875, 0, 0.785, 0.1, 0.8825, 0.1975, 0.98, 0.295, 1.08, 0.3925, 1.1775, 0.49, 1.275, 0.59, 1.3725, 0.6875, 0, 0.785, 0.1, 0.8825, 0.1975, 0.98, 0.295, 1.08, 0.3925, 1.1775, 0.49, 1.275, 0.59, 1.3725, 0.6875, 0, 0.785, 0.1, 0.8825, 0.1975, 0.98, 0.295, 1.08, 0.3925, 1.1775, 0.49, 1.275, 0.59, 1.3725, 0.6875],
  "SoftwareVersions": "syngo_MR_E11",
  "SpacingBetweenSlices": 2,
  "StationName": "MRC35049",
  "TaskName": "s04e02a",
  "TotalReadoutTime": 0.0576811,
  "TxRefAmp": 221.029,
  "WipMemBlock": "3bec9d88-b422-4a8f-9d37-235bd96132a7||Sequence: R016 ve11c/master r/e634e98; Dec 19 2017 11:00:25 by eja",
  "dcmmeta_affine": [
    [-1.9966791868209839, 0.10988375544548035, -0.0346071757376194, 97.1856460571289],
    [0.11502385139465332, 1.8678327798843384, -0.7056699991226196, -77.10331726074219],
    [0.006450623739510775, 0.7064886093139648, 1.8710511922836304, -67.44286346435547],
    [0.0, 0.0, 0.0, 1.0]
],
  "dcmmeta_reorient_transform": [
    [0.0, -1.0, 0.0, 103.0],
    [1.0, 0.0, 0.0, 0.0],
    [0.0, 0.0, 1.0, 0.0],
    [0.0, 0.0, 0.0, 1.0]
],
  "dcmmeta_shape": [104, 104, 60, 478],
  "dcmmeta_slice_dim": 2,
  "dcmmeta_version": 0.6,
  "global": {
    "const": {
      "AcquisitionMatrix": [104, 0, 0, 104],
      "AngioFlag": "N",
      "BitsAllocated": 16,
      "BitsStored": 16,
      "BodyPartExamined": "BRAIN",
      "Columns": 832,
      "EchoNumbers": 1,
      "EchoTime": 37.0,
      "EchoTrainLength": 104,
      "FlipAngle": 52.0,
      "HighBit": 15,
      "ImageOrientationPatient": [0.99833960953898, -0.0575119238798, 0.00322531195524, 0.05494187712189, 0.93391640256159, -0.3532443108739],
      "ImagePositionPatient": [-875.29259662299, -753.30592212201, 260.13929571724],
      "ImageType": [
        "ORIGINAL",
        "PRIMARY",
        "M",
        "MB",
        "ND",
        "MOSAIC"
],
      "ImagedNucleus": "1H",
      "ImagingFrequency": 123.259376,
      "InPlanePhaseEncodingDirection": "COL",
      "MRAcquisitionType": "2D",
      "MagneticFieldStrength": 3.0,
      "Manufacturer": "SIEMENS",
      "ManufacturerModelName": "Prisma_fit",
      "Modality": "MR",
      "NumberOfAverages": 1.0,
      "NumberOfPhaseEncodingSteps": 104,
      "PercentPhaseFieldOfView": 100.0,
      "PercentSampling": 100.0,
      "PerformedProcedureStepStartTime": "090531.730000",
      "PhotometricInterpretation": "MONOCHROME2",
      "PixelBandwidth": 2290.0,
      "PixelRepresentation": 0,
      "PixelSpacing": [2.0, 2.0],
      "ProtocolName": "func_task-friends-s04e02a",
      "RepetitionTime": 1490.0,
      "Rows": 832,
      "SAR": 0.03168680187803,
      "SamplesPerPixel": 1,
      "ScanOptions": "FS",
      "ScanningSequence": "EP",
      "SequenceName": "epfid2d1_104",
      "SequenceVariant": [
        "SK",
        "SS"
],
      "SeriesDescription": "func_task-friends-s04e02a",
      "SeriesNumber": 17,
      "SeriesTime": "101622.216000",
      "SliceLocation": -37.571434064138,
      "SliceThickness": 2.0,
      "SmallestImagePixelValue": 0,
      "SoftwareVersions": "syngo MR E11",
      "SpacingBetweenSlices": 2.0000000400743,
      "SpecificCharacterSet": "ISO_IR 100",
      "StudyID": "1",
      "StudyTime": "090531.606000",
      "TransmitCoilName": "Body",
      "VariableFlipAngleFlag": "N",
      "WindowCenterWidthExplanation": "Algo1",
      "dBdt": 0.0},
    "slices": {}
  },
  "time": {
    "samples": {
      "AcquisitionNumber": [1, 2, 3, 4, 5, 6, 7, 8, 9, 10, 11, 12, 13, 14, 15, 16, 17, 18, 19, 20, 21, 22, 23, 24, 25, 26, 27, 28, 29, 30, 31, 32, 33, 34, 35, 36, 37, 38, 39, 40, 41, 42, 43, 44, 45, 46, 47, 48, 49, 50, 51, 52, 53, 54, 55, 56, 57, 58, 59, 60, 61, 62, 63, 64, 65, 66, 67, 68, 69, 70, 71, 72, 73, 74, 75, 76, 77, 78, 79, 80, 81, 82, 83, 84, 85, 86, 87, 88, 89, 90, 91, 92, 93, 94, 95, 96, 97, 98, 99, 100, 101, 102, 103, 104, 105, 106, 107, 108, 109, 110, 111, 112, 113, 114, 115, 116, 117, 118, 119, 120, 121, 122, 123, 124, 125, 126, 127, 128, 129, 130, 131, 132, 133, 134, 135, 136, 137, 138, 139, 140, 141, 142, 143, 144, 145, 146, 147, 148, 149, 150, 151, 152, 153, 154, 155, 156, 157, 158, 159, 160, 161, 162, 163, 164, 165, 166, 167, 168, 169, 170, 171, 172, 173, 174, 175, 176, 177, 178, 179, 180, 181, 182, 183, 184, 185, 186, 187, 188, 189, 190, 191, 192, 193, 194, 195, 196, 197, 198, 199, 200, 201, 202, 203, 204, 205, 206, 207, 208, 209, 210, 211, 212, 213, 214, 215, 216, 217, 218, 219, 220, 221, 222, 223, 224, 225, 226, 227, 228, 229, 230, 231, 232, 233, 234, 235, 236, 237, 238, 239, 240, 241, 242, 243, 244, 245, 246, 247, 248, 249, 250, 251, 252, 253, 254, 255, 256, 257, 258, 259, 260, 261, 262, 263, 264, 265, 266, 267, 268, 269, 270, 271, 272, 273, 274, 275, 276, 277, 278, 279, 280, 281, 282, 283, 284, 285, 286, 287, 288, 289, 290, 291, 292, 293, 294, 295, 296, 297, 298, 299, 300, 301, 302, 303, 304, 305, 306, 307, 308, 309, 310, 311, 312, 313, 314, 315, 316, 317, 318, 319, 320, 321, 322, 323, 324, 325, 326, 327, 328, 329, 330, 331, 332, 333, 334, 335, 336, 337, 338, 339, 340, 341, 342, 343, 344, 345, 346, 347, 348, 349, 350, 351, 352, 353, 354, 355, 356, 357, 358, 359, 360, 361, 362, 363, 364, 365, 366, 367, 368, 369, 370, 371, 372, 373, 374, 375, 376, 377, 378, 379, 380, 381, 382, 383, 384, 385, 386, 387, 388, 389, 390, 391, 392, 393, 394, 395, 396, 397, 398, 399, 400, 401, 402, 403, 404, 405, 406, 407, 408, 409, 410, 411, 412, 413, 414, 415, 416, 417, 418, 419, 420, 421, 422, 423, 424, 425, 426, 427, 428, 429, 430, 431, 432, 433, 434, 435, 436, 437, 438, 439, 440, 441, 442, 443, 444, 445, 446, 447, 448, 449, 450, 451, 452, 453, 454, 455, 456, 457, 458, 459, 460, 461, 462, 463, 464, 465, 466, 467, 468, 469, 470, 471, 472, 473, 474, 475, 476, 477, 478],
      "AcquisitionTime": ["101458.607500", "101500.097500", "101501.587500", "101503.077500", "101504.567500", "101506.057500", "101507.547500", "101509.037500", "101510.527500", "101512.017500", "101513.507500", "101514.997500", "101516.487500", "101517.977500", "101519.467500", "101520.957500", "101522.447500", "101523.937500", "101525.427500", "101526.917500", "101528.407500", "101529.897500", "101531.387500", "101532.877500", "101534.367500", "101535.857500", "101537.347500", "101538.837500", "101540.327500", "101541.817500", "101543.307500", "101544.797500", "101546.287500", "101547.777500", "101549.267500", "101550.757500", "101552.247500", "101553.737500", "101555.227500", "101556.717500", "101558.207500", "101559.697500", "101601.187500", "101602.677500", "101604.167500", "101605.657500", "101607.147500", "101608.637500", "101610.127500", "101611.617500", "101613.107500", "101614.597500", "101616.087500", "101617.577500", "101619.067500", "101620.557500", "101622.047500", "101623.537500", "101625.027500", "101626.517500", "101628.007500", "101629.497500", "101630.987500", "101632.477500", "101633.967500", "101635.457500", "101636.947500", "101638.437500", "101639.927500", "101641.417500", "101642.907500", "101644.397500", "101645.887500", "101647.377500", "101648.867500", "101650.357500", "101651.847500", "101653.337500", "101654.827500", "101656.317500", "101657.807500", "101659.297500", "101700.787500", "101702.277500", "101703.767500", "101705.257500", "101706.747500", "101708.237500", "101709.727500", "101711.217500", "101712.707500", "101714.197500", "101715.687500", "101717.177500", "101718.667500", "101720.157500", "101721.647500", "101723.137500", "101724.627500", "101726.117500", "101727.607500", "101729.097500", "101730.587500", "101732.077500", "101733.567500", "101735.057500", "101736.547500", "101738.037500", "101739.527500", "101741.017500", "101742.507500", "101743.997500", "101745.487500", "101746.977500", "101748.467500", "101749.957500", "101751.447500", "101752.937500", "101754.427500", "101755.917500", "101757.407500", "101758.897500", "101800.387500", "101801.877500", "101803.367500", "101804.857500", "101806.347500", "101807.837500", "101809.327500", "101810.817500", "101812.307500", "101813.797500", "101815.287500", "101816.777500", "101818.267500", "101819.757500", "101821.247500", "101822.737500", "101824.227500", "101825.717500", "101827.207500", "101828.697500", "101830.187500", "101831.677500", "101833.167500", "101834.657500", "101836.147500", "101837.637500", "101839.127500", "101840.617500", "101842.107500", "101843.597500", "101845.087500", "101846.577500", "101848.067500", "101849.557500", "101851.047500", "101852.537500", "101854.027500", "101855.517500", "101857.007500", "101858.497500", "101859.987500", "101901.477500", "101902.967500", "101904.457500", "101905.947500", "101907.437500", "101908.927500", "101910.417500", "101911.907500", "101913.397500", "101914.887500", "101916.377500", "101917.867500", "101919.357500", "101920.847500", "101922.337500", "101923.827500", "101925.317500", "101926.807500", "101928.297500", "101929.787500", "101931.277500", "101932.767500", "101934.257500", "101935.747500", "101937.237500", "101938.727500", "101940.217500", "101941.707500", "101943.197500", "101944.687500", "101946.177500", "101947.667500", "101949.157500", "101950.647500", "101952.137500", "101953.627500", "101955.117500", "101956.607500", "101958.097500", "101959.587500", "102001.077500", "102002.567500", "102004.057500", "102005.547500", "102007.037500", "102008.527500", "102010.017500", "102011.507500", "102012.997500", "102014.487500", "102015.977500", "102017.467500", "102018.957500", "102020.447500", "102021.937500", "102023.427500", "102024.917500", "102026.407500", "102027.897500", "102029.387500", "102030.877500", "102032.367500", "102033.857500", "102035.347500", "102036.837500", "102038.327500", "102039.817500", "102041.307500", "102042.797500", "102044.287500", "102045.777500", "102047.267500", "102048.757500", "102050.247500", "102051.737500", "102053.227500", "102054.717500", "102056.207500", "102057.697500", "102059.187500", "102100.677500", "102102.167500", "102103.657500", "102105.147500", "102106.637500", "102108.127500", "102109.617500", "102111.107500", "102112.597500", "102114.087500", "102115.577500", "102117.067500", "102118.557500", "102120.047500", "102121.537500", "102123.027500", "102124.517500", "102126.007500", "102127.497500", "102128.987500", "102130.477500", "102131.967500", "102133.457500", "102134.947500", "102136.437500", "102137.927500", "102139.417500", "102140.907500", "102142.397500", "102143.887500", "102145.377500", "102146.867500", "102148.357500", "102149.847500", "102151.337500", "102152.827500", "102154.317500", "102155.807500", "102157.297500", "102158.787500", "102200.277500", "102201.767500", "102203.257500", "102204.747500", "102206.237500", "102207.727500", "102209.217500", "102210.707500", "102212.197500", "102213.687500", "102215.177500", "102216.667500", "102218.157500", "102219.647500", "102221.137500", "102222.627500", "102224.117500", "102225.607500", "102227.097500", "102228.587500", "102230.077500", "102231.567500", "102233.057500", "102234.547500", "102236.037500", "102237.527500", "102239.017500", "102240.507500", "102241.997500", "102243.487500", "102244.977500", "102246.467500", "102247.957500", "102249.447500", "102250.937500", "102252.427500", "102253.917500", "102255.407500", "102256.897500", "102258.387500", "102259.877500", "102301.367500", "102302.857500", "102304.347500", "102305.837500", "102307.327500", "102308.817500", "102310.307500", "102311.797500", "102313.287500", "102314.777500", "102316.267500", "102317.757500", "102319.247500", "102320.737500", "102322.227500", "102323.717500", "102325.207500", "102326.697500", "102328.187500", "102329.677500", "102331.167500", "102332.657500", "102334.147500", "102335.637500", "102337.127500", "102338.617500", "102340.107500", "102341.597500", "102343.087500", "102344.577500", "102346.067500", "102347.557500", "102349.047500", "102350.537500", "102352.027500", "102353.517500", "102355.007500", "102356.497500", "102357.987500", "102359.477500", "102400.967500", "102402.457500", "102403.947500", "102405.437500", "102406.927500", "102408.417500", "102409.907500", "102411.397500", "102412.887500", "102414.377500", "102415.867500", "102417.357500", "102418.847500", "102420.337500", "102421.827500", "102423.317500", "102424.807500", "102426.297500", "102427.787500", "102429.277500", "102430.767500", "102432.257500", "102433.747500", "102435.237500", "102436.727500", "102438.217500", "102439.707500", "102441.197500", "102442.687500", "102444.177500", "102445.667500", "102447.157500", "102448.647500", "102450.137500", "102451.627500", "102453.117500", "102454.607500", "102456.097500", "102457.587500", "102459.077500", "102500.567500", "102502.057500", "102503.547500", "102505.037500", "102506.527500", "102508.017500", "102509.507500", "102510.997500", "102512.487500", "102513.977500", "102515.467500", "102516.957500", "102518.447500", "102519.937500", "102521.427500", "102522.917500", "102524.407500", "102525.897500", "102527.387500", "102528.877500", "102530.367500", "102531.857500", "102533.347500", "102534.837500", "102536.327500", "102537.817500", "102539.307500", "102540.797500", "102542.287500", "102543.777500", "102545.267500", "102546.757500", "102548.247500", "102549.737500", "102551.227500", "102552.717500", "102554.207500", "102555.697500", "102557.187500", "102558.677500", "102600.167500", "102601.657500", "102603.147500", "102604.637500", "102606.127500", "102607.617500", "102609.107500", "102610.597500", "102612.087500", "102613.577500", "102615.067500", "102616.557500", "102618.047500", "102619.537500", "102621.027500", "102622.517500", "102624.007500", "102625.497500", "102626.987500", "102628.477500", "102629.967500", "102631.457500", "102632.947500", "102634.437500", "102635.927500", "102637.417500", "102638.907500", "102640.397500", "102641.887500", "102643.377500", "102644.867500", "102646.357500", "102647.847500", "102649.337500"],
      "ContentTime": ["101622.219000", "101622.223000", "101622.226000", "101622.229000", "101622.232000", "101622.235000", "101622.238000", "101622.240000", "101622.243000", "101622.246000", "101622.249000", "101622.252000", "101622.255000", "101622.258000", "101622.261000", "101622.263000", "101622.266000", "101622.269000", "101622.276000", "101622.279000", "101622.281000", "101622.284000", "101622.287000", "101622.290000", "101622.293000", "101622.296000", "101622.299000", "101642.182000", "101642.185000", "101642.188000", "101642.193000", "101642.196000", "101642.199000", "101642.202000", "101642.205000", "101642.208000", "101642.211000", "101642.213000", "101642.216000", "101642.219000", "101642.222000", "101642.225000", "101642.228000", "101642.231000", "101642.234000", "101642.237000", "101642.240000", "101702.182000", "101702.185000", "101702.188000", "101702.192000", "101702.195000", "101702.207000", "101702.210000", "101702.213000", "101702.216000", "101702.219000", "101702.222000", "101702.225000", "101702.228000", "101702.231000", "101702.233000", "101702.236000", "101702.239000", "101702.242000", "101702.245000", "101702.248000", "101722.181000", "101722.184000", "101722.187000", "101722.190000", "101722.192000", "101722.196000", "101722.199000", "101722.203000", "101722.206000", "101722.210000", "101722.214000", "101722.217000", "101722.220000", "101722.223000", "101722.226000", "101722.228000", "101722.233000", "101722.236000", "101722.239000", "101722.242000", "101742.181000", "101742.192000", "101742.194000", "101742.197000", "101742.200000", "101742.203000", "101742.206000", "101742.209000", "101742.212000", "101742.215000", "101742.218000", "101742.220000", "101742.223000", "101742.226000", "101742.229000", "101742.232000", "101742.235000", "101742.238000", "101742.241000", "101742.244000", "101822.181000", "101822.184000", "101822.187000", "101822.190000", "101822.193000", "101822.195000", "101822.198000", "101822.201000", "101822.204000", "101822.207000", "101822.210000", "101822.213000", "101822.216000", "101822.219000", "101822.226000", "101822.229000", "101822.232000", "101822.235000", "101822.238000", "101822.241000", "101822.244000", "101822.246000", "101822.249000", "101822.252000", "101822.255000", "101822.258000", "101822.261000", "101822.264000", "101822.267000", "101902.182000", "101902.185000", "101902.188000", "101902.191000", "101902.193000", "101902.196000", "101902.199000", "101902.202000", "101902.205000", "101902.208000", "101902.227000", "101902.229000", "101902.232000", "101902.235000", "101902.238000", "101902.241000", "101902.244000", "101902.247000", "101902.250000", "101902.253000", "101902.255000", "101902.258000", "101902.261000", "101902.264000", "101902.267000", "101902.270000", "101942.181000", "101942.184000", "101942.187000", "101942.190000", "101942.193000", "101942.195000", "101942.198000", "101942.201000", "101942.204000", "101942.207000", "101942.210000", "101942.213000", "101942.216000", "101942.219000", "101942.222000", "101942.224000", "101942.227000", "101942.230000", "101942.233000", "101942.236000", "101942.239000", "101942.242000", "101942.245000", "101942.247000", "101942.250000", "101942.253000", "101942.256000", "102022.181000", "102022.184000", "102022.187000", "102022.190000", "102022.192000", "102022.196000", "102022.199000", "102022.202000", "102022.205000", "102022.208000", "102022.211000", "102022.214000", "102022.217000", "102022.220000", "102022.223000", "102022.225000", "102022.228000", "102022.231000", "102022.234000", "102022.237000", "102022.240000", "102022.243000", "102022.245000", "102022.248000", "102022.251000", "102022.254000", "102022.257000", "102102.181000", "102102.184000", "102102.187000", "102102.189000", "102102.193000", "102102.195000", "102102.198000", "102102.201000", "102102.204000", "102102.207000", "102102.210000", "102102.213000", "102102.216000", "102102.219000", "102102.221000", "102102.224000", "102102.227000", "102102.230000", "102102.233000", "102102.236000", "102102.239000", "102102.242000", "102102.245000", "102102.248000", "102102.251000", "102102.254000", "102102.256000", "102142.182000", "102142.185000", "102142.188000", "102142.191000", "102142.194000", "102142.197000", "102142.199000", "102142.202000", "102142.205000", "102142.208000", "102142.211000", "102142.214000", "102142.217000", "102142.220000", "102142.223000", "102142.226000", "102142.229000", "102142.232000", "102142.234000", "102142.237000", "102142.240000", "102142.243000", "102142.246000", "102142.249000", "102142.252000", "102142.255000", "102142.258000", "102222.181000", "102222.184000", "102222.187000", "102222.190000", "102222.193000", "102222.195000", "102222.198000", "102222.201000", "102222.204000", "102222.207000", "102222.210000", "102222.213000", "102222.216000", "102222.218000", "102222.222000", "102222.224000", "102222.227000", "102222.230000", "102222.233000", "102222.236000", "102222.239000", "102222.242000", "102222.245000", "102222.248000", "102222.250000", "102222.253000", "102222.256000", "102302.181000", "102302.184000", "102302.188000", "102302.192000", "102302.195000", "102302.198000", "102302.201000", "102302.203000", "102302.206000", "102302.209000", "102302.212000", "102302.215000", "102302.218000", "102302.221000", "102302.224000", "102302.227000", "102302.230000", "102302.233000", "102302.235000", "102302.238000", "102302.241000", "102302.244000", "102302.247000", "102302.250000", "102302.253000", "102302.256000", "102342.182000", "102342.185000", "102342.188000", "102342.191000", "102342.194000", "102342.196000", "102342.199000", "102342.202000", "102342.205000", "102342.208000", "102342.211000", "102342.214000", "102342.228000", "102342.231000", "102342.233000", "102342.236000", "102342.239000", "102342.242000", "102342.245000", "102342.248000", "102342.251000", "102342.253000", "102342.256000", "102342.259000", "102342.262000", "102342.265000", "102342.268000", "102422.181000", "102422.184000", "102422.187000", "102422.190000", "102422.193000", "102422.196000", "102422.199000", "102422.201000", "102422.204000", "102422.207000", "102422.210000", "102422.213000", "102422.216000", "102422.219000", "102422.222000", "102422.225000", "102422.227000", "102422.230000", "102422.233000", "102422.236000", "102422.239000", "102422.242000", "102422.245000", "102422.247000", "102422.250000", "102422.253000", "102422.256000", "102502.181000", "102502.184000", "102502.187000", "102502.190000", "102502.193000", "102502.196000", "102502.199000", "102502.201000", "102502.204000", "102502.207000", "102502.210000", "102502.213000", "102502.216000", "102502.219000", "102502.222000", "102502.225000", "102502.228000", "102502.231000", "102502.233000", "102502.236000", "102502.239000", "102502.242000", "102502.245000", "102502.248000", "102502.251000", "102502.254000", "102502.256000", "102542.181000", "102542.184000", "102542.187000", "102542.190000", "102542.193000", "102542.195000", "102542.198000", "102542.201000", "102542.204000", "102542.207000", "102542.210000", "102542.213000", "102542.216000", "102542.219000", "102542.222000", "102542.224000", "102542.227000", "102542.230000", "102542.233000", "102542.236000", "102542.239000", "102542.242000", "102542.245000", "102542.247000", "102542.250000", "102542.253000", "102542.256000", "102622.182000", "102622.185000", "102622.188000", "102622.191000", "102622.194000", "102622.196000", "102622.199000", "102622.202000", "102622.205000", "102622.208000", "102622.211000", "102622.214000", "102622.217000", "102622.220000", "102622.222000", "102622.225000", "102622.228000", "102622.231000", "102622.234000", "102622.237000", "102622.240000", "102622.242000", "102622.245000", "102622.248000", "102622.251000", "102622.254000", "102622.257000", "102651.700000", "102651.703000", "102651.706000", "102651.709000", "102651.712000", "102651.715000", "102651.718000", "102651.721000", "102651.724000", "102651.727000", "102651.729000", "102651.732000", "102651.735000", "102651.738000", "102651.741000", "102651.744000", "102651.747000", "102651.750000", "102651.753000", "102651.756000"],
