{
  "AcquisitionMatrixPE": 104,
  "AcquisitionNumber": 1,
  "AcquisitionTime": "09:37:20.280000",
  "BandwidthPerPixelPhaseEncode": 17.17,
  "BaseResolution": 104,
  "BodyPartExamined": "BRAIN",
  "CoilString": "HC1-7;NC1_2",
  "ConsistencyInfo": "N4_VE11C_LATEST_20160120",
  "ConversionSoftware": "dcm2niix",
  "ConversionSoftwareVersion": "v1.0.20190902",
  "DerivedVendorReportedEchoSpacing": 0.000560011,
  "DeviceSerialNumber": "167006",
  "DwellTime": 2.1e-06,
  "EchoTime": 0.037,
  "EchoTrainLength": 104,
  "EffectiveEchoSpacing": 0.000560011,
  "FlipAngle": 52,
  "ImageComments": "Unaliased_MB4_PE3_LB",
  "ImageOrientationPatientDICOM": [0.99834, -0.0575119, 0.00322531, 0.0549419, 0.933916, -0.353244],
  "ImageType": [
    "ORIGINAL",
    "PRIMARY",
    "M",
    "MB",
    "ND",
    "MOSAIC"
],
  "ImagingFrequency": 123.259,
  "InPlanePhaseEncodingDirectionDICOM": "COL",
  "InstitutionAddress": "Chemin_Queen-Mary_4565_Montreal_District_CA_H3W_1W5",
  "InstitutionName": "IUGM",
  "InstitutionalDepartmentName": "Department",
  "MRAcquisitionType": "2D",
  "MagneticFieldStrength": 3,
  "Manufacturer": "Siemens",
  "ManufacturersModelName": "Prisma_fit",
  "Modality": "MR",
  "MultibandAccelerationFactor": 4,
  "PartialFourier": 1,
  "PatientPosition": "HFS",
  "PercentPhaseFOV": 100,
  "PhaseEncodingDirection": "j",
  "PhaseEncodingSteps": 104,
  "PhaseResolution": 1,
  "PixelBandwidth": 2290,
  "ProcedureStepDescription": "video_friends",
  "ProtocolName": "func_task-friends-s03e25b",
  "PulseSequenceDetails": "%CustomerSeq%_cmrr_mbep2d_bold",
  "ReceiveCoilActiveElements": "HC1-7;NC1,2",
  "ReceiveCoilName": "HeadNeck_64",
  "ReconMatrixPE": 104,
  "RepetitionTime": 1.49,
  "SAR": 0.0316871,
  "ScanOptions": "FS",
  "ScanningSequence": "EP",
  "SequenceName": "epfid2d1_104",
  "SequenceVariant": "SK_SS",
  "SeriesDescription": "func_task-friends-s03e25b",
  "SeriesNumber": 11,
  "ShimSetting": [635, -7257, -8827, 611, 12, -205, -54, -12],
  "SliceThickness": 2,
  "SliceTiming": [0, 0.7825, 0.0975, 0.88, 0.195, 0.98, 0.2925, 1.0775, 0.39, 1.175, 0.49, 1.2725, 0.5875, 1.37, 0.685, 0, 0.7825, 0.0975, 0.88, 0.195, 0.98, 0.2925, 1.0775, 0.39, 1.175, 0.49, 1.2725, 0.5875, 1.37, 0.685, 0, 0.7825, 0.0975, 0.88, 0.195, 0.98, 0.2925, 1.0775, 0.39, 1.175, 0.49, 1.2725, 0.5875, 1.37, 0.685, 0, 0.7825, 0.0975, 0.88, 0.195, 0.98, 0.2925, 1.0775, 0.39, 1.175, 0.49, 1.2725, 0.5875, 1.37, 0.685],
  "SoftwareVersions": "syngo_MR_E11",
  "SpacingBetweenSlices": 2,
  "StationName": "MRC35049",
  "TaskName": "s03e25b",
  "TotalReadoutTime": 0.0576811,
  "TxRefAmp": 221.029,
  "WipMemBlock": "9ff0340f-8345-4825-a45c-0cbdf454f70d||Sequence: R016 ve11c/master r/e634e98; Dec 19 2017 11:00:25 by eja",
  "dcmmeta_affine": [
    [-1.9966791868209839, 0.10988375544548035, -0.0346071757376194, 97.1856460571289],
    [0.11502385139465332, 1.8678327798843384, -0.7056699991226196, -77.10331726074219],
    [0.006450623739510775, 0.7064886093139648, 1.8710511922836304, -67.44286346435547],
    [0.0, 0.0, 0.0, 1.0]
],
  "dcmmeta_reorient_transform": [
    [0.0, -1.0, 0.0, 103.0],
    [1.0, 0.0, 0.0, 0.0],
    [0.0, 0.0, 1.0, 0.0],
    [0.0, 0.0, 0.0, 1.0]
],
  "dcmmeta_shape": [104, 104, 60, 479],
  "dcmmeta_slice_dim": 2,
  "dcmmeta_version": 0.6,
  "global": {
    "const": {
      "AcquisitionMatrix": [104, 0, 0, 104],
      "AngioFlag": "N",
      "BitsAllocated": 16,
      "BitsStored": 16,
      "BodyPartExamined": "BRAIN",
      "Columns": 832,
      "EchoNumbers": 1,
      "EchoTime": 37.0,
      "EchoTrainLength": 104,
      "FlipAngle": 52.0,
      "HighBit": 15,
      "ImageOrientationPatient": [0.99833960953898, -0.0575119238798, 0.00322531195524, 0.05494187712189, 0.93391640256159, -0.3532443108739],
      "ImagePositionPatient": [-875.29259662299, -753.30592212201, 260.13929571724],
      "ImageType": [
        "ORIGINAL",
        "PRIMARY",
        "M",
        "MB",
        "ND",
        "MOSAIC"
],
      "ImagedNucleus": "1H",
      "ImagingFrequency": 123.25936,
      "InPlanePhaseEncodingDirection": "COL",
      "MRAcquisitionType": "2D",
      "MagneticFieldStrength": 3.0,
      "Manufacturer": "SIEMENS",
      "ManufacturerModelName": "Prisma_fit",
      "Modality": "MR",
      "NumberOfAverages": 1.0,
      "NumberOfPhaseEncodingSteps": 104,
      "PercentPhaseFieldOfView": 100.0,
      "PercentSampling": 100.0,
      "PerformedProcedureStepStartTime": "090531.730000",
      "PhotometricInterpretation": "MONOCHROME2",
      "PixelBandwidth": 2290.0,
      "PixelRepresentation": 0,
      "PixelSpacing": [2.0, 2.0],
      "ProtocolName": "func_task-friends-s03e25b",
      "RepetitionTime": 1490.0,
      "Rows": 832,
      "SAR": 0.03168707533461,
      "SamplesPerPixel": 1,
      "ScanOptions": "FS",
      "ScanningSequence": "EP",
      "SequenceName": "epfid2d1_104",
      "SequenceVariant": [
        "SK",
        "SS"
],
      "SeriesDescription": "func_task-friends-s03e25b",
      "SeriesNumber": 11,
      "SeriesTime": "093842.215000",
      "SliceLocation": -37.571434064138,
      "SliceThickness": 2.0,
      "SmallestImagePixelValue": 0,
      "SoftwareVersions": "syngo MR E11",
      "SpacingBetweenSlices": 2.0000000400743,
      "SpecificCharacterSet": "ISO_IR 100",
      "StudyID": "1",
      "StudyTime": "090531.606000",
      "TransmitCoilName": "Body",
      "VariableFlipAngleFlag": "N",
      "WindowCenterWidthExplanation": "Algo1",
      "dBdt": 0.0},
    "slices": {}
  },
  "time": {
    "samples": {
      "AcquisitionNumber": [1, 2, 3, 4, 5, 6, 7, 8, 9, 10, 11, 12, 13, 14, 15, 16, 17, 18, 19, 20, 21, 22, 23, 24, 25, 26, 27, 28, 29, 30, 31, 32, 33, 34, 35, 36, 37, 38, 39, 40, 41, 42, 43, 44, 45, 46, 47, 48, 49, 50, 51, 52, 53, 54, 55, 56, 57, 58, 59, 60, 61, 62, 63, 64, 65, 66, 67, 68, 69, 70, 71, 72, 73, 74, 75, 76, 77, 78, 79, 80, 81, 82, 83, 84, 85, 86, 87, 88, 89, 90, 91, 92, 93, 94, 95, 96, 97, 98, 99, 100, 101, 102, 103, 104, 105, 106, 107, 108, 109, 110, 111, 112, 113, 114, 115, 116, 117, 118, 119, 120, 121, 122, 123, 124, 125, 126, 127, 128, 129, 130, 131, 132, 133, 134, 135, 136, 137, 138, 139, 140, 141, 142, 143, 144, 145, 146, 147, 148, 149, 150, 151, 152, 153, 154, 155, 156, 157, 158, 159, 160, 161, 162, 163, 164, 165, 166, 167, 168, 169, 170, 171, 172, 173, 174, 175, 176, 177, 178, 179, 180, 181, 182, 183, 184, 185, 186, 187, 188, 189, 190, 191, 192, 193, 194, 195, 196, 197, 198, 199, 200, 201, 202, 203, 204, 205, 206, 207, 208, 209, 210, 211, 212, 213, 214, 215, 216, 217, 218, 219, 220, 221, 222, 223, 224, 225, 226, 227, 228, 229, 230, 231, 232, 233, 234, 235, 236, 237, 238, 239, 240, 241, 242, 243, 244, 245, 246, 247, 248, 249, 250, 251, 252, 253, 254, 255, 256, 257, 258, 259, 260, 261, 262, 263, 264, 265, 266, 267, 268, 269, 270, 271, 272, 273, 274, 275, 276, 277, 278, 279, 280, 281, 282, 283, 284, 285, 286, 287, 288, 289, 290, 291, 292, 293, 294, 295, 296, 297, 298, 299, 300, 301, 302, 303, 304, 305, 306, 307, 308, 309, 310, 311, 312, 313, 314, 315, 316, 317, 318, 319, 320, 321, 322, 323, 324, 325, 326, 327, 328, 329, 330, 331, 332, 333, 334, 335, 336, 337, 338, 339, 340, 341, 342, 343, 344, 345, 346, 347, 348, 349, 350, 351, 352, 353, 354, 355, 356, 357, 358, 359, 360, 361, 362, 363, 364, 365, 366, 367, 368, 369, 370, 371, 372, 373, 374, 375, 376, 377, 378, 379, 380, 381, 382, 383, 384, 385, 386, 387, 388, 389, 390, 391, 392, 393, 394, 395, 396, 397, 398, 399, 400, 401, 402, 403, 404, 405, 406, 407, 408, 409, 410, 411, 412, 413, 414, 415, 416, 417, 418, 419, 420, 421, 422, 423, 424, 425, 426, 427, 428, 429, 430, 431, 432, 433, 434, 435, 436, 437, 438, 439, 440, 441, 442, 443, 444, 445, 446, 447, 448, 449, 450, 451, 452, 453, 454, 455, 456, 457, 458, 459, 460, 461, 462, 463, 464, 465, 466, 467, 468, 469, 470, 471, 472, 473, 474, 475, 476, 477, 478, 479],
      "AcquisitionTime": ["093720.280000", "093721.770000", "093723.260000", "093724.750000", "093726.240000", "093727.730000", "093729.220000", "093730.710000", "093732.200000", "093733.690000", "093735.180000", "093736.670000", "093738.160000", "093739.650000", "093741.140000", "093742.630000", "093744.120000", "093745.610000", "093747.100000", "093748.590000", "093750.080000", "093751.570000", "093753.060000", "093754.550000", "093756.040000", "093757.530000", "093759.020000", "093800.510000", "093802.000000", "093803.490000", "093804.980000", "093806.470000", "093807.960000", "093809.450000", "093810.940000", "093812.430000", "093813.920000", "093815.410000", "093816.900000", "093818.390000", "093819.880000", "093821.370000", "093822.860000", "093824.350000", "093825.840000", "093827.330000", "093828.820000", "093830.310000", "093831.800000", "093833.290000", "093834.780000", "093836.270000", "093837.760000", "093839.250000", "093840.740000", "093842.230000", "093843.720000", "093845.210000", "093846.700000", "093848.190000", "093849.680000", "093851.170000", "093852.660000", "093854.150000", "093855.640000", "093857.130000", "093858.620000", "093900.110000", "093901.600000", "093903.090000", "093904.580000", "093906.070000", "093907.560000", "093909.050000", "093910.540000", "093912.030000", "093913.520000", "093915.010000", "093916.500000", "093917.990000", "093919.480000", "093920.970000", "093922.460000", "093923.950000", "093925.440000", "093926.930000", "093928.420000", "093929.910000", "093931.400000", "093932.890000", "093934.380000", "093935.870000", "093937.360000", "093938.850000", "093940.340000", "093941.830000", "093943.320000", "093944.810000", "093946.300000", "093947.790000", "093949.280000", "093950.770000", "093952.260000", "093953.750000", "093955.240000", "093956.730000", "093958.220000", "093959.710000", "094001.200000", "094002.690000", "094004.180000", "094005.670000", "094007.160000", "094008.650000", "094010.140000", "094011.630000", "094013.120000", "094014.610000", "094016.100000", "094017.590000", "094019.080000", "094020.570000", "094022.060000", "094023.550000", "094025.040000", "094026.530000", "094028.020000", "094029.510000", "094031.000000", "094032.490000", "094033.980000", "094035.470000", "094036.960000", "094038.450000", "094039.940000", "094041.430000", "094042.920000", "094044.410000", "094045.900000", "094047.390000", "094048.880000", "094050.370000", "094051.860000", "094053.350000", "094054.840000", "094056.330000", "094057.820000", "094059.310000", "094100.800000", "094102.290000", "094103.780000", "094105.270000", "094106.760000", "094108.250000", "094109.740000", "094111.230000", "094112.720000", "094114.210000", "094115.700000", "094117.190000", "094118.680000", "094120.170000", "094121.660000", "094123.150000", "094124.640000", "094126.130000", "094127.620000", "094129.110000", "094130.600000", "094132.090000", "094133.580000", "094135.070000", "094136.560000", "094138.050000", "094139.540000", "094141.030000", "094142.520000", "094144.010000", "094145.500000", "094146.990000", "094148.480000", "094149.970000", "094151.460000", "094152.950000", "094154.440000", "094155.930000", "094157.420000", "094158.910000", "094200.400000", "094201.890000", "094203.380000", "094204.870000", "094206.360000", "094207.850000", "094209.340000", "094210.830000", "094212.320000", "094213.810000", "094215.300000", "094216.790000", "094218.280000", "094219.770000", "094221.260000", "094222.750000", "094224.240000", "094225.730000", "094227.220000", "094228.710000", "094230.200000", "094231.690000", "094233.180000", "094234.670000", "094236.160000", "094237.650000", "094239.140000", "094240.630000", "094242.120000", "094243.610000", "094245.100000", "094246.590000", "094248.080000", "094249.570000", "094251.060000", "094252.550000", "094254.040000", "094255.530000", "094257.020000", "094258.510000", "094300.000000", "094301.490000", "094302.980000", "094304.470000", "094305.960000", "094307.450000", "094308.940000", "094310.430000", "094311.920000", "094313.410000", "094314.900000", "094316.390000", "094317.880000", "094319.370000", "094320.860000", "094322.350000", "094323.840000", "094325.330000", "094326.820000", "094328.310000", "094329.800000", "094331.290000", "094332.780000", "094334.270000", "094335.760000", "094337.250000", "094338.740000", "094340.230000", "094341.720000", "094343.210000", "094344.700000", "094346.190000", "094347.680000", "094349.170000", "094350.660000", "094352.150000", "094353.640000", "094355.130000", "094356.620000", "094358.110000", "094359.600000", "094401.090000", "094402.580000", "094404.070000", "094405.560000", "094407.050000", "094408.540000", "094410.030000", "094411.520000", "094413.010000", "094414.500000", "094415.990000", "094417.480000", "094418.970000", "094420.460000", "094421.950000", "094423.440000", "094424.930000", "094426.420000", "094427.910000", "094429.400000", "094430.890000", "094432.380000", "094433.870000", "094435.360000", "094436.850000", "094438.340000", "094439.830000", "094441.320000", "094442.810000", "094444.300000", "094445.790000", "094447.280000", "094448.770000", "094450.260000", "094451.750000", "094453.240000", "094454.730000", "094456.220000", "094457.710000", "094459.200000", "094500.690000", "094502.180000", "094503.670000", "094505.160000", "094506.650000", "094508.140000", "094509.630000", "094511.120000", "094512.610000", "094514.100000", "094515.590000", "094517.080000", "094518.570000", "094520.060000", "094521.550000", "094523.040000", "094524.530000", "094526.020000", "094527.510000", "094529.000000", "094530.490000", "094531.980000", "094533.470000", "094534.960000", "094536.450000", "094537.940000", "094539.430000", "094540.920000", "094542.410000", "094543.900000", "094545.390000", "094546.880000", "094548.370000", "094549.860000", "094551.350000", "094552.840000", "094554.330000", "094555.820000", "094557.310000", "094558.800000", "094600.290000", "094601.780000", "094603.270000", "094604.760000", "094606.250000", "094607.740000", "094609.230000", "094610.720000", "094612.210000", "094613.700000", "094615.190000", "094616.680000", "094618.170000", "094619.660000", "094621.150000", "094622.640000", "094624.130000", "094625.620000", "094627.110000", "094628.600000", "094630.090000", "094631.580000", "094633.070000", "094634.560000", "094636.050000", "094637.540000", "094639.030000", "094640.520000", "094642.010000", "094643.500000", "094644.990000", "094646.480000", "094647.970000", "094649.460000", "094650.950000", "094652.440000", "094653.930000", "094655.420000", "094656.910000", "094658.400000", "094659.890000", "094701.380000", "094702.870000", "094704.360000", "094705.850000", "094707.340000", "094708.830000", "094710.320000", "094711.810000", "094713.300000", "094714.790000", "094716.280000", "094717.770000", "094719.260000", "094720.750000", "094722.240000", "094723.730000", "094725.220000", "094726.710000", "094728.200000", "094729.690000", "094731.180000", "094732.670000", "094734.160000", "094735.650000", "094737.140000", "094738.630000", "094740.120000", "094741.610000", "094743.100000", "094744.590000", "094746.080000", "094747.570000", "094749.060000", "094750.550000", "094752.040000", "094753.530000", "094755.020000", "094756.510000", "094758.000000", "094759.490000", "094800.980000", "094802.470000", "094803.960000", "094805.450000", "094806.940000", "094808.430000", "094809.920000", "094811.410000", "094812.900000", "094814.390000", "094815.880000", "094817.370000", "094818.860000", "094820.350000", "094821.840000", "094823.330000", "094824.820000", "094826.310000", "094827.800000", "094829.290000", "094830.780000", "094832.270000", "094833.760000", "094835.250000", "094836.740000", "094838.230000", "094839.720000", "094841.210000", "094842.700000", "094844.190000", "094845.680000", "094847.170000", "094848.660000", "094850.150000", "094851.640000", "094853.130000", "094854.620000", "094856.110000", "094857.600000", "094859.090000", "094900.580000", "094902.070000", "094903.560000", "094905.050000", "094906.540000", "094908.030000", "094909.520000", "094911.010000", "094912.500000"],
      "ContentTime": ["093842.218000", "093842.221000", "093842.230000", "093842.233000", "093842.236000", "093842.239000", "093842.242000", "093842.245000", "093842.247000", "093842.250000", "093842.253000", "093842.256000", "093842.259000", "093842.272000", "093842.275000", "093842.277000", "093842.280000", "093842.283000", "093842.289000", "093842.292000", "093842.295000", "093842.298000", "093842.301000", "093842.303000", "093842.306000", "093842.309000", "093842.312000", "093842.315000", "093902.181000", "093902.184000", "093902.187000", "093902.190000", "093902.192000", "093902.196000", "093902.198000", "093902.201000", "093902.204000", "093902.207000", "093902.210000", "093902.213000", "093902.221000", "093902.224000", "093902.227000", "093902.230000", "093902.232000", "093902.235000", "093902.238000", "093902.241000", "093922.181000", "093922.184000", "093922.186000", "093922.189000", "093922.192000", "093922.195000", "093922.198000", "093922.201000", "093922.204000", "093922.207000", "093922.209000", "093922.212000", "093922.215000", "093922.218000", "093922.221000", "093922.224000", "093922.227000", "093922.229000", "093922.232000", "093922.235000", "093922.238000", "093942.182000", "093942.185000", "093942.188000", "093942.190000", "093942.193000", "093942.196000", "093942.199000", "093942.202000", "093942.205000", "093942.207000", "093942.211000", "093942.213000", "093942.216000", "093942.219000", "093942.222000", "093942.225000", "093942.228000", "093942.231000", "093942.234000", "093942.236000", "094022.181000", "094022.184000", "094022.187000", "094022.190000", "094022.192000", "094022.195000", "094022.198000", "094022.201000", "094022.204000", "094022.207000", "094022.210000", "094022.213000", "094022.215000", "094022.218000", "094022.221000", "094022.224000", "094022.227000", "094022.230000", "094022.233000", "094022.236000", "094022.238000", "094022.241000", "094022.244000", "094022.247000", "094022.250000", "094022.253000", "094022.255000", "094022.258000", "094022.261000", "094022.264000", "094022.267000", "094022.270000", "094102.181000", "094102.184000", "094102.187000", "094102.189000", "094102.192000", "094102.195000", "094102.198000", "094102.201000", "094102.204000", "094102.207000", "094102.210000", "094102.212000", "094102.216000", "094102.219000", "094102.221000", "094102.224000", "094102.227000", "094102.230000", "094102.233000", "094102.235000", "094102.238000", "094102.241000", "094102.244000", "094102.247000", "094102.250000", "094102.253000", "094102.256000", "094142.181000", "094142.184000", "094142.187000", "094142.190000", "094142.193000", "094142.195000", "094142.198000", "094142.201000", "094142.204000", "094142.207000", "094142.210000", "094142.213000", "094142.228000", "094142.231000", "094142.233000", "094142.236000", "094142.239000", "094142.242000", "094142.245000", "094142.248000", "094142.251000", "094142.254000", "094142.256000", "094142.259000", "094142.262000", "094142.265000", "094142.268000", "094222.182000", "094222.185000", "094222.188000", "094222.191000", "094222.194000", "094222.197000", "094222.200000", "094222.203000", "094222.206000", "094222.208000", "094222.211000", "094222.214000", "094222.217000", "094222.220000", "094222.223000", "094222.226000", "094222.229000", "094222.232000", "094222.234000", "094222.237000", "094222.240000", "094222.243000", "094222.246000", "094222.249000", "094222.252000", "094222.255000", "094302.181000", "094302.184000", "094302.187000", "094302.190000", "094302.193000", "094302.195000", "094302.198000", "094302.201000", "094302.204000", "094302.207000", "094302.210000", "094302.213000", "094302.216000", "094302.219000", "094302.222000", "094302.224000", "094302.227000", "094302.230000", "094302.233000", "094302.236000", "094302.239000", "094302.242000", "094302.244000", "094302.247000", "094302.250000", "094302.253000", "094302.256000", "094342.181000", "094342.184000", "094342.187000", "094342.190000", "094342.193000", "094342.195000", "094342.198000", "094342.201000", "094342.204000", "094342.207000", "094342.210000", "094342.213000", "094342.216000", "094342.219000", "094342.221000", "094342.224000", "094342.227000", "094342.230000", "094342.233000", "094342.236000", "094342.239000", "094342.242000", "094342.244000", "094342.247000", "094342.250000", "094342.253000", "094342.256000", "094422.182000", "094422.185000", "094422.188000", "094422.191000", "094422.194000", "094422.197000", "094422.200000", "094422.202000", "094422.205000", "094422.208000", "094422.211000", "094422.214000", "094422.217000", "094422.220000", "094422.223000", "094422.226000", "094422.228000", "094422.231000", "094422.234000", "094422.237000", "094422.240000", "094422.243000", "094422.246000", "094422.249000", "094422.251000", "094422.254000", "094422.257000", "094502.181000", "094502.184000", "094502.187000", "094502.190000", "094502.193000", "094502.196000", "094502.198000", "094502.201000", "094502.204000", "094502.207000", "094502.210000", "094502.213000", "094502.216000", "094502.219000", "094502.222000", "094502.224000", "094502.227000", "094502.230000", "094502.233000", "094502.236000", "094502.239000", "094502.242000", "094502.245000", "094502.247000", "094502.250000", "094502.253000", "094502.256000", "094542.181000", "094542.184000", "094542.187000", "094542.189000", "094542.192000", "094542.195000", "094542.198000", "094542.201000", "094542.204000", "094542.207000", "094542.210000", "094542.213000", "094542.230000", "094542.233000", "094542.236000", "094542.239000", "094542.242000", "094542.245000", "094542.248000", "094542.251000", "094542.254000", "094542.256000", "094542.259000", "094542.262000", "094542.265000", "094542.268000", "094542.271000", "094622.181000", "094622.184000", "094622.187000", "094622.190000", "094622.192000", "094622.195000", "094622.198000", "094622.201000", "094622.204000", "094622.207000", "094622.210000", "094622.213000", "094622.232000", "094622.235000", "094622.238000", "094622.246000", "094622.249000", "094622.252000", "094622.254000", "094622.257000", "094622.260000", "094622.263000", "094622.266000", "094622.269000", "094622.272000", "094622.275000", "094622.277000", "094702.182000", "094702.185000", "094702.188000", "094702.191000", "094702.194000", "094702.197000", "094702.199000", "094702.202000", "094702.205000", "094702.208000", "094702.211000", "094702.214000", "094702.217000", "094702.220000", "094702.223000", "094702.225000", "094702.228000", "094702.231000", "094702.234000", "094702.237000", "094702.240000", "094702.243000", "094702.245000", "094702.248000", "094702.251000", "094702.256000", "094742.181000", "094742.184000", "094742.187000", "094742.190000", "094742.193000", "094742.196000", "094742.198000", "094742.201000", "094742.204000", "094742.207000", "094742.210000", "094742.213000", "094742.216000", "094742.219000", "094742.222000", "094742.224000", "094742.227000", "094742.230000", "094742.233000", "094742.236000", "094742.239000", "094742.242000", "094742.244000", "094742.247000", "094742.250000", "094742.253000", "094742.256000", "094822.181000", "094822.184000", "094822.187000", "094822.190000", "094822.193000", "094822.195000", "094822.198000", "094822.201000", "094822.204000", "094822.207000", "094822.210000", "094822.213000", "094822.216000", "094822.219000", "094822.221000", "094822.224000", "094822.227000", "094822.230000", "094822.233000", "094822.236000", "094822.239000", "094822.242000", "094822.245000", "094822.248000", "094822.250000", "094822.253000", "094822.256000", "094902.182000", "094902.185000", "094902.188000", "094902.191000", "094902.194000", "094902.196000", "094902.199000", "094902.202000", "094902.205000", "094902.208000", "094902.211000", "094902.214000", "094902.217000", "094902.220000", "094902.223000", "094902.225000", "094902.228000", "094902.231000", "094902.234000", "094902.237000", "094902.240000", "094902.243000", "094902.246000", "094902.248000", "094902.251000", "094902.254000", "094902.257000", "094915.042000", "094915.046000", "094915.048000", "094915.051000", "094915.054000", "094915.057000", "094915.060000", "094915.063000", "094915.066000"],
