{
  "AcquisitionMatrixPE": 104,
  "AcquisitionNumber": 1,
  "AcquisitionTime": "11:40:33.000000",
  "BandwidthPerPixelPhaseEncode": 17.17,
  "BaseResolution": 104,
  "BodyPartExamined": "BRAIN",
  "CoilString": "HC1-7;NC1_2",
  "ConsistencyInfo": "N4_VE11C_LATEST_20160120",
  "ConversionSoftware": "dcm2niix",
  "ConversionSoftwareVersion": "v1.0.20190902",
  "DerivedVendorReportedEchoSpacing": 0.000560011,
  "DeviceSerialNumber": "167006",
  "DwellTime": 2.1e-06,
  "EchoTime": 0.037,
  "EchoTrainLength": 104,
  "EffectiveEchoSpacing": 0.000560011,
  "FlipAngle": 52,
  "ImageComments": "Unaliased_MB4_PE3_LB",
  "ImageOrientationPatientDICOM": [0.999452, -0.0330468, -0.00209442, 0.0301868, 0.9353, -0.352566],
  "ImageType": [
    "ORIGINAL",
    "PRIMARY",
    "M",
    "MB",
    "ND",
    "MOSAIC"
],
  "ImagingFrequency": 123.259,
  "InPlanePhaseEncodingDirectionDICOM": "COL",
  "InstitutionAddress": "Chemin_Queen-Mary_4565_Montreal_District_CA_H3W_1W5",
  "InstitutionName": "IUGM",
  "InstitutionalDepartmentName": "Department",
  "MRAcquisitionType": "2D",
  "MagneticFieldStrength": 3,
  "Manufacturer": "Siemens",
  "ManufacturersModelName": "Prisma_fit",
  "Modality": "MR",
  "MultibandAccelerationFactor": 4,
  "PartialFourier": 1,
  "PatientPosition": "HFS",
  "PercentPhaseFOV": 100,
  "PhaseEncodingDirection": "j",
  "PhaseEncodingSteps": 104,
  "PhaseResolution": 1,
  "PixelBandwidth": 2290,
  "ProcedureStepDescription": "video_friends",
  "ProtocolName": "func_task-friends-s04e04b",
  "PulseSequenceDetails": "%CustomerSeq%_cmrr_mbep2d_bold",
  "ReceiveCoilActiveElements": "HC1-7;NC1,2",
  "ReceiveCoilName": "HeadNeck_64",
  "ReconMatrixPE": 104,
  "RepetitionTime": 1.49,
  "SAR": 0.0299518,
  "ScanOptions": "FS",
  "ScanningSequence": "EP",
  "SequenceName": "epfid2d1_104",
  "SequenceVariant": "SK_SS",
  "SeriesDescription": "func_task-friends-s04e04b",
  "SeriesNumber": 36,
  "ShimSetting": [632, -7264, -8830, 591, 25, -233, -38, -4],
  "SliceThickness": 2,
  "SliceTiming": [0, 0.785, 0.1, 0.8825, 0.1975, 0.98, 0.295, 1.08, 0.3925, 1.1775, 0.49, 1.275, 0.59, 1.3725, 0.6875, 0, 0.785, 0.1, 0.8825, 0.1975, 0.98, 0.295, 1.08, 0.3925, 1.1775, 0.49, 1.275, 0.59, 1.3725, 0.6875, 0, 0.785, 0.1, 0.8825, 0.1975, 0.98, 0.295, 1.08, 0.3925, 1.1775, 0.49, 1.275, 0.59, 1.3725, 0.6875, 0, 0.785, 0.1, 0.8825, 0.1975, 0.98, 0.295, 1.08, 0.3925, 1.1775, 0.49, 1.275, 0.59, 1.3725, 0.6875],
  "SoftwareVersions": "syngo_MR_E11",
  "SpacingBetweenSlices": 2,
  "StationName": "MRC35049",
  "TaskName": "s04e04b",
  "TotalReadoutTime": 0.0576811,
  "TxRefAmp": 217.225,
  "WipMemBlock": "09955a72-6465-4b80-a8ee-a41b44365a60||Sequence: R016 ve11c/master r/e634e98; Dec 19 2017 11:00:25 by eja",
  "dcmmeta_affine": [
    [-1.9989032745361328, 0.060373540967702866, -0.027220143005251884, 100.1701889038086],
    [0.06609352678060532, 1.8705998659133911, -0.7046188116073608, -73.42362976074219],
    [-0.004188830964267254, 0.7051319479942322, 1.8715691566467285, -64.63145446777344],
    [0.0, 0.0, 0.0, 1.0]
],
  "dcmmeta_reorient_transform": [
    [0.0, -1.0, 0.0, 103.0],
    [1.0, 0.0, 0.0, 0.0],
    [0.0, 0.0, 1.0, 0.0],
    [0.0, 0.0, 0.0, 1.0]
],
  "dcmmeta_shape": [104, 104, 60, 453],
  "dcmmeta_slice_dim": 2,
  "dcmmeta_version": 0.6,
  "global": {
    "const": {
      "AcquisitionMatrix": [104, 0, 0, 104],
      "AngioFlag": "N",
      "BitsAllocated": 16,
      "BitsStored": 16,
      "BodyPartExamined": "BRAIN",
      "Columns": 832,
      "EchoNumbers": 1,
      "EchoTime": 37.0,
      "EchoTrainLength": 104,
      "FlipAngle": 52.0,
      "HighBit": 15,
      "ImageOrientationPatient": [0.99945161202688, -0.0330467644484, -0.0020944155179, 0.03018677134523, 0.93529994437496, -0.3525659837363],
      "ImagePositionPatient": [-855.96540407485, -776.08847740975, 266.18990564024],
      "ImageType": [
        "ORIGINAL",
        "PRIMARY",
        "M",
        "MB",
        "ND",
        "MOSAIC"
],
      "ImagedNucleus": "1H",
      "ImagingFrequency": 123.259377,
      "InPlanePhaseEncodingDirection": "COL",
      "MRAcquisitionType": "2D",
      "MagneticFieldStrength": 3.0,
      "Manufacturer": "SIEMENS",
      "ManufacturerModelName": "Prisma_fit",
      "Modality": "MR",
      "NumberOfAverages": 1.0,
      "NumberOfPhaseEncodingSteps": 104,
      "PercentPhaseFieldOfView": 100.0,
      "PercentSampling": 100.0,
      "PerformedProcedureStepStartTime": "090531.730000",
      "PhotometricInterpretation": "MONOCHROME2",
      "PixelBandwidth": 2290.0,
      "PixelRepresentation": 0,
      "PixelSpacing": [2.0, 2.0],
      "ProtocolName": "func_task-friends-s04e04b",
      "RepetitionTime": 1490.0,
      "Rows": 832,
      "SAR": 0.02995182065027,
      "SamplesPerPixel": 1,
      "ScanOptions": "FS",
      "ScanningSequence": "EP",
      "SequenceName": "epfid2d1_104",
      "SequenceVariant": [
        "SK",
        "SS"
],
      "SeriesDescription": "func_task-friends-s04e04b",
      "SeriesNumber": 36,
      "SeriesTime": "114147.703000",
      "SliceLocation": -35.976612047687,
      "SliceThickness": 2.0,
      "SmallestImagePixelValue": 0,
      "SoftwareVersions": "syngo MR E11",
      "SpacingBetweenSlices": 1.9999999468438,
      "SpecificCharacterSet": "ISO_IR 100",
      "StudyID": "1",
      "StudyTime": "090531.606000",
      "TransmitCoilName": "Body",
      "VariableFlipAngleFlag": "N",
      "WindowCenterWidthExplanation": "Algo1",
      "dBdt": 0.0},
    "slices": {}
  },
  "time": {
    "samples": {
      "AcquisitionNumber": [1, 2, 3, 4, 5, 6, 7, 8, 9, 10, 11, 12, 13, 14, 15, 16, 17, 18, 19, 20, 21, 22, 23, 24, 25, 26, 27, 28, 29, 30, 31, 32, 33, 34, 35, 36, 37, 38, 39, 40, 41, 42, 43, 44, 45, 46, 47, 48, 49, 50, 51, 52, 53, 54, 55, 56, 57, 58, 59, 60, 61, 62, 63, 64, 65, 66, 67, 68, 69, 70, 71, 72, 73, 74, 75, 76, 77, 78, 79, 80, 81, 82, 83, 84, 85, 86, 87, 88, 89, 90, 91, 92, 93, 94, 95, 96, 97, 98, 99, 100, 101, 102, 103, 104, 105, 106, 107, 108, 109, 110, 111, 112, 113, 114, 115, 116, 117, 118, 119, 120, 121, 122, 123, 124, 125, 126, 127, 128, 129, 130, 131, 132, 133, 134, 135, 136, 137, 138, 139, 140, 141, 142, 143, 144, 145, 146, 147, 148, 149, 150, 151, 152, 153, 154, 155, 156, 157, 158, 159, 160, 161, 162, 163, 164, 165, 166, 167, 168, 169, 170, 171, 172, 173, 174, 175, 176, 177, 178, 179, 180, 181, 182, 183, 184, 185, 186, 187, 188, 189, 190, 191, 192, 193, 194, 195, 196, 197, 198, 199, 200, 201, 202, 203, 204, 205, 206, 207, 208, 209, 210, 211, 212, 213, 214, 215, 216, 217, 218, 219, 220, 221, 222, 223, 224, 225, 226, 227, 228, 229, 230, 231, 232, 233, 234, 235, 236, 237, 238, 239, 240, 241, 242, 243, 244, 245, 246, 247, 248, 249, 250, 251, 252, 253, 254, 255, 256, 257, 258, 259, 260, 261, 262, 263, 264, 265, 266, 267, 268, 269, 270, 271, 272, 273, 274, 275, 276, 277, 278, 279, 280, 281, 282, 283, 284, 285, 286, 287, 288, 289, 290, 291, 292, 293, 294, 295, 296, 297, 298, 299, 300, 301, 302, 303, 304, 305, 306, 307, 308, 309, 310, 311, 312, 313, 314, 315, 316, 317, 318, 319, 320, 321, 322, 323, 324, 325, 326, 327, 328, 329, 330, 331, 332, 333, 334, 335, 336, 337, 338, 339, 340, 341, 342, 343, 344, 345, 346, 347, 348, 349, 350, 351, 352, 353, 354, 355, 356, 357, 358, 359, 360, 361, 362, 363, 364, 365, 366, 367, 368, 369, 370, 371, 372, 373, 374, 375, 376, 377, 378, 379, 380, 381, 382, 383, 384, 385, 386, 387, 388, 389, 390, 391, 392, 393, 394, 395, 396, 397, 398, 399, 400, 401, 402, 403, 404, 405, 406, 407, 408, 409, 410, 411, 412, 413, 414, 415, 416, 417, 418, 419, 420, 421, 422, 423, 424, 425, 426, 427, 428, 429, 430, 431, 432, 433, 434, 435, 436, 437, 438, 439, 440, 441, 442, 443, 444, 445, 446, 447, 448, 449, 450, 451, 452, 453],
      "AcquisitionTime": ["114033.000000", "114034.490000", "114035.980000", "114037.470000", "114038.960000", "114040.450000", "114041.940000", "114043.430000", "114044.920000", "114046.410000", "114047.900000", "114049.390000", "114050.880000", "114052.370000", "114053.860000", "114055.350000", "114056.840000", "114058.330000", "114059.820000", "114101.310000", "114102.800000", "114104.290000", "114105.780000", "114107.270000", "114108.760000", "114110.250000", "114111.740000", "114113.230000", "114114.720000", "114116.210000", "114117.700000", "114119.190000", "114120.680000", "114122.170000", "114123.660000", "114125.150000", "114126.640000", "114128.130000", "114129.620000", "114131.110000", "114132.600000", "114134.090000", "114135.580000", "114137.070000", "114138.560000", "114140.050000", "114141.540000", "114143.030000", "114144.520000", "114146.010000", "114147.500000", "114148.990000", "114150.480000", "114151.970000", "114153.460000", "114154.950000", "114156.440000", "114157.930000", "114159.420000", "114200.910000", "114202.400000", "114203.890000", "114205.380000", "114206.870000", "114208.360000", "114209.850000", "114211.340000", "114212.830000", "114214.320000", "114215.810000", "114217.300000", "114218.790000", "114220.280000", "114221.770000", "114223.260000", "114224.750000", "114226.240000", "114227.730000", "114229.220000", "114230.710000", "114232.200000", "114233.690000", "114235.180000", "114236.670000", "114238.160000", "114239.650000", "114241.140000", "114242.630000", "114244.120000", "114245.610000", "114247.100000", "114248.590000", "114250.080000", "114251.570000", "114253.060000", "114254.550000", "114256.040000", "114257.530000", "114259.020000", "114300.510000", "114302.000000", "114303.490000", "114304.980000", "114306.470000", "114307.960000", "114309.450000", "114310.940000", "114312.430000", "114313.920000", "114315.410000", "114316.900000", "114318.390000", "114319.880000", "114321.370000", "114322.860000", "114324.350000", "114325.840000", "114327.330000", "114328.820000", "114330.310000", "114331.800000", "114333.290000", "114334.780000", "114336.270000", "114337.760000", "114339.250000", "114340.740000", "114342.230000", "114343.720000", "114345.210000", "114346.700000", "114348.190000", "114349.680000", "114351.170000", "114352.660000", "114354.150000", "114355.640000", "114357.130000", "114358.620000", "114400.110000", "114401.600000", "114403.090000", "114404.580000", "114406.070000", "114407.560000", "114409.050000", "114410.540000", "114412.030000", "114413.520000", "114415.010000", "114416.500000", "114417.990000", "114419.480000", "114420.970000", "114422.460000", "114423.950000", "114425.440000", "114426.930000", "114428.420000", "114429.910000", "114431.400000", "114432.890000", "114434.380000", "114435.870000", "114437.360000", "114438.850000", "114440.340000", "114441.830000", "114443.320000", "114444.810000", "114446.300000", "114447.790000", "114449.280000", "114450.770000", "114452.260000", "114453.750000", "114455.240000", "114456.730000", "114458.220000", "114459.710000", "114501.200000", "114502.690000", "114504.180000", "114505.670000", "114507.160000", "114508.650000", "114510.140000", "114511.630000", "114513.120000", "114514.610000", "114516.100000", "114517.590000", "114519.080000", "114520.570000", "114522.060000", "114523.550000", "114525.040000", "114526.530000", "114528.020000", "114529.510000", "114531.000000", "114532.490000", "114533.980000", "114535.470000", "114536.960000", "114538.450000", "114539.940000", "114541.430000", "114542.920000", "114544.410000", "114545.900000", "114547.390000", "114548.880000", "114550.370000", "114551.860000", "114553.350000", "114554.840000", "114556.330000", "114557.820000", "114559.310000", "114600.800000", "114602.290000", "114603.780000", "114605.270000", "114606.760000", "114608.250000", "114609.740000", "114611.230000", "114612.720000", "114614.210000", "114615.700000", "114617.190000", "114618.680000", "114620.170000", "114621.660000", "114623.150000", "114624.640000", "114626.130000", "114627.620000", "114629.110000", "114630.600000", "114632.090000", "114633.580000", "114635.070000", "114636.560000", "114638.050000", "114639.540000", "114641.030000", "114642.520000", "114644.010000", "114645.500000", "114646.990000", "114648.480000", "114649.970000", "114651.460000", "114652.950000", "114654.440000", "114655.930000", "114657.420000", "114658.910000", "114700.400000", "114701.890000", "114703.380000", "114704.870000", "114706.360000", "114707.850000", "114709.340000", "114710.830000", "114712.320000", "114713.810000", "114715.300000", "114716.790000", "114718.280000", "114719.770000", "114721.260000", "114722.750000", "114724.240000", "114725.730000", "114727.220000", "114728.710000", "114730.200000", "114731.690000", "114733.180000", "114734.670000", "114736.160000", "114737.650000", "114739.140000", "114740.630000", "114742.120000", "114743.610000", "114745.100000", "114746.590000", "114748.080000", "114749.570000", "114751.060000", "114752.550000", "114754.040000", "114755.530000", "114757.020000", "114758.510000", "114800.000000", "114801.490000", "114802.980000", "114804.470000", "114805.960000", "114807.450000", "114808.940000", "114810.430000", "114811.920000", "114813.410000", "114814.900000", "114816.390000", "114817.880000", "114819.370000", "114820.860000", "114822.350000", "114823.840000", "114825.330000", "114826.820000", "114828.310000", "114829.800000", "114831.290000", "114832.780000", "114834.270000", "114835.760000", "114837.250000", "114838.740000", "114840.230000", "114841.720000", "114843.210000", "114844.700000", "114846.190000", "114847.680000", "114849.170000", "114850.660000", "114852.150000", "114853.640000", "114855.130000", "114856.620000", "114858.110000", "114859.600000", "114901.090000", "114902.580000", "114904.070000", "114905.560000", "114907.050000", "114908.540000", "114910.030000", "114911.520000", "114913.010000", "114914.500000", "114915.990000", "114917.480000", "114918.970000", "114920.460000", "114921.950000", "114923.440000", "114924.930000", "114926.420000", "114927.910000", "114929.400000", "114930.890000", "114932.380000", "114933.870000", "114935.360000", "114936.850000", "114938.340000", "114939.830000", "114941.320000", "114942.810000", "114944.300000", "114945.790000", "114947.280000", "114948.770000", "114950.260000", "114951.750000", "114953.240000", "114954.730000", "114956.220000", "114957.710000", "114959.200000", "115000.690000", "115002.180000", "115003.670000", "115005.160000", "115006.650000", "115008.140000", "115009.630000", "115011.120000", "115012.610000", "115014.100000", "115015.590000", "115017.080000", "115018.570000", "115020.060000", "115021.550000", "115023.040000", "115024.530000", "115026.020000", "115027.510000", "115029.000000", "115030.490000", "115031.980000", "115033.470000", "115034.960000", "115036.450000", "115037.940000", "115039.430000", "115040.920000", "115042.410000", "115043.900000", "115045.390000", "115046.880000", "115048.370000", "115049.860000", "115051.350000", "115052.840000", "115054.330000", "115055.820000", "115057.310000", "115058.800000", "115100.290000", "115101.780000", "115103.270000", "115104.760000", "115106.250000", "115107.740000", "115109.230000", "115110.720000", "115112.210000", "115113.700000", "115115.190000", "115116.680000", "115118.170000", "115119.660000", "115121.150000", "115122.640000", "115124.130000", "115125.620000", "115127.110000", "115128.600000", "115130.090000", "115131.580000", "115133.070000", "115134.560000", "115136.050000", "115137.540000", "115139.030000", "115140.520000", "115142.010000", "115143.500000", "115144.990000", "115146.480000"],
      "ContentTime": ["114147.706000", "114147.709000", "114147.712000", "114147.720000", "114147.723000", "114147.725000", "114147.728000", "114147.731000", "114147.734000", "114147.737000", "114147.740000", "114147.743000", "114147.746000", "114147.749000", "114147.752000", "114147.754000", "114147.761000", "114147.764000", "114147.766000", "114147.769000", "114207.675000", "114207.678000", "114207.681000", "114207.689000", "114207.692000", "114207.695000", "114207.698000", "114207.701000", "114207.704000", "114207.707000", "114207.710000", "114207.713000", "114207.716000", "114207.718000", "114207.721000", "114207.724000", "114207.727000", "114207.730000", "114207.733000", "114207.736000", "114207.739000", "114227.675000", "114227.678000", "114227.681000", "114227.684000", "114227.687000", "114227.690000", "114227.693000", "114227.696000", "114227.698000", "114227.701000", "114227.704000", "114227.707000", "114227.710000", "114227.713000", "114227.716000", "114227.719000", "114227.722000", "114227.725000", "114227.728000", "114227.730000", "114247.675000", "114247.678000", "114247.681000", "114247.684000", "114247.687000", "114247.690000", "114247.693000", "114247.696000", "114247.698000", "114247.701000", "114247.704000", "114247.707000", "114247.710000", "114247.713000", "114247.716000", "114247.719000", "114247.722000", "114247.724000", "114247.727000", "114247.730000", "114307.674000", "114307.677000", "114307.680000", "114307.683000", "114307.686000", "114307.689000", "114307.692000", "114307.695000", "114307.697000", "114307.700000", "114307.703000", "114307.706000", "114307.709000", "114307.712000", "114307.715000", "114307.718000", "114307.721000", "114307.723000", "114307.726000", "114307.729000", "114347.674000", "114347.677000", "114347.680000", "114347.683000", "114347.686000", "114347.689000", "114347.692000", "114347.695000", "114347.698000", "114347.700000", "114347.703000", "114347.706000", "114347.709000", "114347.712000", "114347.715000", "114347.718000", "114347.721000", "114347.724000", "114347.726000", "114347.729000", "114347.732000", "114347.735000", "114347.743000", "114347.746000", "114347.749000", "114347.752000", "114347.754000", "114347.757000", "114347.760000", "114427.675000", "114427.678000", "114427.681000", "114427.684000", "114427.687000", "114427.690000", "114427.693000", "114427.696000", "114427.698000", "114427.701000", "114427.704000", "114427.707000", "114427.710000", "114427.713000", "114427.716000", "114427.719000", "114427.722000", "114427.725000", "114427.728000", "114427.730000", "114427.733000", "114427.736000", "114427.739000", "114427.742000", "114427.745000", "114427.748000", "114427.765000", "114507.675000", "114507.678000", "114507.681000", "114507.684000", "114507.687000", "114507.690000", "114507.693000", "114507.695000", "114507.698000", "114507.701000", "114507.704000", "114507.707000", "114507.710000", "114507.713000", "114507.716000", "114507.719000", "114507.722000", "114507.724000", "114507.727000", "114507.730000", "114507.733000", "114507.736000", "114507.739000", "114507.742000", "114507.745000", "114507.748000", "114507.751000", "114547.674000", "114547.677000", "114547.680000", "114547.683000", "114547.686000", "114547.689000", "114547.692000", "114547.695000", "114547.698000", "114547.701000", "114547.703000", "114547.706000", "114547.709000", "114547.712000", "114547.715000", "114547.718000", "114547.721000", "114547.724000", "114547.727000", "114547.730000", "114547.733000", "114547.736000", "114547.739000", "114547.742000", "114547.744000", "114547.747000", "114627.675000", "114627.678000", "114627.681000", "114627.684000", "114627.687000", "114627.690000", "114627.693000", "114627.696000", "114627.698000", "114627.701000", "114627.704000", "114627.707000", "114627.710000", "114627.713000", "114627.716000", "114627.719000", "114627.721000", "114627.724000", "114627.727000", "114627.730000", "114627.733000", "114627.736000", "114627.739000", "114627.742000", "114627.745000", "114627.748000", "114627.750000", "114707.675000", "114707.678000", "114707.681000", "114707.685000", "114707.699000", "114707.702000", "114707.705000", "114707.708000", "114707.711000", "114707.713000", "114707.716000", "114707.719000", "114707.722000", "114707.725000", "114707.728000", "114707.731000", "114707.734000", "114707.737000", "114707.739000", "114707.742000", "114707.745000", "114707.748000", "114707.751000", "114707.754000", "114707.757000", "114707.760000", "114707.763000", "114747.674000", "114747.677000", "114747.680000", "114747.683000", "114747.686000", "114747.689000", "114747.692000", "114747.695000", "114747.698000", "114747.700000", "114747.703000", "114747.706000", "114747.709000", "114747.712000", "114747.715000", "114747.718000", "114747.721000", "114747.724000", "114747.727000", "114747.730000", "114747.732000", "114747.735000", "114747.738000", "114747.741000", "114747.744000", "114747.747000", "114747.750000", "114827.674000", "114827.677000", "114827.680000", "114827.683000", "114827.686000", "114827.689000", "114827.692000", "114827.695000", "114827.698000", "114827.701000", "114827.704000", "114827.707000", "114827.709000", "114827.712000", "114827.715000", "114827.718000", "114827.721000", "114827.724000", "114827.727000", "114827.730000", "114827.733000", "114827.735000", "114827.739000", "114827.741000", "114827.744000", "114827.747000", "114827.750000", "114907.675000", "114907.678000", "114907.686000", "114907.689000", "114907.692000", "114907.695000", "114907.698000", "114907.701000", "114907.704000", "114907.707000", "114907.710000", "114907.713000", "114907.715000", "114907.718000", "114907.721000", "114907.724000", "114907.727000", "114907.730000", "114907.733000", "114907.736000", "114907.739000", "114907.755000", "114907.758000", "114907.761000", "114907.764000", "114907.767000", "114907.770000", "114947.675000", "114947.678000", "114947.681000", "114947.684000", "114947.687000", "114947.690000", "114947.693000", "114947.696000", "114947.699000", "114947.702000", "114947.705000", "114947.708000", "114947.711000", "114947.714000", "114947.717000", "114947.719000", "114947.722000", "114947.725000", "114947.728000", "114947.731000", "114947.734000", "114947.737000", "114947.740000", "114947.743000", "114947.746000", "114947.749000", "115027.674000", "115027.677000", "115027.680000", "115027.683000", "115027.686000", "115027.689000", "115027.692000", "115027.695000", "115027.698000", "115027.700000", "115027.703000", "115027.706000", "115027.709000", "115027.712000", "115027.715000", "115027.718000", "115027.721000", "115027.724000", "115027.727000", "115027.730000", "115027.732000", "115027.735000", "115027.738000", "115027.741000", "115027.744000", "115027.747000", "115027.750000", "115107.675000", "115107.678000", "115107.681000", "115107.684000", "115107.687000", "115107.690000", "115107.693000", "115107.696000", "115107.699000", "115107.702000", "115107.705000", "115107.708000", "115107.710000", "115107.713000", "115107.716000", "115107.719000", "115107.722000", "115107.725000", "115107.728000", "115107.731000", "115107.734000", "115107.737000", "115107.740000", "115107.742000", "115107.745000", "115107.748000", "115107.751000", "115147.675000", "115147.678000", "115147.681000", "115147.684000", "115147.687000", "115147.690000", "115147.693000", "115147.696000", "115147.699000", "115147.702000", "115147.705000", "115147.707000", "115147.710000", "115147.713000", "115147.716000", "115147.719000", "115147.722000", "115147.725000", "115147.728000", "115147.731000", "115147.734000", "115147.737000", "115147.740000", "115147.742000", "115147.745000", "115147.748000", "115147.751000", "115148.405000"],
