{
  "AcquisitionMatrixPE": 104,
  "AcquisitionNumber": 1,
  "AcquisitionTime": "09:50:27.477500",
  "BandwidthPerPixelPhaseEncode": 17.17,
  "BaseResolution": 104,
  "BodyPartExamined": "BRAIN",
  "CoilString": "HC1-7;NC1_2",
  "ConsistencyInfo": "N4_VE11C_LATEST_20160120",
  "ConversionSoftware": "dcm2niix",
  "ConversionSoftwareVersion": "v1.0.20190902",
  "DerivedVendorReportedEchoSpacing": 0.000560011,
  "DeviceSerialNumber": "167006",
  "DwellTime": 2.1e-06,
  "EchoTime": 0.037,
  "EchoTrainLength": 104,
  "EffectiveEchoSpacing": 0.000560011,
  "FlipAngle": 52,
  "ImageComments": "Unaliased_MB4_PE3_LB",
  "ImageOrientationPatientDICOM": [0.99834, -0.0575119, 0.00322531, 0.0549419, 0.933916, -0.353244],
  "ImageType": [
    "ORIGINAL",
    "PRIMARY",
    "M",
    "MB",
    "ND",
    "MOSAIC"
],
  "ImagingFrequency": 123.259,
  "InPlanePhaseEncodingDirectionDICOM": "COL",
  "InstitutionAddress": "Chemin_Queen-Mary_4565_Montreal_District_CA_H3W_1W5",
  "InstitutionName": "IUGM",
  "InstitutionalDepartmentName": "Department",
  "MRAcquisitionType": "2D",
  "MagneticFieldStrength": 3,
  "Manufacturer": "Siemens",
  "ManufacturersModelName": "Prisma_fit",
  "Modality": "MR",
  "MultibandAccelerationFactor": 4,
  "PartialFourier": 1,
  "PatientPosition": "HFS",
  "PercentPhaseFOV": 100,
  "PhaseEncodingDirection": "j",
  "PhaseEncodingSteps": 104,
  "PhaseResolution": 1,
  "PixelBandwidth": 2290,
  "ProcedureStepDescription": "video_friends",
  "ProtocolName": "func_task-friends-s04e01a",
  "PulseSequenceDetails": "%CustomerSeq%_cmrr_mbep2d_bold",
  "ReceiveCoilActiveElements": "HC1-7;NC1,2",
  "ReceiveCoilName": "HeadNeck_64",
  "ReconMatrixPE": 104,
  "RepetitionTime": 1.49,
  "SAR": 0.031684,
  "ScanOptions": "FS",
  "ScanningSequence": "EP",
  "SequenceName": "epfid2d1_104",
  "SequenceVariant": "SK_SS",
  "SeriesDescription": "func_task-friends-s04e01a",
  "SeriesNumber": 13,
  "ShimSetting": [635, -7257, -8827, 611, 12, -205, -54, -12],
  "SliceThickness": 2,
  "SliceTiming": [0, 0.785, 0.1, 0.8825, 0.1975, 0.98, 0.295, 1.08, 0.3925, 1.1775, 0.49, 1.275, 0.59, 1.3725, 0.6875, 0, 0.785, 0.1, 0.8825, 0.1975, 0.98, 0.295, 1.08, 0.3925, 1.1775, 0.49, 1.275, 0.59, 1.3725, 0.6875, 0, 0.785, 0.1, 0.8825, 0.1975, 0.98, 0.295, 1.08, 0.3925, 1.1775, 0.49, 1.275, 0.59, 1.3725, 0.6875, 0, 0.785, 0.1, 0.8825, 0.1975, 0.98, 0.295, 1.08, 0.3925, 1.1775, 0.49, 1.275, 0.59, 1.3725, 0.6875],
  "SoftwareVersions": "syngo_MR_E11",
  "SpacingBetweenSlices": 2,
  "StationName": "MRC35049",
  "TaskName": "s04e01a",
  "TotalReadoutTime": 0.0576811,
  "TxRefAmp": 221.029,
  "WipMemBlock": "c7bce8f3-659f-4e2a-b9f8-b222556fe1d8||Sequence: R016 ve11c/master r/e634e98; Dec 19 2017 11:00:25 by eja",
  "dcmmeta_affine": [
    [-1.9966791868209839, 0.10988375544548035, -0.0346071757376194, 97.1856460571289],
    [0.11502385139465332, 1.8678327798843384, -0.7056699991226196, -77.10331726074219],
    [0.006450623739510775, 0.7064886093139648, 1.8710511922836304, -67.44286346435547],
    [0.0, 0.0, 0.0, 1.0]
],
  "dcmmeta_reorient_transform": [
    [0.0, -1.0, 0.0, 103.0],
    [1.0, 0.0, 0.0, 0.0],
    [0.0, 0.0, 1.0, 0.0],
    [0.0, 0.0, 0.0, 1.0]
],
  "dcmmeta_shape": [104, 104, 60, 468],
  "dcmmeta_slice_dim": 2,
  "dcmmeta_version": 0.6,
  "global": {
    "const": {
      "AcquisitionMatrix": [104, 0, 0, 104],
      "AngioFlag": "N",
      "BitsAllocated": 16,
      "BitsStored": 16,
      "BodyPartExamined": "BRAIN",
      "Columns": 832,
      "EchoNumbers": 1,
      "EchoTime": 37.0,
      "EchoTrainLength": 104,
      "FlipAngle": 52.0,
      "HighBit": 15,
      "ImageOrientationPatient": [0.99833960953898, -0.0575119238798, 0.00322531195524, 0.05494187712189, 0.93391640256159, -0.3532443108739],
      "ImagePositionPatient": [-875.29259662299, -753.30592212201, 260.13929571724],
      "ImageType": [
        "ORIGINAL",
        "PRIMARY",
        "M",
        "MB",
        "ND",
        "MOSAIC"
],
      "ImagedNucleus": "1H",
      "ImagingFrequency": 123.259363,
      "InPlanePhaseEncodingDirection": "COL",
      "MRAcquisitionType": "2D",
      "MagneticFieldStrength": 3.0,
      "Manufacturer": "SIEMENS",
      "ManufacturerModelName": "Prisma_fit",
      "Modality": "MR",
      "NumberOfAverages": 1.0,
      "NumberOfPhaseEncodingSteps": 104,
      "PercentPhaseFieldOfView": 100.0,
      "PercentSampling": 100.0,
      "PerformedProcedureStepStartTime": "090531.730000",
      "PhotometricInterpretation": "MONOCHROME2",
      "PixelBandwidth": 2290.0,
      "PixelRepresentation": 0,
      "PixelSpacing": [2.0, 2.0],
      "ProtocolName": "func_task-friends-s04e01a",
      "RepetitionTime": 1490.0,
      "Rows": 832,
      "SAR": 0.03168400007069,
      "SamplesPerPixel": 1,
      "ScanOptions": "FS",
      "ScanningSequence": "EP",
      "SequenceName": "epfid2d1_104",
      "SequenceVariant": [
        "SK",
        "SS"
],
      "SeriesDescription": "func_task-friends-s04e01a",
      "SeriesNumber": 13,
      "SeriesTime": "095151.424000",
      "SliceLocation": -37.571434064138,
      "SliceThickness": 2.0,
      "SmallestImagePixelValue": 0,
      "SoftwareVersions": "syngo MR E11",
      "SpacingBetweenSlices": 2.0000000400743,
      "SpecificCharacterSet": "ISO_IR 100",
      "StudyID": "1",
      "StudyTime": "090531.606000",
      "TransmitCoilName": "Body",
      "VariableFlipAngleFlag": "N",
      "WindowCenterWidthExplanation": "Algo1",
      "dBdt": 0.0},
    "slices": {}
  },
  "time": {
    "samples": {
      "AcquisitionNumber": [1, 2, 3, 4, 5, 6, 7, 8, 9, 10, 11, 12, 13, 14, 15, 16, 17, 18, 19, 20, 21, 22, 23, 24, 25, 26, 27, 28, 29, 30, 31, 32, 33, 34, 35, 36, 37, 38, 39, 40, 41, 42, 43, 44, 45, 46, 47, 48, 49, 50, 51, 52, 53, 54, 55, 56, 57, 58, 59, 60, 61, 62, 63, 64, 65, 66, 67, 68, 69, 70, 71, 72, 73, 74, 75, 76, 77, 78, 79, 80, 81, 82, 83, 84, 85, 86, 87, 88, 89, 90, 91, 92, 93, 94, 95, 96, 97, 98, 99, 100, 101, 102, 103, 104, 105, 106, 107, 108, 109, 110, 111, 112, 113, 114, 115, 116, 117, 118, 119, 120, 121, 122, 123, 124, 125, 126, 127, 128, 129, 130, 131, 132, 133, 134, 135, 136, 137, 138, 139, 140, 141, 142, 143, 144, 145, 146, 147, 148, 149, 150, 151, 152, 153, 154, 155, 156, 157, 158, 159, 160, 161, 162, 163, 164, 165, 166, 167, 168, 169, 170, 171, 172, 173, 174, 175, 176, 177, 178, 179, 180, 181, 182, 183, 184, 185, 186, 187, 188, 189, 190, 191, 192, 193, 194, 195, 196, 197, 198, 199, 200, 201, 202, 203, 204, 205, 206, 207, 208, 209, 210, 211, 212, 213, 214, 215, 216, 217, 218, 219, 220, 221, 222, 223, 224, 225, 226, 227, 228, 229, 230, 231, 232, 233, 234, 235, 236, 237, 238, 239, 240, 241, 242, 243, 244, 245, 246, 247, 248, 249, 250, 251, 252, 253, 254, 255, 256, 257, 258, 259, 260, 261, 262, 263, 264, 265, 266, 267, 268, 269, 270, 271, 272, 273, 274, 275, 276, 277, 278, 279, 280, 281, 282, 283, 284, 285, 286, 287, 288, 289, 290, 291, 292, 293, 294, 295, 296, 297, 298, 299, 300, 301, 302, 303, 304, 305, 306, 307, 308, 309, 310, 311, 312, 313, 314, 315, 316, 317, 318, 319, 320, 321, 322, 323, 324, 325, 326, 327, 328, 329, 330, 331, 332, 333, 334, 335, 336, 337, 338, 339, 340, 341, 342, 343, 344, 345, 346, 347, 348, 349, 350, 351, 352, 353, 354, 355, 356, 357, 358, 359, 360, 361, 362, 363, 364, 365, 366, 367, 368, 369, 370, 371, 372, 373, 374, 375, 376, 377, 378, 379, 380, 381, 382, 383, 384, 385, 386, 387, 388, 389, 390, 391, 392, 393, 394, 395, 396, 397, 398, 399, 400, 401, 402, 403, 404, 405, 406, 407, 408, 409, 410, 411, 412, 413, 414, 415, 416, 417, 418, 419, 420, 421, 422, 423, 424, 425, 426, 427, 428, 429, 430, 431, 432, 433, 434, 435, 436, 437, 438, 439, 440, 441, 442, 443, 444, 445, 446, 447, 448, 449, 450, 451, 452, 453, 454, 455, 456, 457, 458, 459, 460, 461, 462, 463, 464, 465, 466, 467, 468],
      "AcquisitionTime": ["095027.477500", "095028.967500", "095030.457500", "095031.947500", "095033.437500", "095034.927500", "095036.417500", "095037.907500", "095039.397500", "095040.887500", "095042.377500", "095043.867500", "095045.357500", "095046.847500", "095048.337500", "095049.827500", "095051.317500", "095052.807500", "095054.297500", "095055.787500", "095057.277500", "095058.767500", "095100.257500", "095101.747500", "095103.237500", "095104.727500", "095106.217500", "095107.707500", "095109.197500", "095110.687500", "095112.177500", "095113.667500", "095115.157500", "095116.647500", "095118.137500", "095119.627500", "095121.117500", "095122.607500", "095124.097500", "095125.587500", "095127.077500", "095128.567500", "095130.057500", "095131.547500", "095133.037500", "095134.527500", "095136.017500", "095137.507500", "095138.997500", "095140.487500", "095141.977500", "095143.467500", "095144.957500", "095146.447500", "095147.937500", "095149.427500", "095150.917500", "095152.407500", "095153.897500", "095155.387500", "095156.877500", "095158.367500", "095159.857500", "095201.347500", "095202.837500", "095204.327500", "095205.817500", "095207.307500", "095208.797500", "095210.287500", "095211.777500", "095213.267500", "095214.757500", "095216.247500", "095217.737500", "095219.227500", "095220.717500", "095222.207500", "095223.697500", "095225.187500", "095226.677500", "095228.167500", "095229.657500", "095231.147500", "095232.637500", "095234.127500", "095235.617500", "095237.107500", "095238.597500", "095240.087500", "095241.577500", "095243.067500", "095244.557500", "095246.047500", "095247.537500", "095249.027500", "095250.517500", "095252.007500", "095253.497500", "095254.987500", "095256.477500", "095257.967500", "095259.457500", "095300.947500", "095302.437500", "095303.927500", "095305.417500", "095306.907500", "095308.397500", "095309.887500", "095311.377500", "095312.867500", "095314.357500", "095315.847500", "095317.337500", "095318.827500", "095320.317500", "095321.807500", "095323.297500", "095324.787500", "095326.277500", "095327.767500", "095329.257500", "095330.747500", "095332.237500", "095333.727500", "095335.217500", "095336.707500", "095338.197500", "095339.687500", "095341.177500", "095342.667500", "095344.157500", "095345.647500", "095347.137500", "095348.627500", "095350.117500", "095351.607500", "095353.097500", "095354.587500", "095356.077500", "095357.567500", "095359.057500", "095400.547500", "095402.037500", "095403.527500", "095405.017500", "095406.507500", "095407.997500", "095409.487500", "095410.977500", "095412.467500", "095413.957500", "095415.447500", "095416.937500", "095418.427500", "095419.917500", "095421.407500", "095422.897500", "095424.387500", "095425.877500", "095427.367500", "095428.857500", "095430.347500", "095431.837500", "095433.327500", "095434.817500", "095436.307500", "095437.797500", "095439.287500", "095440.777500", "095442.267500", "095443.757500", "095445.247500", "095446.737500", "095448.227500", "095449.717500", "095451.207500", "095452.697500", "095454.187500", "095455.677500", "095457.167500", "095458.657500", "095500.147500", "095501.637500", "095503.127500", "095504.617500", "095506.107500", "095507.597500", "095509.087500", "095510.577500", "095512.067500", "095513.557500", "095515.047500", "095516.537500", "095518.027500", "095519.517500", "095521.007500", "095522.497500", "095523.987500", "095525.477500", "095526.967500", "095528.457500", "095529.947500", "095531.437500", "095532.927500", "095534.417500", "095535.907500", "095537.397500", "095538.887500", "095540.377500", "095541.867500", "095543.357500", "095544.847500", "095546.337500", "095547.827500", "095549.317500", "095550.807500", "095552.297500", "095553.787500", "095555.277500", "095556.767500", "095558.257500", "095559.747500", "095601.237500", "095602.727500", "095604.217500", "095605.707500", "095607.197500", "095608.687500", "095610.177500", "095611.667500", "095613.157500", "095614.647500", "095616.137500", "095617.627500", "095619.117500", "095620.607500", "095622.097500", "095623.587500", "095625.077500", "095626.567500", "095628.057500", "095629.547500", "095631.037500", "095632.527500", "095634.017500", "095635.507500", "095636.997500", "095638.487500", "095639.977500", "095641.467500", "095642.957500", "095644.447500", "095645.937500", "095647.427500", "095648.917500", "095650.407500", "095651.897500", "095653.387500", "095654.877500", "095656.367500", "095657.857500", "095659.347500", "095700.837500", "095702.327500", "095703.817500", "095705.307500", "095706.797500", "095708.287500", "095709.777500", "095711.267500", "095712.757500", "095714.247500", "095715.737500", "095717.227500", "095718.717500", "095720.207500", "095721.697500", "095723.187500", "095724.677500", "095726.167500", "095727.657500", "095729.147500", "095730.637500", "095732.127500", "095733.617500", "095735.107500", "095736.597500", "095738.087500", "095739.577500", "095741.067500", "095742.557500", "095744.047500", "095745.537500", "095747.027500", "095748.517500", "095750.007500", "095751.497500", "095752.987500", "095754.477500", "095755.967500", "095757.457500", "095758.947500", "095800.437500", "095801.927500", "095803.417500", "095804.907500", "095806.397500", "095807.887500", "095809.377500", "095810.867500", "095812.357500", "095813.847500", "095815.337500", "095816.827500", "095818.317500", "095819.807500", "095821.297500", "095822.787500", "095824.277500", "095825.767500", "095827.257500", "095828.747500", "095830.237500", "095831.727500", "095833.217500", "095834.707500", "095836.197500", "095837.687500", "095839.177500", "095840.667500", "095842.157500", "095843.647500", "095845.137500", "095846.627500", "095848.117500", "095849.607500", "095851.097500", "095852.587500", "095854.077500", "095855.567500", "095857.057500", "095858.547500", "095900.037500", "095901.527500", "095903.017500", "095904.507500", "095905.997500", "095907.487500", "095908.977500", "095910.467500", "095911.957500", "095913.447500", "095914.937500", "095916.427500", "095917.917500", "095919.407500", "095920.897500", "095922.387500", "095923.877500", "095925.367500", "095926.857500", "095928.347500", "095929.837500", "095931.327500", "095932.817500", "095934.307500", "095935.797500", "095937.287500", "095938.777500", "095940.267500", "095941.757500", "095943.247500", "095944.737500", "095946.227500", "095947.717500", "095949.207500", "095950.697500", "095952.187500", "095953.677500", "095955.167500", "095956.657500", "095958.147500", "095959.637500", "100001.127500", "100002.617500", "100004.107500", "100005.597500", "100007.087500", "100008.577500", "100010.067500", "100011.557500", "100013.047500", "100014.537500", "100016.027500", "100017.517500", "100019.007500", "100020.497500", "100021.987500", "100023.477500", "100024.967500", "100026.457500", "100027.947500", "100029.437500", "100030.927500", "100032.417500", "100033.907500", "100035.397500", "100036.887500", "100038.377500", "100039.867500", "100041.357500", "100042.847500", "100044.337500", "100045.827500", "100047.317500", "100048.807500", "100050.297500", "100051.787500", "100053.277500", "100054.767500", "100056.257500", "100057.747500", "100059.237500", "100100.727500", "100102.217500", "100103.707500", "100105.197500", "100106.687500", "100108.177500", "100109.667500", "100111.157500", "100112.647500", "100114.137500", "100115.627500", "100117.117500", "100118.607500", "100120.097500", "100121.587500", "100123.077500", "100124.567500", "100126.057500", "100127.547500", "100129.037500", "100130.527500", "100132.017500", "100133.507500", "100134.997500", "100136.487500", "100137.977500", "100139.467500", "100140.957500", "100142.447500", "100143.937500", "100145.427500", "100146.917500", "100148.407500", "100149.897500", "100151.387500", "100152.877500", "100154.367500", "100155.857500", "100157.347500", "100158.837500", "100200.327500", "100201.817500", "100203.307500"],
      "ContentTime": ["095151.427000", "095151.430000", "095151.433000", "095151.436000", "095151.443000", "095151.446000", "095151.449000", "095151.459000", "095151.462000", "095151.465000", "095151.468000", "095151.470000", "095151.473000", "095151.476000", "095151.479000", "095151.482000", "095151.485000", "095151.488000", "095151.491000", "095151.493000", "095151.496000", "095151.499000", "095151.502000", "095151.505000", "095151.512000", "095151.515000", "095151.518000", "095151.521000", "095151.524000", "095211.395000", "095211.398000", "095211.401000", "095211.404000", "095211.407000", "095211.409000", "095211.412000", "095211.415000", "095211.418000", "095211.421000", "095211.424000", "095211.427000", "095211.430000", "095211.433000", "095211.435000", "095211.438000", "095211.441000", "095211.444000", "095211.447000", "095211.450000", "095231.396000", "095231.413000", "095231.415000", "095231.434000", "095231.438000", "095231.447000", "095231.450000", "095231.452000", "095231.455000", "095231.458000", "095231.461000", "095231.464000", "095231.467000", "095231.470000", "095231.472000", "095231.475000", "095231.478000", "095231.481000", "095231.484000", "095231.487000", "095231.490000", "095251.396000", "095251.399000", "095251.402000", "095251.404000", "095251.407000", "095251.410000", "095251.413000", "095251.416000", "095251.419000", "095251.422000", "095251.425000", "095251.428000", "095251.431000", "095251.433000", "095251.436000", "095251.439000", "095251.442000", "095251.445000", "095251.448000", "095251.451000", "095331.396000", "095331.399000", "095331.402000", "095331.405000", "095331.408000", "095331.411000", "095331.414000", "095331.416000", "095331.419000", "095331.422000", "095331.425000", "095331.428000", "095331.431000", "095331.434000", "095331.437000", "095331.440000", "095331.442000", "095331.445000", "095331.448000", "095331.451000", "095331.454000", "095331.457000", "095331.460000", "095331.463000", "095331.465000", "095331.468000", "095331.471000", "095331.474000", "095331.477000", "095331.480000", "095331.483000", "095331.486000", "095331.489000", "095411.396000", "095411.399000", "095411.402000", "095411.405000", "095411.408000", "095411.411000", "095411.413000", "095411.416000", "095411.419000", "095411.422000", "095411.425000", "095411.428000", "095411.431000", "095411.434000", "095411.437000", "095411.440000", "095411.443000", "095411.446000", "095411.449000", "095411.452000", "095411.455000", "095411.458000", "095411.460000", "095411.463000", "095411.466000", "095411.469000", "095411.472000", "095451.396000", "095451.399000", "095451.402000", "095451.405000", "095451.415000", "095451.418000", "095451.420000", "095451.423000", "095451.427000", "095451.430000", "095451.433000", "095451.436000", "095451.439000", "095451.442000", "095451.445000", "095451.447000", "095451.450000", "095451.453000", "095451.456000", "095451.459000", "095451.462000", "095451.465000", "095451.468000", "095451.471000", "095451.474000", "095451.477000", "095531.396000", "095531.399000", "095531.402000", "095531.405000", "095531.413000", "095531.416000", "095531.419000", "095531.421000", "095531.424000", "095531.427000", "095531.430000", "095531.433000", "095531.436000", "095531.439000", "095531.442000", "095531.445000", "095531.448000", "095531.451000", "095531.453000", "095531.456000", "095531.459000", "095531.462000", "095531.465000", "095531.468000", "095531.471000", "095531.474000", "095531.477000", "095611.396000", "095611.399000", "095611.402000", "095611.405000", "095611.408000", "095611.410000", "095611.413000", "095611.416000", "095611.419000", "095611.422000", "095611.437000", "095611.440000", "095611.443000", "095611.445000", "095611.448000", "095611.452000", "095611.454000", "095611.457000", "095611.460000", "095611.463000", "095611.466000", "095611.469000", "095611.472000", "095611.475000", "095611.478000", "095611.481000", "095611.483000", "095651.395000", "095651.398000", "095651.401000", "095651.404000", "095651.407000", "095651.410000", "095651.413000", "095651.416000", "095651.418000", "095651.421000", "095651.424000", "095651.427000", "095651.430000", "095651.433000", "095651.436000", "095651.439000", "095651.442000", "095651.444000", "095651.447000", "095651.450000", "095651.453000", "095651.456000", "095651.459000", "095651.462000", "095651.465000", "095651.468000", "095651.471000", "095731.396000", "095731.399000", "095731.402000", "095731.405000", "095731.408000", "095731.411000", "095731.414000", "095731.417000", "095731.420000", "095731.423000", "095731.426000", "095731.428000", "095731.431000", "095731.434000", "095731.437000", "095731.440000", "095731.443000", "095731.446000", "095731.449000", "095731.451000", "095731.454000", "095731.457000", "095731.460000", "095731.463000", "095731.466000", "095731.469000", "095731.472000", "095811.396000", "095811.399000", "095811.402000", "095811.405000", "095811.408000", "095811.411000", "095811.413000", "095811.416000", "095811.419000", "095811.422000", "095811.425000", "095811.428000", "095811.431000", "095811.434000", "095811.437000", "095811.440000", "095811.443000", "095811.445000", "095811.448000", "095811.451000", "095811.454000", "095811.457000", "095811.460000", "095811.463000", "095811.466000", "095811.468000", "095811.471000", "095851.396000", "095851.399000", "095851.402000", "095851.405000", "095851.408000", "095851.411000", "095851.414000", "095851.417000", "095851.420000", "095851.423000", "095851.426000", "095851.428000", "095851.431000", "095851.435000", "095851.438000", "095851.440000", "095851.443000", "095851.446000", "095851.460000", "095851.463000", "095851.466000", "095851.469000", "095851.471000", "095851.474000", "095851.477000", "095851.480000", "095931.396000", "095931.399000", "095931.402000", "095931.405000", "095931.408000", "095931.411000", "095931.414000", "095931.417000", "095931.419000", "095931.422000", "095931.425000", "095931.428000", "095931.431000", "095931.434000", "095931.437000", "095931.440000", "095931.443000", "095931.446000", "095931.449000", "095931.451000", "095931.454000", "095931.457000", "095931.460000", "095931.463000", "095931.466000", "095931.469000", "095931.472000", "100011.396000", "100011.399000", "100011.402000", "100011.405000", "100011.408000", "100011.411000", "100011.414000", "100011.416000", "100011.419000", "100011.422000", "100011.425000", "100011.428000", "100011.431000", "100011.434000", "100011.437000", "100011.439000", "100011.442000", "100011.445000", "100011.448000", "100011.451000", "100011.454000", "100011.457000", "100011.459000", "100011.462000", "100011.465000", "100011.468000", "100011.471000", "100051.396000", "100051.399000", "100051.407000", "100051.410000", "100051.413000", "100051.416000", "100051.419000", "100051.422000", "100051.425000", "100051.428000", "100051.430000", "100051.433000", "100051.436000", "100051.439000", "100051.442000", "100051.445000", "100051.448000", "100051.451000", "100051.454000", "100051.457000", "100051.459000", "100051.462000", "100051.465000", "100051.468000", "100051.471000", "100051.474000", "100051.477000", "100131.395000", "100131.398000", "100131.401000", "100131.404000", "100131.407000", "100131.410000", "100131.413000", "100131.416000", "100131.418000", "100131.421000", "100131.424000", "100131.427000", "100131.430000", "100131.433000", "100131.436000", "100131.439000", "100131.442000", "100131.445000", "100131.448000", "100131.451000", "100131.453000", "100131.456000", "100131.459000", "100131.462000", "100131.465000", "100131.468000", "100131.471000", "100151.396000", "100151.399000", "100151.402000", "100151.405000", "100151.408000", "100151.411000", "100151.414000", "100151.417000", "100151.419000", "100151.422000", "100151.425000", "100151.428000", "100151.431000", "100205.193000", "100205.196000", "100205.199000", "100205.202000", "100205.205000", "100205.208000", "100205.211000", "100205.213000", "100205.216000", "100205.219000"],
