{
  "AcquisitionMatrixPE": 104,
  "AcquisitionNumber": 1,
  "AcquisitionTime": "11:28:44.422500",
  "BandwidthPerPixelPhaseEncode": 17.17,
  "BaseResolution": 104,
  "BodyPartExamined": "BRAIN",
  "CoilString": "HC1-7;NC1_2",
  "ConsistencyInfo": "N4_VE11C_LATEST_20160120",
  "ConversionSoftware": "dcm2niix",
  "ConversionSoftwareVersion": "v1.0.20190902",
  "DerivedVendorReportedEchoSpacing": 0.000560011,
  "DeviceSerialNumber": "167006",
  "DwellTime": 2.1e-06,
  "EchoTime": 0.037,
  "EchoTrainLength": 104,
  "EffectiveEchoSpacing": 0.000560011,
  "FlipAngle": 52,
  "ImageComments": "Unaliased_MB4_PE3_LB",
  "ImageOrientationPatientDICOM": [0.999452, -0.0330468, -0.00209442, 0.0301868, 0.9353, -0.352566],
  "ImageType": [
    "ORIGINAL",
    "PRIMARY",
    "M",
    "MB",
    "ND",
    "MOSAIC"
],
  "ImagingFrequency": 123.259,
  "InPlanePhaseEncodingDirectionDICOM": "COL",
  "InstitutionAddress": "Chemin_Queen-Mary_4565_Montreal_District_CA_H3W_1W5",
  "InstitutionName": "IUGM",
  "InstitutionalDepartmentName": "Department",
  "MRAcquisitionType": "2D",
  "MagneticFieldStrength": 3,
  "Manufacturer": "Siemens",
  "ManufacturersModelName": "Prisma_fit",
  "Modality": "MR",
  "MultibandAccelerationFactor": 4,
  "PartialFourier": 1,
  "PatientPosition": "HFS",
  "PercentPhaseFOV": 100,
  "PhaseEncodingDirection": "j",
  "PhaseEncodingSteps": 104,
  "PhaseResolution": 1,
  "PixelBandwidth": 2290,
  "ProcedureStepDescription": "video_friends",
  "ProtocolName": "func_task-friends-s04e04a",
  "PulseSequenceDetails": "%CustomerSeq%_cmrr_mbep2d_bold",
  "ReceiveCoilActiveElements": "HC1-7;NC1,2",
  "ReceiveCoilName": "HeadNeck_64",
  "ReconMatrixPE": 104,
  "RepetitionTime": 1.49,
  "SAR": 0.0299518,
  "ScanOptions": "FS",
  "ScanningSequence": "EP",
  "SequenceName": "epfid2d1_104",
  "SequenceVariant": "SK_SS",
  "SeriesDescription": "func_task-friends-s04e04a",
  "SeriesNumber": 34,
  "ShimSetting": [632, -7264, -8830, 591, 25, -233, -38, -4],
  "SliceThickness": 2,
  "SliceTiming": [0, 0.7825, 0.0975, 0.8825, 0.195, 0.98, 0.2925, 1.0775, 0.3925, 1.175, 0.49, 1.2725, 0.5875, 1.3725, 0.685, 0, 0.7825, 0.0975, 0.8825, 0.195, 0.98, 0.2925, 1.0775, 0.3925, 1.175, 0.49, 1.2725, 0.5875, 1.3725, 0.685, 0, 0.7825, 0.0975, 0.8825, 0.195, 0.98, 0.2925, 1.0775, 0.3925, 1.175, 0.49, 1.2725, 0.5875, 1.3725, 0.685, 0, 0.7825, 0.0975, 0.8825, 0.195, 0.98, 0.2925, 1.0775, 0.3925, 1.175, 0.49, 1.2725, 0.5875, 1.3725, 0.685],
  "SoftwareVersions": "syngo_MR_E11",
  "SpacingBetweenSlices": 2,
  "StationName": "MRC35049",
  "TaskName": "s04e04a",
  "TotalReadoutTime": 0.0576811,
  "TxRefAmp": 217.225,
  "WipMemBlock": "3eba2d22-c726-405b-aa13-80c0af35f088||Sequence: R016 ve11c/master r/e634e98; Dec 19 2017 11:00:25 by eja",
  "dcmmeta_affine": [
    [-1.9989032745361328, 0.060373540967702866, -0.027220143005251884, 100.1701889038086],
    [0.06609352678060532, 1.8705998659133911, -0.7046188116073608, -73.42362976074219],
    [-0.004188830964267254, 0.7051319479942322, 1.8715691566467285, -64.63145446777344],
    [0.0, 0.0, 0.0, 1.0]
],
  "dcmmeta_reorient_transform": [
    [0.0, -1.0, 0.0, 103.0],
    [1.0, 0.0, 0.0, 0.0],
    [0.0, 0.0, 1.0, 0.0],
    [0.0, 0.0, 0.0, 1.0]
],
  "dcmmeta_shape": [104, 104, 60, 453],
  "dcmmeta_slice_dim": 2,
  "dcmmeta_version": 0.6,
  "global": {
    "const": {
      "AcquisitionMatrix": [104, 0, 0, 104],
      "AngioFlag": "N",
      "BitsAllocated": 16,
      "BitsStored": 16,
      "BodyPartExamined": "BRAIN",
      "Columns": 832,
      "EchoNumbers": 1,
      "EchoTime": 37.0,
      "EchoTrainLength": 104,
      "FlipAngle": 52.0,
      "HighBit": 15,
      "ImageOrientationPatient": [0.99945161202688, -0.0330467644484, -0.0020944155179, 0.03018677134523, 0.93529994437496, -0.3525659837363],
      "ImagePositionPatient": [-855.96540407485, -776.08847740975, 266.18990564024],
      "ImageType": [
        "ORIGINAL",
        "PRIMARY",
        "M",
        "MB",
        "ND",
        "MOSAIC"
],
      "ImagedNucleus": "1H",
      "ImagingFrequency": 123.259373,
      "InPlanePhaseEncodingDirection": "COL",
      "MRAcquisitionType": "2D",
      "MagneticFieldStrength": 3.0,
      "Manufacturer": "SIEMENS",
      "ManufacturerModelName": "Prisma_fit",
      "Modality": "MR",
      "NumberOfAverages": 1.0,
      "NumberOfPhaseEncodingSteps": 104,
      "PercentPhaseFieldOfView": 100.0,
      "PercentSampling": 100.0,
      "PerformedProcedureStepStartTime": "090531.730000",
      "PhotometricInterpretation": "MONOCHROME2",
      "PixelBandwidth": 2290.0,
      "PixelRepresentation": 0,
      "PixelSpacing": [2.0, 2.0],
      "ProtocolName": "func_task-friends-s04e04a",
      "RepetitionTime": 1490.0,
      "Rows": 832,
      "SAR": 0.02995182065027,
      "SamplesPerPixel": 1,
      "ScanOptions": "FS",
      "ScanningSequence": "EP",
      "SequenceName": "epfid2d1_104",
      "SequenceVariant": [
        "SK",
        "SS"
],
      "SeriesDescription": "func_task-friends-s04e04a",
      "SeriesNumber": 34,
      "SeriesTime": "113002.211000",
      "SliceLocation": -35.976612047687,
      "SliceThickness": 2.0,
      "SmallestImagePixelValue": 0,
      "SoftwareVersions": "syngo MR E11",
      "SpacingBetweenSlices": 1.9999999468438,
      "SpecificCharacterSet": "ISO_IR 100",
      "StudyID": "1",
      "StudyTime": "090531.606000",
      "TransmitCoilName": "Body",
      "VariableFlipAngleFlag": "N",
      "WindowCenterWidthExplanation": "Algo1",
      "dBdt": 0.0},
    "slices": {}
  },
  "time": {
    "samples": {
      "AcquisitionNumber": [1, 2, 3, 4, 5, 6, 7, 8, 9, 10, 11, 12, 13, 14, 15, 16, 17, 18, 19, 20, 21, 22, 23, 24, 25, 26, 27, 28, 29, 30, 31, 32, 33, 34, 35, 36, 37, 38, 39, 40, 41, 42, 43, 44, 45, 46, 47, 48, 49, 50, 51, 52, 53, 54, 55, 56, 57, 58, 59, 60, 61, 62, 63, 64, 65, 66, 67, 68, 69, 70, 71, 72, 73, 74, 75, 76, 77, 78, 79, 80, 81, 82, 83, 84, 85, 86, 87, 88, 89, 90, 91, 92, 93, 94, 95, 96, 97, 98, 99, 100, 101, 102, 103, 104, 105, 106, 107, 108, 109, 110, 111, 112, 113, 114, 115, 116, 117, 118, 119, 120, 121, 122, 123, 124, 125, 126, 127, 128, 129, 130, 131, 132, 133, 134, 135, 136, 137, 138, 139, 140, 141, 142, 143, 144, 145, 146, 147, 148, 149, 150, 151, 152, 153, 154, 155, 156, 157, 158, 159, 160, 161, 162, 163, 164, 165, 166, 167, 168, 169, 170, 171, 172, 173, 174, 175, 176, 177, 178, 179, 180, 181, 182, 183, 184, 185, 186, 187, 188, 189, 190, 191, 192, 193, 194, 195, 196, 197, 198, 199, 200, 201, 202, 203, 204, 205, 206, 207, 208, 209, 210, 211, 212, 213, 214, 215, 216, 217, 218, 219, 220, 221, 222, 223, 224, 225, 226, 227, 228, 229, 230, 231, 232, 233, 234, 235, 236, 237, 238, 239, 240, 241, 242, 243, 244, 245, 246, 247, 248, 249, 250, 251, 252, 253, 254, 255, 256, 257, 258, 259, 260, 261, 262, 263, 264, 265, 266, 267, 268, 269, 270, 271, 272, 273, 274, 275, 276, 277, 278, 279, 280, 281, 282, 283, 284, 285, 286, 287, 288, 289, 290, 291, 292, 293, 294, 295, 296, 297, 298, 299, 300, 301, 302, 303, 304, 305, 306, 307, 308, 309, 310, 311, 312, 313, 314, 315, 316, 317, 318, 319, 320, 321, 322, 323, 324, 325, 326, 327, 328, 329, 330, 331, 332, 333, 334, 335, 336, 337, 338, 339, 340, 341, 342, 343, 344, 345, 346, 347, 348, 349, 350, 351, 352, 353, 354, 355, 356, 357, 358, 359, 360, 361, 362, 363, 364, 365, 366, 367, 368, 369, 370, 371, 372, 373, 374, 375, 376, 377, 378, 379, 380, 381, 382, 383, 384, 385, 386, 387, 388, 389, 390, 391, 392, 393, 394, 395, 396, 397, 398, 399, 400, 401, 402, 403, 404, 405, 406, 407, 408, 409, 410, 411, 412, 413, 414, 415, 416, 417, 418, 419, 420, 421, 422, 423, 424, 425, 426, 427, 428, 429, 430, 431, 432, 433, 434, 435, 436, 437, 438, 439, 440, 441, 442, 443, 444, 445, 446, 447, 448, 449, 450, 451, 452, 453],
      "AcquisitionTime": ["112844.422500", "112845.912500", "112847.402500", "112848.892500", "112850.382500", "112851.872500", "112853.362500", "112854.852500", "112856.342500", "112857.832500", "112859.322500", "112900.812500", "112902.302500", "112903.792500", "112905.282500", "112906.772500", "112908.262500", "112909.752500", "112911.242500", "112912.732500", "112914.222500", "112915.712500", "112917.202500", "112918.692500", "112920.182500", "112921.672500", "112923.162500", "112924.652500", "112926.142500", "112927.632500", "112929.122500", "112930.612500", "112932.102500", "112933.592500", "112935.082500", "112936.572500", "112938.062500", "112939.552500", "112941.042500", "112942.532500", "112944.022500", "112945.512500", "112947.002500", "112948.492500", "112949.982500", "112951.472500", "112952.962500", "112954.452500", "112955.942500", "112957.432500", "112958.922500", "113000.412500", "113001.902500", "113003.392500", "113004.882500", "113006.372500", "113007.862500", "113009.352500", "113010.842500", "113012.332500", "113013.822500", "113015.312500", "113016.802500", "113018.292500", "113019.782500", "113021.272500", "113022.762500", "113024.252500", "113025.742500", "113027.232500", "113028.722500", "113030.212500", "113031.702500", "113033.192500", "113034.682500", "113036.172500", "113037.662500", "113039.152500", "113040.642500", "113042.132500", "113043.622500", "113045.112500", "113046.602500", "113048.092500", "113049.582500", "113051.072500", "113052.562500", "113054.052500", "113055.542500", "113057.032500", "113058.522500", "113100.012500", "113101.502500", "113102.992500", "113104.482500", "113105.972500", "113107.462500", "113108.952500", "113110.442500", "113111.932500", "113113.422500", "113114.912500", "113116.402500", "113117.892500", "113119.382500", "113120.872500", "113122.362500", "113123.852500", "113125.342500", "113126.832500", "113128.322500", "113129.812500", "113131.302500", "113132.792500", "113134.282500", "113135.772500", "113137.262500", "113138.752500", "113140.242500", "113141.732500", "113143.222500", "113144.712500", "113146.202500", "113147.692500", "113149.182500", "113150.672500", "113152.162500", "113153.652500", "113155.142500", "113156.632500", "113158.122500", "113159.612500", "113201.102500", "113202.592500", "113204.082500", "113205.572500", "113207.062500", "113208.552500", "113210.042500", "113211.532500", "113213.022500", "113214.512500", "113216.002500", "113217.492500", "113218.982500", "113220.472500", "113221.962500", "113223.452500", "113224.942500", "113226.432500", "113227.922500", "113229.412500", "113230.902500", "113232.392500", "113233.882500", "113235.372500", "113236.862500", "113238.352500", "113239.842500", "113241.332500", "113242.822500", "113244.312500", "113245.802500", "113247.292500", "113248.782500", "113250.272500", "113251.762500", "113253.252500", "113254.742500", "113256.232500", "113257.722500", "113259.212500", "113300.702500", "113302.192500", "113303.682500", "113305.172500", "113306.662500", "113308.152500", "113309.642500", "113311.132500", "113312.622500", "113314.112500", "113315.602500", "113317.092500", "113318.582500", "113320.072500", "113321.562500", "113323.052500", "113324.542500", "113326.032500", "113327.522500", "113329.012500", "113330.502500", "113331.992500", "113333.482500", "113334.972500", "113336.462500", "113337.952500", "113339.442500", "113340.932500", "113342.422500", "113343.912500", "113345.402500", "113346.892500", "113348.382500", "113349.872500", "113351.362500", "113352.852500", "113354.342500", "113355.832500", "113357.322500", "113358.812500", "113400.302500", "113401.792500", "113403.282500", "113404.772500", "113406.262500", "113407.752500", "113409.242500", "113410.732500", "113412.222500", "113413.712500", "113415.202500", "113416.692500", "113418.182500", "113419.672500", "113421.162500", "113422.652500", "113424.142500", "113425.632500", "113427.122500", "113428.612500", "113430.102500", "113431.592500", "113433.082500", "113434.572500", "113436.062500", "113437.552500", "113439.042500", "113440.532500", "113442.022500", "113443.512500", "113445.002500", "113446.492500", "113447.982500", "113449.472500", "113450.962500", "113452.452500", "113453.942500", "113455.432500", "113456.922500", "113458.412500", "113459.902500", "113501.392500", "113502.882500", "113504.372500", "113505.862500", "113507.352500", "113508.842500", "113510.332500", "113511.822500", "113513.312500", "113514.802500", "113516.292500", "113517.782500", "113519.272500", "113520.762500", "113522.252500", "113523.742500", "113525.232500", "113526.722500", "113528.212500", "113529.702500", "113531.192500", "113532.682500", "113534.172500", "113535.662500", "113537.152500", "113538.642500", "113540.132500", "113541.622500", "113543.112500", "113544.602500", "113546.092500", "113547.582500", "113549.072500", "113550.562500", "113552.052500", "113553.542500", "113555.032500", "113556.522500", "113558.012500", "113559.502500", "113600.992500", "113602.482500", "113603.972500", "113605.462500", "113606.952500", "113608.442500", "113609.932500", "113611.422500", "113612.912500", "113614.402500", "113615.892500", "113617.382500", "113618.872500", "113620.362500", "113621.852500", "113623.342500", "113624.832500", "113626.322500", "113627.812500", "113629.302500", "113630.792500", "113632.282500", "113633.772500", "113635.262500", "113636.752500", "113638.242500", "113639.732500", "113641.222500", "113642.712500", "113644.202500", "113645.692500", "113647.182500", "113648.672500", "113650.162500", "113651.652500", "113653.142500", "113654.632500", "113656.122500", "113657.612500", "113659.102500", "113700.592500", "113702.082500", "113703.572500", "113705.062500", "113706.552500", "113708.042500", "113709.532500", "113711.022500", "113712.512500", "113714.002500", "113715.492500", "113716.982500", "113718.472500", "113719.962500", "113721.452500", "113722.942500", "113724.432500", "113725.922500", "113727.412500", "113728.902500", "113730.392500", "113731.882500", "113733.372500", "113734.862500", "113736.352500", "113737.842500", "113739.332500", "113740.822500", "113742.312500", "113743.802500", "113745.292500", "113746.782500", "113748.272500", "113749.762500", "113751.252500", "113752.742500", "113754.232500", "113755.722500", "113757.212500", "113758.702500", "113800.192500", "113801.682500", "113803.172500", "113804.662500", "113806.152500", "113807.642500", "113809.132500", "113810.622500", "113812.112500", "113813.602500", "113815.092500", "113816.582500", "113818.072500", "113819.562500", "113821.052500", "113822.542500", "113824.032500", "113825.522500", "113827.012500", "113828.502500", "113829.992500", "113831.482500", "113832.972500", "113834.462500", "113835.952500", "113837.442500", "113838.932500", "113840.422500", "113841.912500", "113843.402500", "113844.892500", "113846.382500", "113847.872500", "113849.362500", "113850.852500", "113852.342500", "113853.832500", "113855.322500", "113856.812500", "113858.302500", "113859.792500", "113901.282500", "113902.772500", "113904.262500", "113905.752500", "113907.242500", "113908.732500", "113910.222500", "113911.712500", "113913.202500", "113914.692500", "113916.182500", "113917.672500", "113919.162500", "113920.652500", "113922.142500", "113923.632500", "113925.122500", "113926.612500", "113928.102500", "113929.592500", "113931.082500", "113932.572500", "113934.062500", "113935.552500", "113937.042500", "113938.532500", "113940.022500", "113941.512500", "113943.002500", "113944.492500", "113945.982500", "113947.472500", "113948.962500", "113950.452500", "113951.942500", "113953.432500", "113954.922500", "113956.412500", "113957.902500"],
      "ContentTime": ["113002.214000", "113002.217000", "113002.220000", "113002.223000", "113002.226000", "113002.229000", "113002.232000", "113002.235000", "113002.238000", "113002.241000", "113002.244000", "113002.247000", "113002.250000", "113002.253000", "113002.256000", "113002.259000", "113002.261000", "113002.264000", "113002.274000", "113002.276000", "113002.286000", "113002.289000", "113002.292000", "113022.181000", "113022.184000", "113022.187000", "113022.190000", "113022.193000", "113022.201000", "113022.203000", "113022.206000", "113022.209000", "113022.212000", "113022.215000", "113022.218000", "113022.221000", "113022.224000", "113022.227000", "113022.230000", "113022.233000", "113022.235000", "113022.238000", "113022.241000", "113042.182000", "113042.185000", "113042.188000", "113042.191000", "113042.193000", "113042.196000", "113042.199000", "113042.202000", "113042.205000", "113042.208000", "113042.211000", "113042.214000", "113042.229000", "113042.232000", "113042.235000", "113042.238000", "113042.241000", "113042.244000", "113042.247000", "113042.250000", "113102.182000", "113102.185000", "113102.188000", "113102.191000", "113102.194000", "113102.197000", "113102.199000", "113102.202000", "113102.205000", "113102.208000", "113102.211000", "113102.214000", "113102.216000", "113102.220000", "113102.222000", "113102.225000", "113102.228000", "113102.231000", "113102.234000", "113102.237000", "113122.181000", "113122.184000", "113122.186000", "113122.190000", "113122.192000", "113122.202000", "113122.204000", "113122.216000", "113122.219000", "113122.222000", "113122.224000", "113122.228000", "113122.230000", "113122.233000", "113122.236000", "113122.239000", "113122.242000", "113122.245000", "113122.248000", "113122.251000", "113122.254000", "113142.181000", "113142.184000", "113142.187000", "113142.190000", "113142.193000", "113142.196000", "113142.199000", "113142.201000", "113142.204000", "113142.207000", "113142.210000", "113142.213000", "113142.216000", "113142.219000", "113222.181000", "113222.184000", "113222.187000", "113222.190000", "113222.193000", "113222.195000", "113222.198000", "113222.201000", "113222.204000", "113222.207000", "113222.210000", "113222.213000", "113222.216000", "113222.219000", "113222.222000", "113222.225000", "113222.227000", "113222.230000", "113222.233000", "113222.236000", "113222.239000", "113222.242000", "113222.245000", "113222.248000", "113222.251000", "113222.254000", "113222.257000", "113302.182000", "113302.185000", "113302.188000", "113302.191000", "113302.194000", "113302.197000", "113302.200000", "113302.202000", "113302.205000", "113302.208000", "113302.211000", "113302.214000", "113302.217000", "113302.220000", "113302.223000", "113302.226000", "113302.229000", "113302.232000", "113302.235000", "113302.238000", "113302.241000", "113302.244000", "113302.246000", "113302.249000", "113302.252000", "113302.255000", "113302.258000", "113342.181000", "113342.184000", "113342.187000", "113342.189000", "113342.193000", "113342.195000", "113342.198000", "113342.201000", "113342.204000", "113342.207000", "113342.210000", "113342.213000", "113342.216000", "113342.219000", "113342.222000", "113342.225000", "113342.228000", "113342.231000", "113342.233000", "113342.236000", "113342.239000", "113342.242000", "113342.245000", "113342.248000", "113342.251000", "113342.254000", "113342.257000", "113422.181000", "113422.184000", "113422.187000", "113422.190000", "113422.192000", "113422.195000", "113422.198000", "113422.201000", "113422.204000", "113422.207000", "113422.210000", "113422.213000", "113422.216000", "113422.219000", "113422.222000", "113422.225000", "113422.227000", "113422.230000", "113422.233000", "113422.236000", "113422.239000", "113422.242000", "113422.245000", "113422.248000", "113422.251000", "113422.253000", "113422.256000", "113502.181000", "113502.184000", "113502.187000", "113502.190000", "113502.193000", "113502.195000", "113502.198000", "113502.201000", "113502.204000", "113502.207000", "113502.210000", "113502.213000", "113502.216000", "113502.219000", "113502.222000", "113502.225000", "113502.228000", "113502.231000", "113502.233000", "113502.237000", "113502.240000", "113502.243000", "113502.246000", "113502.249000", "113502.252000", "113502.255000", "113542.182000", "113542.185000", "113542.188000", "113542.191000", "113542.194000", "113542.197000", "113542.199000", "113542.202000", "113542.206000", "113542.208000", "113542.211000", "113542.214000", "113542.217000", "113542.220000", "113542.223000", "113542.226000", "113542.229000", "113542.232000", "113542.234000", "113542.237000", "113542.240000", "113542.243000", "113542.256000", "113542.259000", "113542.262000", "113542.265000", "113542.268000", "113622.181000", "113622.184000", "113622.187000", "113622.190000", "113622.193000", "113622.196000", "113622.198000", "113622.201000", "113622.204000", "113622.207000", "113622.210000", "113622.213000", "113622.216000", "113622.219000", "113622.222000", "113622.225000", "113622.228000", "113622.230000", "113622.233000", "113622.236000", "113622.239000", "113622.242000", "113622.245000", "113622.248000", "113622.251000", "113622.254000", "113622.256000", "113702.181000", "113702.184000", "113702.187000", "113702.190000", "113702.193000", "113702.196000", "113702.199000", "113702.202000", "113702.205000", "113702.207000", "113702.211000", "113702.213000", "113702.216000", "113702.219000", "113702.222000", "113702.225000", "113702.228000", "113702.231000", "113702.234000", "113702.237000", "113702.240000", "113702.243000", "113702.246000", "113702.248000", "113702.251000", "113702.254000", "113702.257000", "113742.182000", "113742.185000", "113742.188000", "113742.191000", "113742.194000", "113742.197000", "113742.200000", "113742.203000", "113742.205000", "113742.208000", "113742.211000", "113742.214000", "113742.217000", "113742.220000", "113742.223000", "113742.226000", "113742.229000", "113742.232000", "113742.234000", "113742.237000", "113742.240000", "113742.243000", "113742.246000", "113742.249000", "113742.252000", "113742.255000", "113742.258000", "113822.181000", "113822.184000", "113822.187000", "113822.190000", "113822.193000", "113822.196000", "113822.198000", "113822.201000", "113822.204000", "113822.207000", "113822.210000", "113822.213000", "113822.216000", "113822.219000", "113822.222000", "113822.225000", "113822.228000", "113822.230000", "113822.233000", "113822.236000", "113822.239000", "113822.242000", "113822.245000", "113822.248000", "113822.251000", "113822.254000", "113822.256000", "113902.181000", "113902.184000", "113902.187000", "113902.190000", "113902.193000", "113902.196000", "113902.199000", "113902.202000", "113902.204000", "113902.208000", "113902.210000", "113902.213000", "113902.216000", "113902.219000", "113902.222000", "113902.225000", "113902.228000", "113902.231000", "113902.234000", "113902.237000", "113902.240000", "113902.243000", "113902.246000", "113902.249000", "113902.252000", "113902.255000", "113942.181000", "113942.184000", "113942.187000", "113942.190000", "113942.193000", "113942.196000", "113942.199000", "113942.202000", "113942.204000", "113942.207000", "113942.210000", "113942.213000", "113942.216000", "113942.219000", "113942.222000", "113942.225000", "113942.228000", "113942.231000", "113942.234000", "113942.237000", "113942.239000", "113942.242000", "113942.245000", "113942.248000", "113942.251000", "113942.254000", "113942.257000", "114000.425000", "114000.429000", "114000.432000", "114000.435000", "114000.479000", "114000.483000", "114000.485000", "114000.488000", "114000.491000", "114000.494000", "114000.497000", "114000.500000", "114000.511000"],
