{
  "AcquisitionMatrixPE": 104,
  "AcquisitionNumber": 1,
  "AcquisitionTime": "10:02:33.795000",
  "BandwidthPerPixelPhaseEncode": 17.17,
  "BaseResolution": 104,
  "BodyPartExamined": "BRAIN",
  "CoilString": "HC1-7;NC1_2",
  "ConsistencyInfo": "N4_VE11C_LATEST_20160120",
  "ConversionSoftware": "dcm2niix",
  "ConversionSoftwareVersion": "v1.0.20190902",
  "DerivedVendorReportedEchoSpacing": 0.000560011,
  "DeviceSerialNumber": "167006",
  "DwellTime": 2.1e-06,
  "EchoTime": 0.037,
  "EchoTrainLength": 104,
  "EffectiveEchoSpacing": 0.000560011,
  "FlipAngle": 52,
  "ImageComments": "Unaliased_MB4_PE3_LB",
  "ImageOrientationPatientDICOM": [0.99834, -0.0575119, 0.00322531, 0.0549419, 0.933916, -0.353244],
  "ImageType": [
    "ORIGINAL",
    "PRIMARY",
    "M",
    "MB",
    "ND",
    "MOSAIC"
],
  "ImagingFrequency": 123.259,
  "InPlanePhaseEncodingDirectionDICOM": "COL",
  "InstitutionAddress": "Chemin_Queen-Mary_4565_Montreal_District_CA_H3W_1W5",
  "InstitutionName": "IUGM",
  "InstitutionalDepartmentName": "Department",
  "MRAcquisitionType": "2D",
  "MagneticFieldStrength": 3,
  "Manufacturer": "Siemens",
  "ManufacturersModelName": "Prisma_fit",
  "Modality": "MR",
  "MultibandAccelerationFactor": 4,
  "PartialFourier": 1,
  "PatientPosition": "HFS",
  "PercentPhaseFOV": 100,
  "PhaseEncodingDirection": "j",
  "PhaseEncodingSteps": 104,
  "PhaseResolution": 1,
  "PixelBandwidth": 2290,
  "ProcedureStepDescription": "video_friends",
  "ProtocolName": "func_task-friends-s04e01b",
  "PulseSequenceDetails": "%CustomerSeq%_cmrr_mbep2d_bold",
  "ReceiveCoilActiveElements": "HC1-7;NC1,2",
  "ReceiveCoilName": "HeadNeck_64",
  "ReconMatrixPE": 104,
  "RepetitionTime": 1.49,
  "SAR": 0.031684,
  "ScanOptions": "FS",
  "ScanningSequence": "EP",
  "SequenceName": "epfid2d1_104",
  "SequenceVariant": "SK_SS",
  "SeriesDescription": "func_task-friends-s04e01b",
  "SeriesNumber": 15,
  "ShimSetting": [635, -7257, -8827, 611, 12, -205, -54, -12],
  "SliceThickness": 2,
  "SliceTiming": [0, 0.7825, 0.0975, 0.8825, 0.195, 0.98, 0.2925, 1.0775, 0.3925, 1.175, 0.49, 1.2725, 0.5875, 1.3725, 0.685, 0, 0.7825, 0.0975, 0.8825, 0.195, 0.98, 0.2925, 1.0775, 0.3925, 1.175, 0.49, 1.2725, 0.5875, 1.3725, 0.685, 0, 0.7825, 0.0975, 0.8825, 0.195, 0.98, 0.2925, 1.0775, 0.3925, 1.175, 0.49, 1.2725, 0.5875, 1.3725, 0.685, 0, 0.7825, 0.0975, 0.8825, 0.195, 0.98, 0.2925, 1.0775, 0.3925, 1.175, 0.49, 1.2725, 0.5875, 1.3725, 0.685],
  "SoftwareVersions": "syngo_MR_E11",
  "SpacingBetweenSlices": 2,
  "StationName": "MRC35049",
  "TaskName": "s04e01b",
  "TotalReadoutTime": 0.0576811,
  "TxRefAmp": 221.029,
  "WipMemBlock": "fc120488-3b6b-4659-9cb6-803e00737f0b||Sequence: R016 ve11c/master r/e634e98; Dec 19 2017 11:00:25 by eja",
  "dcmmeta_affine": [
    [-1.9966791868209839, 0.10988375544548035, -0.0346071757376194, 97.1856460571289],
    [0.11502385139465332, 1.8678327798843384, -0.7056699991226196, -77.10331726074219],
    [0.006450623739510775, 0.7064886093139648, 1.8710511922836304, -67.44286346435547],
    [0.0, 0.0, 0.0, 1.0]
],
  "dcmmeta_reorient_transform": [
    [0.0, -1.0, 0.0, 103.0],
    [1.0, 0.0, 0.0, 0.0],
    [0.0, 0.0, 1.0, 0.0],
    [0.0, 0.0, 0.0, 1.0]
],
  "dcmmeta_shape": [104, 104, 60, 468],
  "dcmmeta_slice_dim": 2,
  "dcmmeta_version": 0.6,
  "global": {
    "const": {
      "AcquisitionMatrix": [104, 0, 0, 104],
      "AngioFlag": "N",
      "BitsAllocated": 16,
      "BitsStored": 16,
      "BodyPartExamined": "BRAIN",
      "Columns": 832,
      "EchoNumbers": 1,
      "EchoTime": 37.0,
      "EchoTrainLength": 104,
      "FlipAngle": 52.0,
      "HighBit": 15,
      "ImageOrientationPatient": [0.99833960953898, -0.0575119238798, 0.00322531195524, 0.05494187712189, 0.93391640256159, -0.3532443108739],
      "ImagePositionPatient": [-875.29259662299, -753.30592212201, 260.13929571724],
      "ImageType": [
        "ORIGINAL",
        "PRIMARY",
        "M",
        "MB",
        "ND",
        "MOSAIC"
],
      "ImagedNucleus": "1H",
      "ImagingFrequency": 123.25937,
      "InPlanePhaseEncodingDirection": "COL",
      "MRAcquisitionType": "2D",
      "MagneticFieldStrength": 3.0,
      "Manufacturer": "SIEMENS",
      "ManufacturerModelName": "Prisma_fit",
      "Modality": "MR",
      "NumberOfAverages": 1.0,
      "NumberOfPhaseEncodingSteps": 104,
      "PercentPhaseFieldOfView": 100.0,
      "PercentSampling": 100.0,
      "PerformedProcedureStepStartTime": "090531.730000",
      "PhotometricInterpretation": "MONOCHROME2",
      "PixelBandwidth": 2290.0,
      "PixelRepresentation": 0,
      "PixelSpacing": [2.0, 2.0],
      "ProtocolName": "func_task-friends-s04e01b",
      "RepetitionTime": 1490.0,
      "Rows": 832,
      "SAR": 0.03168400007069,
      "SamplesPerPixel": 1,
      "ScanOptions": "FS",
      "ScanningSequence": "EP",
      "SequenceName": "epfid2d1_104",
      "SequenceVariant": [
        "SK",
        "SS"
],
      "SeriesDescription": "func_task-friends-s04e01b",
      "SeriesNumber": 15,
      "SeriesTime": "100352.002000",
      "SliceLocation": -37.571434064138,
      "SliceThickness": 2.0,
      "SmallestImagePixelValue": 0,
      "SoftwareVersions": "syngo MR E11",
      "SpacingBetweenSlices": 2.0000000400743,
      "SpecificCharacterSet": "ISO_IR 100",
      "StudyID": "1",
      "StudyTime": "090531.606000",
      "TransmitCoilName": "Body",
      "VariableFlipAngleFlag": "N",
      "WindowCenterWidthExplanation": "Algo1",
      "dBdt": 0.0},
    "slices": {}
  },
  "time": {
    "samples": {
      "AcquisitionNumber": [1, 2, 3, 4, 5, 6, 7, 8, 9, 10, 11, 12, 13, 14, 15, 16, 17, 18, 19, 20, 21, 22, 23, 24, 25, 26, 27, 28, 29, 30, 31, 32, 33, 34, 35, 36, 37, 38, 39, 40, 41, 42, 43, 44, 45, 46, 47, 48, 49, 50, 51, 52, 53, 54, 55, 56, 57, 58, 59, 60, 61, 62, 63, 64, 65, 66, 67, 68, 69, 70, 71, 72, 73, 74, 75, 76, 77, 78, 79, 80, 81, 82, 83, 84, 85, 86, 87, 88, 89, 90, 91, 92, 93, 94, 95, 96, 97, 98, 99, 100, 101, 102, 103, 104, 105, 106, 107, 108, 109, 110, 111, 112, 113, 114, 115, 116, 117, 118, 119, 120, 121, 122, 123, 124, 125, 126, 127, 128, 129, 130, 131, 132, 133, 134, 135, 136, 137, 138, 139, 140, 141, 142, 143, 144, 145, 146, 147, 148, 149, 150, 151, 152, 153, 154, 155, 156, 157, 158, 159, 160, 161, 162, 163, 164, 165, 166, 167, 168, 169, 170, 171, 172, 173, 174, 175, 176, 177, 178, 179, 180, 181, 182, 183, 184, 185, 186, 187, 188, 189, 190, 191, 192, 193, 194, 195, 196, 197, 198, 199, 200, 201, 202, 203, 204, 205, 206, 207, 208, 209, 210, 211, 212, 213, 214, 215, 216, 217, 218, 219, 220, 221, 222, 223, 224, 225, 226, 227, 228, 229, 230, 231, 232, 233, 234, 235, 236, 237, 238, 239, 240, 241, 242, 243, 244, 245, 246, 247, 248, 249, 250, 251, 252, 253, 254, 255, 256, 257, 258, 259, 260, 261, 262, 263, 264, 265, 266, 267, 268, 269, 270, 271, 272, 273, 274, 275, 276, 277, 278, 279, 280, 281, 282, 283, 284, 285, 286, 287, 288, 289, 290, 291, 292, 293, 294, 295, 296, 297, 298, 299, 300, 301, 302, 303, 304, 305, 306, 307, 308, 309, 310, 311, 312, 313, 314, 315, 316, 317, 318, 319, 320, 321, 322, 323, 324, 325, 326, 327, 328, 329, 330, 331, 332, 333, 334, 335, 336, 337, 338, 339, 340, 341, 342, 343, 344, 345, 346, 347, 348, 349, 350, 351, 352, 353, 354, 355, 356, 357, 358, 359, 360, 361, 362, 363, 364, 365, 366, 367, 368, 369, 370, 371, 372, 373, 374, 375, 376, 377, 378, 379, 380, 381, 382, 383, 384, 385, 386, 387, 388, 389, 390, 391, 392, 393, 394, 395, 396, 397, 398, 399, 400, 401, 402, 403, 404, 405, 406, 407, 408, 409, 410, 411, 412, 413, 414, 415, 416, 417, 418, 419, 420, 421, 422, 423, 424, 425, 426, 427, 428, 429, 430, 431, 432, 433, 434, 435, 436, 437, 438, 439, 440, 441, 442, 443, 444, 445, 446, 447, 448, 449, 450, 451, 452, 453, 454, 455, 456, 457, 458, 459, 460, 461, 462, 463, 464, 465, 466, 467, 468],
      "AcquisitionTime": ["100233.795000", "100235.285000", "100236.775000", "100238.265000", "100239.755000", "100241.245000", "100242.735000", "100244.225000", "100245.715000", "100247.205000", "100248.695000", "100250.185000", "100251.675000", "100253.165000", "100254.655000", "100256.145000", "100257.635000", "100259.125000", "100300.615000", "100302.105000", "100303.595000", "100305.085000", "100306.575000", "100308.065000", "100309.555000", "100311.045000", "100312.535000", "100314.025000", "100315.515000", "100317.005000", "100318.495000", "100319.985000", "100321.475000", "100322.965000", "100324.455000", "100325.945000", "100327.435000", "100328.925000", "100330.415000", "100331.905000", "100333.395000", "100334.885000", "100336.375000", "100337.865000", "100339.355000", "100340.845000", "100342.335000", "100343.825000", "100345.315000", "100346.805000", "100348.295000", "100349.785000", "100351.275000", "100352.765000", "100354.255000", "100355.745000", "100357.235000", "100358.725000", "100400.215000", "100401.705000", "100403.195000", "100404.685000", "100406.175000", "100407.665000", "100409.155000", "100410.645000", "100412.135000", "100413.625000", "100415.115000", "100416.605000", "100418.095000", "100419.585000", "100421.075000", "100422.565000", "100424.055000", "100425.545000", "100427.035000", "100428.525000", "100430.015000", "100431.505000", "100432.995000", "100434.485000", "100435.975000", "100437.465000", "100438.955000", "100440.445000", "100441.935000", "100443.425000", "100444.915000", "100446.405000", "100447.895000", "100449.385000", "100450.875000", "100452.365000", "100453.855000", "100455.345000", "100456.835000", "100458.325000", "100459.815000", "100501.305000", "100502.795000", "100504.285000", "100505.775000", "100507.265000", "100508.755000", "100510.245000", "100511.735000", "100513.225000", "100514.715000", "100516.205000", "100517.695000", "100519.185000", "100520.675000", "100522.165000", "100523.655000", "100525.145000", "100526.635000", "100528.125000", "100529.615000", "100531.105000", "100532.595000", "100534.085000", "100535.575000", "100537.065000", "100538.555000", "100540.045000", "100541.535000", "100543.025000", "100544.515000", "100546.005000", "100547.495000", "100548.985000", "100550.475000", "100551.965000", "100553.455000", "100554.945000", "100556.435000", "100557.925000", "100559.415000", "100600.905000", "100602.395000", "100603.885000", "100605.375000", "100606.865000", "100608.355000", "100609.845000", "100611.335000", "100612.825000", "100614.315000", "100615.805000", "100617.295000", "100618.785000", "100620.275000", "100621.765000", "100623.255000", "100624.745000", "100626.235000", "100627.725000", "100629.215000", "100630.705000", "100632.195000", "100633.685000", "100635.175000", "100636.665000", "100638.155000", "100639.645000", "100641.135000", "100642.625000", "100644.115000", "100645.605000", "100647.095000", "100648.585000", "100650.075000", "100651.565000", "100653.055000", "100654.545000", "100656.035000", "100657.525000", "100659.015000", "100700.505000", "100701.995000", "100703.485000", "100704.975000", "100706.465000", "100707.955000", "100709.445000", "100710.935000", "100712.425000", "100713.915000", "100715.405000", "100716.895000", "100718.385000", "100719.875000", "100721.365000", "100722.855000", "100724.345000", "100725.835000", "100727.325000", "100728.815000", "100730.305000", "100731.795000", "100733.285000", "100734.775000", "100736.265000", "100737.755000", "100739.245000", "100740.735000", "100742.225000", "100743.715000", "100745.205000", "100746.695000", "100748.185000", "100749.675000", "100751.165000", "100752.655000", "100754.145000", "100755.635000", "100757.125000", "100758.615000", "100800.105000", "100801.595000", "100803.085000", "100804.575000", "100806.065000", "100807.555000", "100809.045000", "100810.535000", "100812.025000", "100813.515000", "100815.005000", "100816.495000", "100817.985000", "100819.475000", "100820.965000", "100822.455000", "100823.945000", "100825.435000", "100826.925000", "100828.415000", "100829.905000", "100831.395000", "100832.885000", "100834.375000", "100835.865000", "100837.355000", "100838.845000", "100840.335000", "100841.825000", "100843.315000", "100844.805000", "100846.295000", "100847.785000", "100849.275000", "100850.765000", "100852.255000", "100853.745000", "100855.235000", "100856.725000", "100858.215000", "100859.705000", "100901.195000", "100902.685000", "100904.175000", "100905.665000", "100907.155000", "100908.645000", "100910.135000", "100911.625000", "100913.115000", "100914.605000", "100916.095000", "100917.585000", "100919.075000", "100920.565000", "100922.055000", "100923.545000", "100925.035000", "100926.525000", "100928.015000", "100929.505000", "100930.995000", "100932.485000", "100933.975000", "100935.465000", "100936.955000", "100938.445000", "100939.935000", "100941.425000", "100942.915000", "100944.405000", "100945.895000", "100947.385000", "100948.875000", "100950.365000", "100951.855000", "100953.345000", "100954.835000", "100956.325000", "100957.815000", "100959.305000", "101000.795000", "101002.285000", "101003.775000", "101005.265000", "101006.755000", "101008.245000", "101009.735000", "101011.225000", "101012.715000", "101014.205000", "101015.695000", "101017.185000", "101018.675000", "101020.165000", "101021.655000", "101023.145000", "101024.635000", "101026.125000", "101027.615000", "101029.105000", "101030.595000", "101032.085000", "101033.575000", "101035.065000", "101036.555000", "101038.045000", "101039.535000", "101041.025000", "101042.515000", "101044.005000", "101045.495000", "101046.985000", "101048.475000", "101049.965000", "101051.455000", "101052.945000", "101054.435000", "101055.925000", "101057.415000", "101058.905000", "101100.395000", "101101.885000", "101103.375000", "101104.865000", "101106.355000", "101107.845000", "101109.335000", "101110.825000", "101112.315000", "101113.805000", "101115.295000", "101116.785000", "101118.275000", "101119.765000", "101121.255000", "101122.745000", "101124.235000", "101125.725000", "101127.215000", "101128.705000", "101130.195000", "101131.685000", "101133.175000", "101134.665000", "101136.155000", "101137.645000", "101139.135000", "101140.625000", "101142.115000", "101143.605000", "101145.095000", "101146.585000", "101148.075000", "101149.565000", "101151.055000", "101152.545000", "101154.035000", "101155.525000", "101157.015000", "101158.505000", "101159.995000", "101201.485000", "101202.975000", "101204.465000", "101205.955000", "101207.445000", "101208.935000", "101210.425000", "101211.915000", "101213.405000", "101214.895000", "101216.385000", "101217.875000", "101219.365000", "101220.855000", "101222.345000", "101223.835000", "101225.325000", "101226.815000", "101228.305000", "101229.795000", "101231.285000", "101232.775000", "101234.265000", "101235.755000", "101237.245000", "101238.735000", "101240.225000", "101241.715000", "101243.205000", "101244.695000", "101246.185000", "101247.675000", "101249.165000", "101250.655000", "101252.145000", "101253.635000", "101255.125000", "101256.615000", "101258.105000", "101259.595000", "101301.085000", "101302.575000", "101304.065000", "101305.555000", "101307.045000", "101308.535000", "101310.025000", "101311.515000", "101313.005000", "101314.495000", "101315.985000", "101317.475000", "101318.965000", "101320.455000", "101321.945000", "101323.435000", "101324.925000", "101326.415000", "101327.905000", "101329.395000", "101330.885000", "101332.375000", "101333.865000", "101335.355000", "101336.845000", "101338.335000", "101339.825000", "101341.315000", "101342.805000", "101344.295000", "101345.785000", "101347.275000", "101348.765000", "101350.255000", "101351.745000", "101353.235000", "101354.725000", "101356.215000", "101357.705000", "101359.195000", "101400.685000", "101402.175000", "101403.665000", "101405.155000", "101406.645000", "101408.135000", "101409.625000"],
      "ContentTime": ["100352.006000", "100352.009000", "100352.018000", "100352.021000", "100352.024000", "100352.027000", "100352.029000", "100352.032000", "100352.035000", "100352.038000", "100352.041000", "100352.044000", "100352.047000", "100352.050000", "100352.052000", "100352.055000", "100352.058000", "100352.061000", "100352.064000", "100352.067000", "100352.070000", "100352.073000", "100352.075000", "100352.078000", "100411.962000", "100411.965000", "100411.968000", "100411.970000", "100411.974000", "100411.976000", "100411.979000", "100411.982000", "100411.985000", "100411.988000", "100411.990000", "100411.993000", "100411.996000", "100412.000000", "100412.003000", "100412.011000", "100412.014000", "100412.017000", "100412.020000", "100412.023000", "100431.962000", "100431.965000", "100431.968000", "100431.970000", "100431.973000", "100431.976000", "100431.979000", "100431.990000", "100431.994000", "100431.998000", "100432.002000", "100432.006000", "100432.008000", "100432.011000", "100432.014000", "100432.017000", "100432.020000", "100432.023000", "100432.026000", "100432.028000", "100451.962000", "100451.965000", "100451.968000", "100451.971000", "100451.974000", "100451.976000", "100451.979000", "100451.982000", "100451.985000", "100451.988000", "100451.991000", "100451.994000", "100451.996000", "100452.000000", "100452.003000", "100452.006000", "100452.009000", "100452.012000", "100452.015000", "100452.017000", "100452.020000", "100511.961000", "100511.964000", "100511.967000", "100511.970000", "100511.973000", "100511.976000", "100511.978000", "100511.994000", "100511.997000", "100512.001000", "100512.004000", "100512.008000", "100512.011000", "100512.014000", "100512.017000", "100512.019000", "100512.022000", "100512.025000", "100512.028000", "100512.031000", "100551.961000", "100551.964000", "100551.967000", "100551.970000", "100551.973000", "100551.975000", "100551.978000", "100551.981000", "100551.984000", "100551.987000", "100551.990000", "100551.993000", "100551.996000", "100551.998000", "100552.002000", "100552.005000", "100552.008000", "100552.011000", "100552.014000", "100552.017000", "100552.019000", "100552.022000", "100552.025000", "100552.028000", "100552.031000", "100552.034000", "100552.037000", "100631.962000", "100631.965000", "100631.968000", "100631.971000", "100631.974000", "100631.977000", "100631.980000", "100631.982000", "100631.985000", "100631.988000", "100631.991000", "100631.994000", "100631.997000", "100632.001000", "100632.004000", "100632.006000", "100632.009000", "100632.012000", "100632.015000", "100632.018000", "100632.021000", "100632.024000", "100632.027000", "100632.030000", "100632.032000", "100632.035000", "100632.038000", "100711.962000", "100711.965000", "100711.968000", "100711.971000", "100711.974000", "100711.981000", "100711.984000", "100711.987000", "100711.990000", "100712.002000", "100712.005000", "100712.007000", "100712.010000", "100712.013000", "100712.016000", "100712.019000", "100712.022000", "100712.025000", "100712.028000", "100712.030000", "100712.033000", "100712.036000", "100712.039000", "100712.042000", "100712.045000", "100712.048000", "100712.051000", "100751.961000", "100751.964000", "100751.967000", "100751.970000", "100751.973000", "100751.975000", "100751.978000", "100751.981000", "100751.984000", "100751.987000", "100751.990000", "100751.993000", "100751.996000", "100752.000000", "100752.003000", "100752.006000", "100752.009000", "100752.011000", "100752.014000", "100752.017000", "100752.020000", "100752.023000", "100752.026000", "100752.029000", "100752.032000", "100752.034000", "100752.037000", "100831.962000", "100831.965000", "100831.968000", "100831.971000", "100831.974000", "100831.977000", "100831.979000", "100831.982000", "100831.985000", "100831.988000", "100831.991000", "100831.994000", "100831.997000", "100832.000000", "100832.003000", "100832.006000", "100832.009000", "100832.012000", "100832.014000", "100832.017000", "100832.020000", "100832.023000", "100832.026000", "100832.029000", "100832.032000", "100832.035000", "100832.037000", "100911.962000", "100911.965000", "100911.968000", "100911.971000", "100911.974000", "100911.977000", "100911.979000", "100911.982000", "100911.985000", "100911.988000", "100911.991000", "100911.994000", "100911.997000", "100912.001000", "100912.004000", "100912.006000", "100912.009000", "100912.012000", "100912.015000", "100912.018000", "100912.021000", "100912.024000", "100912.027000", "100912.030000", "100912.033000", "100912.035000", "100951.961000", "100951.964000", "100951.967000", "100951.970000", "100951.973000", "100951.976000", "100951.978000", "100951.981000", "100951.984000", "100951.987000", "100951.990000", "100951.993000", "100951.996000", "100952.000000", "100952.003000", "100952.013000", "100952.016000", "100952.019000", "100952.022000", "100952.025000", "100952.028000", "100952.031000", "100952.033000", "100952.036000", "100952.039000", "100952.042000", "100952.045000", "101031.961000", "101031.964000", "101031.967000", "101031.970000", "101031.973000", "101031.976000", "101031.979000", "101031.982000", "101031.985000", "101031.988000", "101031.990000", "101031.994000", "101031.996000", "101032.000000", "101032.003000", "101032.006000", "101032.009000", "101032.012000", "101032.015000", "101032.018000", "101032.021000", "101032.023000", "101032.026000", "101032.029000", "101032.032000", "101032.035000", "101032.038000", "101111.962000", "101111.965000", "101111.968000", "101111.971000", "101111.974000", "101111.977000", "101111.980000", "101111.982000", "101111.985000", "101111.988000", "101111.991000", "101111.994000", "101111.997000", "101112.001000", "101112.004000", "101112.007000", "101112.010000", "101112.012000", "101112.015000", "101112.026000", "101112.029000", "101112.032000", "101112.035000", "101112.038000", "101112.041000", "101112.043000", "101112.046000", "101151.961000", "101151.964000", "101151.967000", "101151.970000", "101151.973000", "101151.976000", "101151.979000", "101151.982000", "101151.984000", "101151.988000", "101151.990000", "101151.993000", "101151.996000", "101152.000000", "101152.003000", "101152.006000", "101152.009000", "101152.012000", "101152.015000", "101152.018000", "101152.020000", "101152.023000", "101152.026000", "101152.029000", "101152.032000", "101152.035000", "101152.038000", "101231.961000", "101231.964000", "101231.967000", "101231.970000", "101231.978000", "101231.980000", "101231.983000", "101231.986000", "101231.989000", "101231.992000", "101231.995000", "101231.998000", "101232.002000", "101232.005000", "101232.008000", "101232.010000", "101232.013000", "101232.016000", "101232.019000", "101232.022000", "101232.025000", "101232.028000", "101232.031000", "101232.034000", "101232.037000", "101232.039000", "101232.042000", "101311.963000", "101311.967000", "101311.971000", "101311.974000", "101311.977000", "101311.980000", "101311.983000", "101311.986000", "101311.989000", "101311.992000", "101311.994000", "101311.997000", "101312.001000", "101312.004000", "101312.007000", "101312.010000", "101312.013000", "101312.016000", "101312.019000", "101312.022000", "101312.024000", "101312.027000", "101312.030000", "101312.033000", "101312.036000", "101312.039000", "101351.962000", "101351.965000", "101351.968000", "101351.971000", "101351.974000", "101351.977000", "101351.980000", "101351.982000", "101351.985000", "101351.988000", "101351.991000", "101351.994000", "101351.997000", "101352.001000", "101352.004000", "101352.007000", "101352.010000", "101352.013000", "101352.015000", "101352.018000", "101352.021000", "101352.024000", "101352.027000", "101352.030000", "101352.033000", "101352.036000", "101352.038000", "101411.622000", "101411.625000", "101411.644000", "101411.647000", "101411.649000", "101411.652000", "101411.661000", "101411.664000", "101411.667000", "101411.670000", "101411.673000", "101411.676000", "101411.679000", "101411.682000"],
