{
  "AcquisitionMatrixPE": 104,
  "AcquisitionNumber": 1,
  "AcquisitionTime": "09:44:11.197500",
  "BandwidthPerPixelPhaseEncode": 17.17,
  "BaseResolution": 104,
  "BodyPartExamined": "BRAIN",
  "CoilString": "HC1-7;NC1_2",
  "ConsistencyInfo": "N4_VE11C_LATEST_20160120",
  "ConversionSoftware": "dcm2niix",
  "ConversionSoftwareVersion": "v1.0.20190902",
  "DerivedVendorReportedEchoSpacing": 0.000560011,
  "DeviceSerialNumber": "167006",
  "DwellTime": 2.1e-06,
  "EchoTime": 0.037,
  "EchoTrainLength": 104,
  "EffectiveEchoSpacing": 0.000560011,
  "FlipAngle": 52,
  "ImageComments": "Unaliased_MB4_PE3_LB",
  "ImageOrientationPatientDICOM": [0.99673, 0.0684943, 0.0428619, -0.0545044, 0.961561, -0.269128],
  "ImageType": [
    "ORIGINAL",
    "PRIMARY",
    "M",
    "MB",
    "ND",
    "MOSAIC"
],
  "ImagingFrequency": 123.259,
  "InPlanePhaseEncodingDirectionDICOM": "COL",
  "InstitutionAddress": "Chemin_Queen-Mary_4565_Montreal_District_CA_H3W_1W5",
  "InstitutionName": "IUGM",
  "InstitutionalDepartmentName": "Department",
  "MRAcquisitionType": "2D",
  "MagneticFieldStrength": 3,
  "Manufacturer": "Siemens",
  "ManufacturersModelName": "Prisma_fit",
  "Modality": "MR",
  "MultibandAccelerationFactor": 4,
  "PartialFourier": 1,
  "PatientPosition": "HFS",
  "PercentPhaseFOV": 100,
  "PhaseEncodingDirection": "j",
  "PhaseEncodingSteps": 104,
  "PhaseResolution": 1,
  "PixelBandwidth": 2290,
  "ProcedureStepDescription": "games_shinobi",
  "ProtocolName": "func_task-friends-s03e13b",
  "PulseSequenceDetails": "%CustomerSeq%_cmrr_mbep2d_bold",
  "ReceiveCoilActiveElements": "HC1-7;NC1,2",
  "ReceiveCoilName": "HeadNeck_64",
  "ReconMatrixPE": 104,
  "RepetitionTime": 1.49,
  "SAR": 0.0383229,
  "ScanOptions": "FS",
  "ScanningSequence": "EP",
  "SequenceName": "epfid2d1_104",
  "SequenceVariant": "SK_SS",
  "SeriesDescription": "func_task-friends-s03e13b",
  "SeriesNumber": 11,
  "ShimSetting": [642, -7218, -8813, 687, 107, -74, 100, -15],
  "SliceThickness": 2,
  "SliceTiming": [0, 0.785, 0.0975, 0.8825, 0.1975, 0.98, 0.295, 1.0775, 0.3925, 1.1775, 0.49, 1.275, 0.5875, 1.3725, 0.6875, 0, 0.785, 0.0975, 0.8825, 0.1975, 0.98, 0.295, 1.0775, 0.3925, 1.1775, 0.49, 1.275, 0.5875, 1.3725, 0.6875, 0, 0.785, 0.0975, 0.8825, 0.1975, 0.98, 0.295, 1.0775, 0.3925, 1.1775, 0.49, 1.275, 0.5875, 1.3725, 0.6875, 0, 0.785, 0.0975, 0.8825, 0.1975, 0.98, 0.295, 1.0775, 0.3925, 1.1775, 0.49, 1.275, 0.5875, 1.3725, 0.6875],
  "SoftwareVersions": "syngo_MR_E11",
  "SpacingBetweenSlices": 2,
  "StationName": "MRC35049",
  "TaskName": "s03e13b",
  "TotalReadoutTime": 0.0576811,
  "TxRefAmp": 244.404,
  "WipMemBlock": "cefb4501-f5b7-4c87-9916-36ca34035dc3||Sequence: R016 ve11c/master r/e634e98; Dec 19 2017 11:00:25 by eja",
  "dcmmeta_affine": [
    [-1.9934606552124023, -0.10900875180959702, 0.11929618567228317, 105.99252319335938],
    [-0.13698869943618774, 1.9231220483779907, -0.531822919845581, -67.3104476928711],
    [0.0857238844037056, 0.5382552146911621, 1.9243005514144897, -53.16437530517578],
    [0.0, 0.0, 0.0, 1.0]
],
  "dcmmeta_reorient_transform": [
    [0.0, -1.0, 0.0, 103.0],
    [1.0, 0.0, 0.0, 0.0],
    [0.0, 0.0, 1.0, 0.0],
    [0.0, 0.0, 0.0, 1.0]
],
  "dcmmeta_shape": [104, 104, 60, 473],
  "dcmmeta_slice_dim": 2,
  "dcmmeta_version": 0.6,
  "global": {
    "const": {
      "AcquisitionMatrix": [104, 0, 0, 104],
      "AngioFlag": "N",
      "BitsAllocated": 16,
      "BitsStored": 16,
      "BodyPartExamined": "BRAIN",
      "Columns": 832,
      "EchoNumbers": 1,
      "EchoTime": 37.0,
      "EchoTrainLength": 104,
      "FlipAngle": 52.0,
      "HighBit": 15,
      "ImageOrientationPatient": [0.99673034357219, 0.06849435016398, 0.04286194347064, -0.0545043763857, 0.96156102713455, -0.2691275980845],
      "ImagePositionPatient": [-780.70512844032, -880.65143485903, 166.9973083149],
      "ImageType": [
        "ORIGINAL",
        "PRIMARY",
        "M",
        "MB",
        "ND",
        "MOSAIC"
],
      "ImagedNucleus": "1H",
      "ImagingFrequency": 123.259098,
      "InPlanePhaseEncodingDirection": "COL",
      "MRAcquisitionType": "2D",
      "MagneticFieldStrength": 3.0,
      "Manufacturer": "SIEMENS",
      "ManufacturerModelName": "Prisma_fit",
      "Modality": "MR",
      "NumberOfAverages": 1.0,
      "NumberOfPhaseEncodingSteps": 104,
      "PercentPhaseFieldOfView": 100.0,
      "PercentSampling": 100.0,
      "PerformedProcedureStepStartTime": "090327.658000",
      "PhotometricInterpretation": "MONOCHROME2",
      "PixelBandwidth": 2290.0,
      "PixelRepresentation": 0,
      "PixelSpacing": [2.0, 2.0],
      "ProtocolName": "func_task-friends-s03e13b",
      "RepetitionTime": 1490.0,
      "Rows": 832,
      "SAR": 0.03832294165822,
      "SamplesPerPixel": 1,
      "ScanOptions": "FS",
      "ScanningSequence": "EP",
      "SequenceName": "epfid2d1_104",
      "SequenceVariant": [
        "SK",
        "SS"
],
      "SeriesDescription": "func_task-friends-s03e13b",
      "SeriesNumber": 11,
      "SeriesTime": "094512.210000",
      "SliceLocation": -26.931243666126,
      "SliceThickness": 2.0,
      "SmallestImagePixelValue": 0,
      "SoftwareVersions": "syngo MR E11",
      "SpacingBetweenSlices": 1.999999956508,
      "SpecificCharacterSet": "ISO_IR 100",
      "StudyID": "1",
      "StudyTime": "090327.493000",
      "TransmitCoilName": "Body",
      "VariableFlipAngleFlag": "N",
      "WindowCenterWidthExplanation": "Algo1",
      "dBdt": 0.0},
    "slices": {}
  },
  "time": {
    "samples": {
      "AcquisitionNumber": [1, 2, 3, 4, 5, 6, 7, 8, 9, 10, 11, 12, 13, 14, 15, 16, 17, 18, 19, 20, 21, 22, 23, 24, 25, 26, 27, 28, 29, 30, 31, 32, 33, 34, 35, 36, 37, 38, 39, 40, 41, 42, 43, 44, 45, 46, 47, 48, 49, 50, 51, 52, 53, 54, 55, 56, 57, 58, 59, 60, 61, 62, 63, 64, 65, 66, 67, 68, 69, 70, 71, 72, 73, 74, 75, 76, 77, 78, 79, 80, 81, 82, 83, 84, 85, 86, 87, 88, 89, 90, 91, 92, 93, 94, 95, 96, 97, 98, 99, 100, 101, 102, 103, 104, 105, 106, 107, 108, 109, 110, 111, 112, 113, 114, 115, 116, 117, 118, 119, 120, 121, 122, 123, 124, 125, 126, 127, 128, 129, 130, 131, 132, 133, 134, 135, 136, 137, 138, 139, 140, 141, 142, 143, 144, 145, 146, 147, 148, 149, 150, 151, 152, 153, 154, 155, 156, 157, 158, 159, 160, 161, 162, 163, 164, 165, 166, 167, 168, 169, 170, 171, 172, 173, 174, 175, 176, 177, 178, 179, 180, 181, 182, 183, 184, 185, 186, 187, 188, 189, 190, 191, 192, 193, 194, 195, 196, 197, 198, 199, 200, 201, 202, 203, 204, 205, 206, 207, 208, 209, 210, 211, 212, 213, 214, 215, 216, 217, 218, 219, 220, 221, 222, 223, 224, 225, 226, 227, 228, 229, 230, 231, 232, 233, 234, 235, 236, 237, 238, 239, 240, 241, 242, 243, 244, 245, 246, 247, 248, 249, 250, 251, 252, 253, 254, 255, 256, 257, 258, 259, 260, 261, 262, 263, 264, 265, 266, 267, 268, 269, 270, 271, 272, 273, 274, 275, 276, 277, 278, 279, 280, 281, 282, 283, 284, 285, 286, 287, 288, 289, 290, 291, 292, 293, 294, 295, 296, 297, 298, 299, 300, 301, 302, 303, 304, 305, 306, 307, 308, 309, 310, 311, 312, 313, 314, 315, 316, 317, 318, 319, 320, 321, 322, 323, 324, 325, 326, 327, 328, 329, 330, 331, 332, 333, 334, 335, 336, 337, 338, 339, 340, 341, 342, 343, 344, 345, 346, 347, 348, 349, 350, 351, 352, 353, 354, 355, 356, 357, 358, 359, 360, 361, 362, 363, 364, 365, 366, 367, 368, 369, 370, 371, 372, 373, 374, 375, 376, 377, 378, 379, 380, 381, 382, 383, 384, 385, 386, 387, 388, 389, 390, 391, 392, 393, 394, 395, 396, 397, 398, 399, 400, 401, 402, 403, 404, 405, 406, 407, 408, 409, 410, 411, 412, 413, 414, 415, 416, 417, 418, 419, 420, 421, 422, 423, 424, 425, 426, 427, 428, 429, 430, 431, 432, 433, 434, 435, 436, 437, 438, 439, 440, 441, 442, 443, 444, 445, 446, 447, 448, 449, 450, 451, 452, 453, 454, 455, 456, 457, 458, 459, 460, 461, 462, 463, 464, 465, 466, 467, 468, 469, 470, 471, 472, 473],
      "AcquisitionTime": ["094411.197500", "094412.687500", "094414.177500", "094415.667500", "094417.157500", "094418.647500", "094420.137500", "094421.627500", "094423.117500", "094424.607500", "094426.097500", "094427.587500", "094429.077500", "094430.567500", "094432.057500", "094433.547500", "094435.037500", "094436.527500", "094438.017500", "094439.507500", "094440.997500", "094442.487500", "094443.977500", "094445.467500", "094446.957500", "094448.447500", "094449.937500", "094451.427500", "094452.917500", "094454.407500", "094455.897500", "094457.387500", "094458.877500", "094500.367500", "094501.857500", "094503.347500", "094504.837500", "094506.327500", "094507.817500", "094509.307500", "094510.797500", "094512.287500", "094513.777500", "094515.267500", "094516.757500", "094518.247500", "094519.737500", "094521.227500", "094522.717500", "094524.207500", "094525.697500", "094527.187500", "094528.677500", "094530.167500", "094531.657500", "094533.147500", "094534.637500", "094536.127500", "094537.617500", "094539.107500", "094540.597500", "094542.087500", "094543.577500", "094545.067500", "094546.557500", "094548.047500", "094549.537500", "094551.027500", "094552.517500", "094554.007500", "094555.497500", "094556.987500", "094558.477500", "094559.967500", "094601.457500", "094602.947500", "094604.437500", "094605.927500", "094607.417500", "094608.907500", "094610.397500", "094611.887500", "094613.377500", "094614.867500", "094616.357500", "094617.847500", "094619.337500", "094620.827500", "094622.317500", "094623.807500", "094625.297500", "094626.787500", "094628.277500", "094629.767500", "094631.257500", "094632.747500", "094634.237500", "094635.727500", "094637.217500", "094638.707500", "094640.197500", "094641.687500", "094643.177500", "094644.667500", "094646.157500", "094647.647500", "094649.137500", "094650.627500", "094652.117500", "094653.607500", "094655.097500", "094656.587500", "094658.077500", "094659.567500", "094701.057500", "094702.547500", "094704.037500", "094705.527500", "094707.017500", "094708.507500", "094709.997500", "094711.487500", "094712.977500", "094714.467500", "094715.957500", "094717.447500", "094718.937500", "094720.427500", "094721.917500", "094723.407500", "094724.897500", "094726.387500", "094727.877500", "094729.367500", "094730.857500", "094732.347500", "094733.837500", "094735.327500", "094736.817500", "094738.307500", "094739.797500", "094741.287500", "094742.777500", "094744.267500", "094745.757500", "094747.247500", "094748.737500", "094750.227500", "094751.717500", "094753.207500", "094754.697500", "094756.187500", "094757.677500", "094759.167500", "094800.657500", "094802.147500", "094803.637500", "094805.127500", "094806.617500", "094808.107500", "094809.597500", "094811.087500", "094812.577500", "094814.067500", "094815.557500", "094817.047500", "094818.537500", "094820.027500", "094821.517500", "094823.007500", "094824.497500", "094825.987500", "094827.477500", "094828.967500", "094830.457500", "094831.947500", "094833.437500", "094834.927500", "094836.417500", "094837.907500", "094839.397500", "094840.887500", "094842.377500", "094843.867500", "094845.357500", "094846.847500", "094848.337500", "094849.827500", "094851.317500", "094852.807500", "094854.297500", "094855.787500", "094857.277500", "094858.767500", "094900.257500", "094901.747500", "094903.237500", "094904.727500", "094906.217500", "094907.707500", "094909.197500", "094910.687500", "094912.177500", "094913.667500", "094915.157500", "094916.647500", "094918.137500", "094919.627500", "094921.117500", "094922.607500", "094924.097500", "094925.587500", "094927.077500", "094928.567500", "094930.057500", "094931.547500", "094933.037500", "094934.527500", "094936.017500", "094937.507500", "094938.997500", "094940.487500", "094941.977500", "094943.467500", "094944.957500", "094946.447500", "094947.937500", "094949.427500", "094950.917500", "094952.407500", "094953.897500", "094955.387500", "094956.877500", "094958.367500", "094959.857500", "095001.347500", "095002.837500", "095004.327500", "095005.817500", "095007.307500", "095008.797500", "095010.287500", "095011.777500", "095013.267500", "095014.757500", "095016.247500", "095017.737500", "095019.227500", "095020.717500", "095022.207500", "095023.697500", "095025.187500", "095026.677500", "095028.167500", "095029.657500", "095031.147500", "095032.637500", "095034.127500", "095035.617500", "095037.107500", "095038.597500", "095040.087500", "095041.577500", "095043.067500", "095044.557500", "095046.047500", "095047.537500", "095049.027500", "095050.517500", "095052.007500", "095053.497500", "095054.987500", "095056.477500", "095057.967500", "095059.457500", "095100.947500", "095102.437500", "095103.927500", "095105.417500", "095106.907500", "095108.397500", "095109.887500", "095111.377500", "095112.867500", "095114.357500", "095115.847500", "095117.337500", "095118.827500", "095120.317500", "095121.807500", "095123.297500", "095124.787500", "095126.277500", "095127.767500", "095129.257500", "095130.747500", "095132.237500", "095133.727500", "095135.217500", "095136.707500", "095138.197500", "095139.687500", "095141.177500", "095142.667500", "095144.157500", "095145.647500", "095147.137500", "095148.627500", "095150.117500", "095151.607500", "095153.097500", "095154.587500", "095156.077500", "095157.567500", "095159.057500", "095200.547500", "095202.037500", "095203.527500", "095205.017500", "095206.507500", "095207.997500", "095209.487500", "095210.977500", "095212.467500", "095213.957500", "095215.447500", "095216.937500", "095218.427500", "095219.917500", "095221.407500", "095222.897500", "095224.387500", "095225.877500", "095227.367500", "095228.857500", "095230.347500", "095231.837500", "095233.327500", "095234.817500", "095236.307500", "095237.797500", "095239.287500", "095240.777500", "095242.267500", "095243.757500", "095245.247500", "095246.737500", "095248.227500", "095249.717500", "095251.207500", "095252.697500", "095254.187500", "095255.677500", "095257.167500", "095258.657500", "095300.147500", "095301.637500", "095303.127500", "095304.617500", "095306.107500", "095307.597500", "095309.087500", "095310.577500", "095312.067500", "095313.557500", "095315.047500", "095316.537500", "095318.027500", "095319.517500", "095321.007500", "095322.497500", "095323.987500", "095325.477500", "095326.967500", "095328.457500", "095329.947500", "095331.437500", "095332.927500", "095334.417500", "095335.907500", "095337.397500", "095338.887500", "095340.377500", "095341.867500", "095343.357500", "095344.847500", "095346.337500", "095347.827500", "095349.317500", "095350.807500", "095352.297500", "095353.787500", "095355.277500", "095356.767500", "095358.257500", "095359.747500", "095401.237500", "095402.727500", "095404.217500", "095405.707500", "095407.197500", "095408.687500", "095410.177500", "095411.667500", "095413.157500", "095414.647500", "095416.137500", "095417.627500", "095419.117500", "095420.607500", "095422.097500", "095423.587500", "095425.077500", "095426.567500", "095428.057500", "095429.547500", "095431.037500", "095432.527500", "095434.017500", "095435.507500", "095436.997500", "095438.487500", "095439.977500", "095441.467500", "095442.957500", "095444.447500", "095445.937500", "095447.427500", "095448.917500", "095450.407500", "095451.897500", "095453.387500", "095454.877500", "095456.367500", "095457.857500", "095459.347500", "095500.837500", "095502.327500", "095503.817500", "095505.307500", "095506.797500", "095508.287500", "095509.777500", "095511.267500", "095512.757500", "095514.247500", "095515.737500", "095517.227500", "095518.717500", "095520.207500", "095521.697500", "095523.187500", "095524.677500", "095526.167500", "095527.657500", "095529.147500", "095530.637500", "095532.127500", "095533.617500", "095535.107500", "095536.597500", "095538.087500", "095539.577500", "095541.067500", "095542.557500", "095544.047500", "095545.537500", "095547.027500", "095548.517500", "095550.007500", "095551.497500", "095552.987500", "095554.477500"],
      "ContentTime": ["094512.213000", "094512.216000", "094512.219000", "094512.222000", "094512.224000", "094512.227000", "094532.183000", "094532.186000", "094532.189000", "094532.191000", "094532.194000", "094532.197000", "094532.200000", "094532.203000", "094532.205000", "094532.208000", "094532.211000", "094532.214000", "094532.217000", "094532.219000", "094532.222000", "094532.225000", "094532.228000", "094532.236000", "094532.239000", "094532.242000", "094552.183000", "094552.186000", "094552.188000", "094552.191000", "094552.194000", "094552.197000", "094552.200000", "094552.203000", "094552.205000", "094552.208000", "094552.211000", "094552.214000", "094552.217000", "094552.219000", "094552.222000", "094552.225000", "094552.237000", "094552.239000", "094552.242000", "094552.245000", "094612.183000", "094612.186000", "094612.189000", "094612.192000", "094612.194000", "094612.197000", "094612.200000", "094612.203000", "094612.206000", "094612.209000", "094612.211000", "094612.216000", "094612.219000", "094612.221000", "094612.224000", "094612.227000", "094612.230000", "094612.233000", "094612.235000", "094612.238000", "094612.241000", "094632.183000", "094632.186000", "094632.189000", "094632.191000", "094632.194000", "094632.197000", "094632.200000", "094632.203000", "094632.206000", "094632.208000", "094632.211000", "094632.214000", "094632.217000", "094632.220000", "094632.222000", "094632.225000", "094632.228000", "094632.231000", "094632.234000", "094632.236000", "094652.183000", "094652.186000", "094652.189000", "094652.191000", "094652.194000", "094652.197000", "094652.200000", "094652.203000", "094652.206000", "094652.208000", "094652.211000", "094652.214000", "094652.222000", "094652.225000", "094652.228000", "094652.231000", "094652.234000", "094652.236000", "094652.239000", "094652.242000", "094732.182000", "094732.185000", "094732.188000", "094732.191000", "094732.194000", "094732.197000", "094732.199000", "094732.202000", "094732.205000", "094732.208000", "094732.211000", "094732.213000", "094732.216000", "094732.219000", "094732.222000", "094732.225000", "094732.228000", "094732.231000", "094732.233000", "094732.236000", "094732.239000", "094732.247000", "094732.250000", "094732.253000", "094732.256000", "094732.259000", "094732.262000", "094812.183000", "094812.186000", "094812.189000", "094812.191000", "094812.194000", "094812.197000", "094812.200000", "094812.203000", "094812.205000", "094812.208000", "094812.211000", "094812.214000", "094812.217000", "094812.220000", "094812.223000", "094812.225000", "094812.228000", "094812.231000", "094812.234000", "094812.237000", "094812.239000", "094812.242000", "094812.245000", "094812.248000", "094812.251000", "094812.253000", "094812.256000", "094852.183000", "094852.186000", "094852.189000", "094852.192000", "094852.194000", "094852.197000", "094852.200000", "094852.203000", "094852.206000", "094852.208000", "094852.211000", "094852.214000", "094852.217000", "094852.220000", "094852.223000", "094852.225000", "094852.228000", "094852.231000", "094852.234000", "094852.237000", "094852.240000", "094852.242000", "094852.245000", "094852.248000", "094852.251000", "094852.254000", "094852.269000", "094932.182000", "094932.185000", "094932.188000", "094932.191000", "094932.193000", "094932.196000", "094932.199000", "094932.202000", "094932.205000", "094932.208000", "094932.211000", "094932.214000", "094932.217000", "094932.220000", "094932.222000", "094932.225000", "094932.228000", "094932.231000", "094932.234000", "094932.236000", "094932.239000", "094932.242000", "094932.245000", "094932.248000", "094932.250000", "094932.253000", "095012.183000", "095012.186000", "095012.189000", "095012.191000", "095012.194000", "095012.197000", "095012.200000", "095012.203000", "095012.206000", "095012.208000", "095012.211000", "095012.214000", "095012.217000", "095012.220000", "095012.223000", "095012.225000", "095012.228000", "095012.231000", "095012.234000", "095012.237000", "095012.240000", "095012.242000", "095012.245000", "095012.248000", "095012.251000", "095012.254000", "095012.257000", "095052.183000", "095052.186000", "095052.189000", "095052.192000", "095052.194000", "095052.197000", "095052.200000", "095052.203000", "095052.206000", "095052.209000", "095052.211000", "095052.214000", "095052.217000", "095052.220000", "095052.223000", "095052.226000", "095052.228000", "095052.231000", "095052.234000", "095052.237000", "095052.240000", "095052.242000", "095052.245000", "095052.248000", "095052.251000", "095052.254000", "095052.257000", "095132.183000", "095132.186000", "095132.189000", "095132.192000", "095132.194000", "095132.197000", "095132.200000", "095132.203000", "095132.206000", "095132.208000", "095132.211000", "095132.214000", "095132.217000", "095132.220000", "095132.223000", "095132.225000", "095132.228000", "095132.231000", "095132.234000", "095132.237000", "095132.240000", "095132.242000", "095132.245000", "095132.248000", "095132.251000", "095132.254000", "095132.256000", "095212.182000", "095212.185000", "095212.188000", "095212.191000", "095212.193000", "095212.196000", "095212.199000", "095212.202000", "095212.205000", "095212.207000", "095212.210000", "095212.213000", "095212.216000", "095212.219000", "095212.222000", "095212.224000", "095212.227000", "095212.230000", "095212.233000", "095212.236000", "095212.238000", "095212.241000", "095212.244000", "095212.247000", "095212.250000", "095212.252000", "095212.255000", "095252.183000", "095252.186000", "095252.189000", "095252.192000", "095252.194000", "095252.197000", "095252.200000", "095252.203000", "095252.206000", "095252.209000", "095252.211000", "095252.214000", "095252.217000", "095252.220000", "095252.223000", "095252.226000", "095252.228000", "095252.231000", "095252.234000", "095252.237000", "095252.240000", "095252.243000", "095252.245000", "095252.248000", "095252.251000", "095252.254000", "095252.257000", "095332.183000", "095332.186000", "095332.189000", "095332.192000", "095332.195000", "095332.198000", "095332.200000", "095332.203000", "095332.206000", "095332.209000", "095332.212000", "095332.214000", "095332.217000", "095332.220000", "095332.223000", "095332.226000", "095332.229000", "095332.231000", "095332.234000", "095332.237000", "095332.240000", "095332.243000", "095332.246000", "095332.248000", "095332.251000", "095332.254000", "095332.272000", "095352.183000", "095352.186000", "095352.189000", "095352.192000", "095352.194000", "095352.197000", "095352.200000", "095352.203000", "095352.206000", "095352.209000", "095352.211000", "095352.214000", "095352.217000", "095432.182000", "095432.185000", "095432.188000", "095432.191000", "095432.193000", "095432.196000", "095432.199000", "095432.202000", "095432.205000", "095432.208000", "095432.210000", "095432.213000", "095432.216000", "095432.219000", "095432.222000", "095432.225000", "095432.227000", "095432.230000", "095432.233000", "095432.236000", "095432.239000", "095432.242000", "095432.244000", "095432.247000", "095432.250000", "095432.253000", "095432.256000", "095512.183000", "095512.186000", "095512.189000", "095512.192000", "095512.194000", "095512.197000", "095512.200000", "095512.203000", "095512.206000", "095512.209000", "095512.211000", "095512.214000", "095512.217000", "095512.220000", "095512.223000", "095512.225000", "095512.228000", "095512.231000", "095512.234000", "095512.237000", "095512.240000", "095512.242000", "095512.245000", "095512.248000", "095512.251000", "095512.254000", "095512.256000", "095552.183000", "095552.186000", "095552.189000", "095552.192000", "095552.194000", "095552.197000", "095552.200000", "095552.203000", "095552.206000", "095552.209000", "095552.212000", "095552.214000", "095552.217000", "095552.220000", "095552.223000", "095552.227000", "095552.230000", "095552.233000", "095552.236000", "095552.238000", "095552.241000", "095552.244000", "095552.247000", "095552.250000", "095552.253000", "095552.256000", "095556.739000", "095556.742000", "095556.745000", "095556.748000"],
