{
  "AcquisitionMatrixPE": 104,
  "AcquisitionNumber": 1,
  "AcquisitionTime": "10:08:24.605000",
  "BandwidthPerPixelPhaseEncode": 17.17,
  "BaseResolution": 104,
  "BodyPartExamined": "BRAIN",
  "CoilString": "HC1-7;NC1_2",
  "ConsistencyInfo": "N4_VE11C_LATEST_20160120",
  "ConversionSoftware": "dcm2niix",
  "ConversionSoftwareVersion": "v1.0.20190902",
  "DerivedVendorReportedEchoSpacing": 0.000560011,
  "DeviceSerialNumber": "167006",
  "DwellTime": 2.1e-06,
  "EchoTime": 0.037,
  "EchoTrainLength": 104,
  "EffectiveEchoSpacing": 0.000560011,
  "FlipAngle": 52,
  "ImageComments": "Unaliased_MB4_PE3_LB",
  "ImageOrientationPatientDICOM": [0.99673, 0.0684943, 0.0428619, -0.0545044, 0.961561, -0.269128],
  "ImageType": [
    "ORIGINAL",
    "PRIMARY",
    "M",
    "MB",
    "ND",
    "MOSAIC"
],
  "ImagingFrequency": 123.259,
  "InPlanePhaseEncodingDirectionDICOM": "COL",
  "InstitutionAddress": "Chemin_Queen-Mary_4565_Montreal_District_CA_H3W_1W5",
  "InstitutionName": "IUGM",
  "InstitutionalDepartmentName": "Department",
  "MRAcquisitionType": "2D",
  "MagneticFieldStrength": 3,
  "Manufacturer": "Siemens",
  "ManufacturersModelName": "Prisma_fit",
  "Modality": "MR",
  "MultibandAccelerationFactor": 4,
  "PartialFourier": 1,
  "PatientPosition": "HFS",
  "PercentPhaseFOV": 100,
  "PhaseEncodingDirection": "j",
  "PhaseEncodingSteps": 104,
  "PhaseResolution": 1,
  "PixelBandwidth": 2290,
  "ProcedureStepDescription": "games_shinobi",
  "ProtocolName": "func_task-friends-s03e14b",
  "PulseSequenceDetails": "%CustomerSeq%_cmrr_mbep2d_bold",
  "ReceiveCoilActiveElements": "HC1-7;NC1,2",
  "ReceiveCoilName": "HeadNeck_64",
  "ReconMatrixPE": 104,
  "RepetitionTime": 1.49,
  "SAR": 0.0383177,
  "ScanOptions": "FS",
  "ScanningSequence": "EP",
  "SequenceName": "epfid2d1_104",
  "SequenceVariant": "SK_SS",
  "SeriesDescription": "func_task-friends-s03e14b",
  "SeriesNumber": 15,
  "ShimSetting": [642, -7218, -8813, 687, 107, -74, 100, -15],
  "SliceThickness": 2,
  "SliceTiming": [0, 0.7825, 0.0975, 0.8825, 0.195, 0.98, 0.2925, 1.0775, 0.3925, 1.175, 0.49, 1.2725, 0.5875, 1.3725, 0.685, 0, 0.7825, 0.0975, 0.8825, 0.195, 0.98, 0.2925, 1.0775, 0.3925, 1.175, 0.49, 1.2725, 0.5875, 1.3725, 0.685, 0, 0.7825, 0.0975, 0.8825, 0.195, 0.98, 0.2925, 1.0775, 0.3925, 1.175, 0.49, 1.2725, 0.5875, 1.3725, 0.685, 0, 0.7825, 0.0975, 0.8825, 0.195, 0.98, 0.2925, 1.0775, 0.3925, 1.175, 0.49, 1.2725, 0.5875, 1.3725, 0.685],
  "SoftwareVersions": "syngo_MR_E11",
  "SpacingBetweenSlices": 2,
  "StationName": "MRC35049",
  "TaskName": "s03e14b",
  "TotalReadoutTime": 0.0576811,
  "TxRefAmp": 244.404,
  "WipMemBlock": "83e28268-96a9-4148-85ea-75e449add49e||Sequence: R016 ve11c/master r/e634e98; Dec 19 2017 11:00:25 by eja",
  "dcmmeta_affine": [
    [-1.9934606552124023, -0.10900875180959702, 0.11929618567228317, 105.99252319335938],
    [-0.13698869943618774, 1.9231220483779907, -0.531822919845581, -67.3104476928711],
    [0.0857238844037056, 0.5382552146911621, 1.9243005514144897, -53.16437530517578],
    [0.0, 0.0, 0.0, 1.0]
],
  "dcmmeta_reorient_transform": [
    [0.0, -1.0, 0.0, 103.0],
    [1.0, 0.0, 0.0, 0.0],
    [0.0, 0.0, 1.0, 0.0],
    [0.0, 0.0, 0.0, 1.0]
],
  "dcmmeta_shape": [104, 104, 60, 458],
  "dcmmeta_slice_dim": 2,
  "dcmmeta_version": 0.6,
  "global": {
    "const": {
      "AcquisitionMatrix": [104, 0, 0, 104],
      "AngioFlag": "N",
      "BitsAllocated": 16,
      "BitsStored": 16,
      "BodyPartExamined": "BRAIN",
      "Columns": 832,
      "EchoNumbers": 1,
      "EchoTime": 37.0,
      "EchoTrainLength": 104,
      "FlipAngle": 52.0,
      "HighBit": 15,
      "ImageOrientationPatient": [0.99673034357219, 0.06849435016398, 0.04286194347064, -0.0545043763857, 0.96156102713455, -0.2691275980845],
      "ImagePositionPatient": [-780.70512844032, -880.65143485903, 166.9973083149],
      "ImageType": [
        "ORIGINAL",
        "PRIMARY",
        "M",
        "MB",
        "ND",
        "MOSAIC"
],
      "ImagedNucleus": "1H",
      "ImagingFrequency": 123.259109,
      "InPlanePhaseEncodingDirection": "COL",
      "MRAcquisitionType": "2D",
      "MagneticFieldStrength": 3.0,
      "Manufacturer": "SIEMENS",
      "ManufacturerModelName": "Prisma_fit",
      "Modality": "MR",
      "NumberOfAverages": 1.0,
      "NumberOfPhaseEncodingSteps": 104,
      "PercentPhaseFieldOfView": 100.0,
      "PercentSampling": 100.0,
      "PerformedProcedureStepStartTime": "090327.658000",
      "PhotometricInterpretation": "MONOCHROME2",
      "PixelBandwidth": 2290.0,
      "PixelRepresentation": 0,
      "PixelSpacing": [2.0, 2.0],
      "ProtocolName": "func_task-friends-s03e14b",
      "RepetitionTime": 1490.0,
      "Rows": 832,
      "SAR": 0.03831769974489,
      "SamplesPerPixel": 1,
      "ScanOptions": "FS",
      "ScanningSequence": "EP",
      "SequenceName": "epfid2d1_104",
      "SequenceVariant": [
        "SK",
        "SS"
],
      "SeriesDescription": "func_task-friends-s03e14b",
      "SeriesNumber": 15,
      "SeriesTime": "100945.611000",
      "SliceLocation": -26.931243666126,
      "SliceThickness": 2.0,
      "SmallestImagePixelValue": 0,
      "SoftwareVersions": "syngo MR E11",
      "SpacingBetweenSlices": 1.999999956508,
      "SpecificCharacterSet": "ISO_IR 100",
      "StudyID": "1",
      "StudyTime": "090327.493000",
      "TransmitCoilName": "Body",
      "VariableFlipAngleFlag": "N",
      "WindowCenterWidthExplanation": "Algo1",
      "dBdt": 0.0},
    "slices": {}
  },
  "time": {
    "samples": {
      "AcquisitionNumber": [1, 2, 3, 4, 5, 6, 7, 8, 9, 10, 11, 12, 13, 14, 15, 16, 17, 18, 19, 20, 21, 22, 23, 24, 25, 26, 27, 28, 29, 30, 31, 32, 33, 34, 35, 36, 37, 38, 39, 40, 41, 42, 43, 44, 45, 46, 47, 48, 49, 50, 51, 52, 53, 54, 55, 56, 57, 58, 59, 60, 61, 62, 63, 64, 65, 66, 67, 68, 69, 70, 71, 72, 73, 74, 75, 76, 77, 78, 79, 80, 81, 82, 83, 84, 85, 86, 87, 88, 89, 90, 91, 92, 93, 94, 95, 96, 97, 98, 99, 100, 101, 102, 103, 104, 105, 106, 107, 108, 109, 110, 111, 112, 113, 114, 115, 116, 117, 118, 119, 120, 121, 122, 123, 124, 125, 126, 127, 128, 129, 130, 131, 132, 133, 134, 135, 136, 137, 138, 139, 140, 141, 142, 143, 144, 145, 146, 147, 148, 149, 150, 151, 152, 153, 154, 155, 156, 157, 158, 159, 160, 161, 162, 163, 164, 165, 166, 167, 168, 169, 170, 171, 172, 173, 174, 175, 176, 177, 178, 179, 180, 181, 182, 183, 184, 185, 186, 187, 188, 189, 190, 191, 192, 193, 194, 195, 196, 197, 198, 199, 200, 201, 202, 203, 204, 205, 206, 207, 208, 209, 210, 211, 212, 213, 214, 215, 216, 217, 218, 219, 220, 221, 222, 223, 224, 225, 226, 227, 228, 229, 230, 231, 232, 233, 234, 235, 236, 237, 238, 239, 240, 241, 242, 243, 244, 245, 246, 247, 248, 249, 250, 251, 252, 253, 254, 255, 256, 257, 258, 259, 260, 261, 262, 263, 264, 265, 266, 267, 268, 269, 270, 271, 272, 273, 274, 275, 276, 277, 278, 279, 280, 281, 282, 283, 284, 285, 286, 287, 288, 289, 290, 291, 292, 293, 294, 295, 296, 297, 298, 299, 300, 301, 302, 303, 304, 305, 306, 307, 308, 309, 310, 311, 312, 313, 314, 315, 316, 317, 318, 319, 320, 321, 322, 323, 324, 325, 326, 327, 328, 329, 330, 331, 332, 333, 334, 335, 336, 337, 338, 339, 340, 341, 342, 343, 344, 345, 346, 347, 348, 349, 350, 351, 352, 353, 354, 355, 356, 357, 358, 359, 360, 361, 362, 363, 364, 365, 366, 367, 368, 369, 370, 371, 372, 373, 374, 375, 376, 377, 378, 379, 380, 381, 382, 383, 384, 385, 386, 387, 388, 389, 390, 391, 392, 393, 394, 395, 396, 397, 398, 399, 400, 401, 402, 403, 404, 405, 406, 407, 408, 409, 410, 411, 412, 413, 414, 415, 416, 417, 418, 419, 420, 421, 422, 423, 424, 425, 426, 427, 428, 429, 430, 431, 432, 433, 434, 435, 436, 437, 438, 439, 440, 441, 442, 443, 444, 445, 446, 447, 448, 449, 450, 451, 452, 453, 454, 455, 456, 457, 458],
      "AcquisitionTime": ["100824.605000", "100826.095000", "100827.585000", "100829.075000", "100830.565000", "100832.055000", "100833.545000", "100835.035000", "100836.525000", "100838.015000", "100839.505000", "100840.995000", "100842.485000", "100843.975000", "100845.465000", "100846.955000", "100848.445000", "100849.935000", "100851.425000", "100852.915000", "100854.405000", "100855.895000", "100857.385000", "100858.875000", "100900.365000", "100901.855000", "100903.345000", "100904.835000", "100906.325000", "100907.815000", "100909.305000", "100910.795000", "100912.285000", "100913.775000", "100915.265000", "100916.755000", "100918.245000", "100919.735000", "100921.225000", "100922.715000", "100924.205000", "100925.695000", "100927.185000", "100928.675000", "100930.165000", "100931.655000", "100933.145000", "100934.635000", "100936.125000", "100937.615000", "100939.105000", "100940.595000", "100942.085000", "100943.575000", "100945.065000", "100946.555000", "100948.045000", "100949.535000", "100951.025000", "100952.515000", "100954.005000", "100955.495000", "100956.985000", "100958.475000", "100959.965000", "101001.455000", "101002.945000", "101004.435000", "101005.925000", "101007.415000", "101008.905000", "101010.395000", "101011.885000", "101013.375000", "101014.865000", "101016.355000", "101017.845000", "101019.335000", "101020.825000", "101022.315000", "101023.805000", "101025.295000", "101026.785000", "101028.275000", "101029.765000", "101031.255000", "101032.745000", "101034.235000", "101035.725000", "101037.215000", "101038.705000", "101040.195000", "101041.685000", "101043.175000", "101044.665000", "101046.155000", "101047.645000", "101049.135000", "101050.625000", "101052.115000", "101053.605000", "101055.095000", "101056.585000", "101058.075000", "101059.565000", "101101.055000", "101102.545000", "101104.035000", "101105.525000", "101107.015000", "101108.505000", "101109.995000", "101111.485000", "101112.975000", "101114.465000", "101115.955000", "101117.445000", "101118.935000", "101120.425000", "101121.915000", "101123.405000", "101124.895000", "101126.385000", "101127.875000", "101129.365000", "101130.855000", "101132.345000", "101133.835000", "101135.325000", "101136.815000", "101138.305000", "101139.795000", "101141.285000", "101142.775000", "101144.265000", "101145.755000", "101147.245000", "101148.735000", "101150.225000", "101151.715000", "101153.205000", "101154.695000", "101156.185000", "101157.675000", "101159.165000", "101200.655000", "101202.145000", "101203.635000", "101205.125000", "101206.615000", "101208.105000", "101209.595000", "101211.085000", "101212.575000", "101214.065000", "101215.555000", "101217.045000", "101218.535000", "101220.025000", "101221.515000", "101223.005000", "101224.495000", "101225.985000", "101227.475000", "101228.965000", "101230.455000", "101231.945000", "101233.435000", "101234.925000", "101236.415000", "101237.905000", "101239.395000", "101240.885000", "101242.375000", "101243.865000", "101245.355000", "101246.845000", "101248.335000", "101249.825000", "101251.315000", "101252.805000", "101254.295000", "101255.785000", "101257.275000", "101258.765000", "101300.255000", "101301.745000", "101303.235000", "101304.725000", "101306.215000", "101307.705000", "101309.195000", "101310.685000", "101312.175000", "101313.665000", "101315.155000", "101316.645000", "101318.135000", "101319.625000", "101321.115000", "101322.605000", "101324.095000", "101325.585000", "101327.075000", "101328.565000", "101330.055000", "101331.545000", "101333.035000", "101334.525000", "101336.015000", "101337.505000", "101338.995000", "101340.485000", "101341.975000", "101343.465000", "101344.955000", "101346.445000", "101347.935000", "101349.425000", "101350.915000", "101352.405000", "101353.895000", "101355.385000", "101356.875000", "101358.365000", "101359.855000", "101401.345000", "101402.835000", "101404.325000", "101405.815000", "101407.305000", "101408.795000", "101410.285000", "101411.775000", "101413.265000", "101414.755000", "101416.245000", "101417.735000", "101419.225000", "101420.715000", "101422.205000", "101423.695000", "101425.185000", "101426.675000", "101428.165000", "101429.655000", "101431.145000", "101432.635000", "101434.125000", "101435.615000", "101437.105000", "101438.595000", "101440.085000", "101441.575000", "101443.065000", "101444.555000", "101446.045000", "101447.535000", "101449.025000", "101450.515000", "101452.005000", "101453.495000", "101454.985000", "101456.475000", "101457.965000", "101459.455000", "101500.945000", "101502.435000", "101503.925000", "101505.415000", "101506.905000", "101508.395000", "101509.885000", "101511.375000", "101512.865000", "101514.355000", "101515.845000", "101517.335000", "101518.825000", "101520.315000", "101521.805000", "101523.295000", "101524.785000", "101526.275000", "101527.765000", "101529.255000", "101530.745000", "101532.235000", "101533.725000", "101535.215000", "101536.705000", "101538.195000", "101539.685000", "101541.175000", "101542.665000", "101544.155000", "101545.645000", "101547.135000", "101548.625000", "101550.115000", "101551.605000", "101553.095000", "101554.585000", "101556.075000", "101557.565000", "101559.055000", "101600.545000", "101602.035000", "101603.525000", "101605.015000", "101606.505000", "101607.995000", "101609.485000", "101610.975000", "101612.465000", "101613.955000", "101615.445000", "101616.935000", "101618.425000", "101619.915000", "101621.405000", "101622.895000", "101624.385000", "101625.875000", "101627.365000", "101628.855000", "101630.345000", "101631.835000", "101633.325000", "101634.815000", "101636.305000", "101637.795000", "101639.285000", "101640.775000", "101642.265000", "101643.755000", "101645.245000", "101646.735000", "101648.225000", "101649.715000", "101651.205000", "101652.695000", "101654.185000", "101655.675000", "101657.165000", "101658.655000", "101700.145000", "101701.635000", "101703.125000", "101704.615000", "101706.105000", "101707.595000", "101709.085000", "101710.575000", "101712.065000", "101713.555000", "101715.045000", "101716.535000", "101718.025000", "101719.515000", "101721.005000", "101722.495000", "101723.985000", "101725.475000", "101726.965000", "101728.455000", "101729.945000", "101731.435000", "101732.925000", "101734.415000", "101735.905000", "101737.395000", "101738.885000", "101740.375000", "101741.865000", "101743.355000", "101744.845000", "101746.335000", "101747.825000", "101749.315000", "101750.805000", "101752.295000", "101753.785000", "101755.275000", "101756.765000", "101758.255000", "101759.745000", "101801.235000", "101802.725000", "101804.215000", "101805.705000", "101807.195000", "101808.685000", "101810.175000", "101811.665000", "101813.155000", "101814.645000", "101816.135000", "101817.625000", "101819.115000", "101820.605000", "101822.095000", "101823.585000", "101825.075000", "101826.565000", "101828.055000", "101829.545000", "101831.035000", "101832.525000", "101834.015000", "101835.505000", "101836.995000", "101838.485000", "101839.975000", "101841.465000", "101842.955000", "101844.445000", "101845.935000", "101847.425000", "101848.915000", "101850.405000", "101851.895000", "101853.385000", "101854.875000", "101856.365000", "101857.855000", "101859.345000", "101900.835000", "101902.325000", "101903.815000", "101905.305000", "101906.795000", "101908.285000", "101909.775000", "101911.265000", "101912.755000", "101914.245000", "101915.735000", "101917.225000", "101918.715000", "101920.205000", "101921.695000", "101923.185000", "101924.675000", "101926.165000", "101927.655000", "101929.145000", "101930.635000", "101932.125000", "101933.615000", "101935.105000", "101936.595000", "101938.085000", "101939.575000", "101941.065000", "101942.555000", "101944.045000", "101945.535000"],
      "ContentTime": ["100945.614000", "100945.617000", "100945.620000", "100945.625000", "100945.628000", "100945.631000", "100945.634000", "100945.636000", "100945.639000", "100945.642000", "100945.645000", "100945.648000", "100945.650000", "100945.653000", "100945.656000", "100945.659000", "100945.662000", "100945.664000", "100945.667000", "100945.670000", "100945.673000", "100945.676000", "100945.678000", "100945.683000", "100945.686000", "100945.689000", "100945.691000", "100945.694000", "101005.583000", "101005.590000", "101005.593000", "101005.596000", "101005.598000", "101005.601000", "101005.604000", "101005.607000", "101005.610000", "101005.612000", "101005.615000", "101005.618000", "101005.621000", "101005.624000", "101005.626000", "101005.629000", "101005.632000", "101005.635000", "101005.638000", "101005.641000", "101025.583000", "101025.586000", "101025.589000", "101025.591000", "101025.594000", "101025.597000", "101025.600000", "101025.603000", "101025.605000", "101025.608000", "101025.611000", "101025.614000", "101025.617000", "101025.620000", "101025.630000", "101025.633000", "101025.635000", "101025.638000", "101025.641000", "101025.644000", "101045.583000", "101045.586000", "101045.589000", "101045.591000", "101045.594000", "101045.597000", "101045.600000", "101045.603000", "101045.605000", "101045.617000", "101045.620000", "101045.623000", "101045.626000", "101045.628000", "101045.631000", "101045.634000", "101045.637000", "101045.640000", "101045.642000", "101045.645000", "101125.583000", "101125.586000", "101125.589000", "101125.592000", "101125.594000", "101125.597000", "101125.600000", "101125.603000", "101125.606000", "101125.608000", "101125.611000", "101125.614000", "101125.617000", "101125.620000", "101125.622000", "101125.625000", "101125.628000", "101125.631000", "101125.634000", "101125.636000", "101125.639000", "101125.642000", "101125.645000", "101125.648000", "101125.650000", "101125.653000", "101125.656000", "101125.659000", "101125.662000", "101125.664000", "101125.667000", "101125.670000", "101125.673000", "101205.583000", "101205.586000", "101205.589000", "101205.592000", "101205.594000", "101205.597000", "101205.600000", "101205.603000", "101205.606000", "101205.608000", "101205.611000", "101205.614000", "101205.629000", "101205.632000", "101205.635000", "101205.638000", "101205.640000", "101205.643000", "101205.646000", "101205.649000", "101205.652000", "101205.654000", "101205.657000", "101205.660000", "101205.663000", "101205.666000", "101205.668000", "101245.583000", "101245.586000", "101245.589000", "101245.591000", "101245.594000", "101245.597000", "101245.600000", "101245.603000", "101245.606000", "101245.608000", "101245.611000", "101245.614000", "101245.617000", "101245.620000", "101245.623000", "101245.626000", "101245.629000", "101245.632000", "101245.635000", "101245.637000", "101245.640000", "101245.643000", "101245.646000", "101245.649000", "101245.651000", "101245.654000", "101325.583000", "101325.586000", "101325.589000", "101325.592000", "101325.595000", "101325.597000", "101325.600000", "101325.603000", "101325.606000", "101325.609000", "101325.611000", "101325.614000", "101325.617000", "101325.620000", "101325.623000", "101325.625000", "101325.628000", "101325.631000", "101325.634000", "101325.637000", "101325.640000", "101325.642000", "101325.645000", "101325.648000", "101325.651000", "101325.654000", "101325.657000", "101405.584000", "101405.587000", "101405.590000", "101405.593000", "101405.595000", "101405.598000", "101405.601000", "101405.604000", "101405.607000", "101405.609000", "101405.612000", "101405.615000", "101405.618000", "101405.621000", "101405.624000", "101405.626000", "101405.629000", "101405.632000", "101405.635000", "101405.638000", "101405.641000", "101405.644000", "101405.647000", "101405.650000", "101405.653000", "101405.656000", "101405.659000", "101445.583000", "101445.586000", "101445.589000", "101445.591000", "101445.594000", "101445.597000", "101445.600000", "101445.603000", "101445.606000", "101445.608000", "101445.611000", "101445.614000", "101445.617000", "101445.620000", "101445.623000", "101445.625000", "101445.628000", "101445.631000", "101445.634000", "101445.637000", "101445.640000", "101445.643000", "101445.645000", "101445.648000", "101445.651000", "101445.654000", "101445.657000", "101525.583000", "101525.586000", "101525.589000", "101525.592000", "101525.595000", "101525.597000", "101525.600000", "101525.603000", "101525.606000", "101525.609000", "101525.611000", "101525.614000", "101525.617000", "101525.620000", "101525.623000", "101525.626000", "101525.628000", "101525.631000", "101525.634000", "101525.637000", "101525.640000", "101525.642000", "101525.645000", "101525.648000", "101525.651000", "101525.654000", "101525.657000", "101605.583000", "101605.586000", "101605.589000", "101605.592000", "101605.594000", "101605.597000", "101605.600000", "101605.603000", "101605.606000", "101605.609000", "101605.611000", "101605.614000", "101605.617000", "101605.620000", "101605.623000", "101605.626000", "101605.628000", "101605.631000", "101605.634000", "101605.637000", "101605.640000", "101605.643000", "101605.646000", "101605.648000", "101605.651000", "101605.654000", "101605.657000", "101645.583000", "101645.586000", "101645.589000", "101645.592000", "101645.594000", "101645.597000", "101645.600000", "101645.603000", "101645.606000", "101645.609000", "101645.611000", "101645.622000", "101645.634000", "101645.637000", "101645.640000", "101645.643000", "101645.646000", "101645.649000", "101645.652000", "101645.655000", "101645.658000", "101645.661000", "101645.663000", "101645.666000", "101645.669000", "101645.672000", "101725.583000", "101725.586000", "101725.589000", "101725.592000", "101725.594000", "101725.597000", "101725.600000", "101725.603000", "101725.606000", "101725.609000", "101725.612000", "101725.614000", "101725.617000", "101725.620000", "101725.623000", "101725.626000", "101725.629000", "101725.631000", "101725.634000", "101725.637000", "101725.640000", "101725.643000", "101725.646000", "101725.648000", "101725.651000", "101725.654000", "101725.657000", "101805.583000", "101805.586000", "101805.589000", "101805.592000", "101805.594000", "101805.597000", "101805.600000", "101805.603000", "101805.606000", "101805.609000", "101805.611000", "101805.614000", "101805.617000", "101805.620000", "101805.623000", "101805.626000", "101805.629000", "101805.631000", "101805.634000", "101805.637000", "101805.640000", "101805.643000", "101805.645000", "101805.648000", "101805.651000", "101805.654000", "101805.657000", "101845.583000", "101845.586000", "101845.589000", "101845.592000", "101845.594000", "101845.597000", "101845.600000", "101845.603000", "101845.606000", "101845.609000", "101845.611000", "101845.614000", "101845.617000", "101845.620000", "101845.623000", "101845.626000", "101845.628000", "101845.631000", "101845.634000", "101845.637000", "101845.640000", "101845.643000", "101845.645000", "101845.653000", "101845.656000", "101845.658000", "101845.661000", "101925.583000", "101925.586000", "101925.589000", "101925.592000", "101925.595000", "101925.598000", "101925.600000", "101925.603000", "101925.606000", "101925.609000", "101925.612000", "101925.615000", "101925.617000", "101925.620000", "101925.623000", "101925.626000", "101925.629000", "101925.632000", "101925.635000", "101925.638000", "101925.640000", "101925.643000", "101925.646000", "101925.649000", "101925.652000", "101925.654000", "101925.657000", "101947.472000", "101947.475000", "101947.478000", "101947.481000", "101947.484000", "101947.487000", "101947.490000", "101947.492000", "101947.495000", "101947.498000", "101947.501000", "101947.504000", "101947.507000", "101947.510000", "101947.513000"],
