{
  "AcquisitionMatrixPE": 104,
  "AcquisitionNumber": 1,
  "AcquisitionTime": "17:42:49.035000",
  "BandwidthPerPixelPhaseEncode": 17.17,
  "BaseResolution": 104,
  "BodyPartExamined": "BRAIN",
  "CoilString": "HC1-7;NC1_2",
  "ConsistencyInfo": "N4_VE11C_LATEST_20160120",
  "ConversionSoftware": "dcm2niix",
  "ConversionSoftwareVersion": "v1.0.20190720  (JP2:OpenJPEG) GCC7.3.0",
  "DerivedVendorReportedEchoSpacing": 0.000560011,
  "DeviceSerialNumber": "167006",
  "DwellTime": 2.1e-06,
  "EchoTime": 0.037,
  "EchoTrainLength": 104,
  "EffectiveEchoSpacing": 0.000560011,
  "FlipAngle": 52,
  "ImageComments": "Unaliased_MB4_PE3_LB",
  "ImageOrientationPatientDICOM": [0.998514, 0.0401089, 0.0368967, -0.0261469, 0.946585, -0.321394],
  "ImageType": [
    "ORIGINAL",
    "PRIMARY",
    "M",
    "MB",
    "ND",
    "MOSAIC"
],
  "ImagingFrequency": 123.259,
  "InPlanePhaseEncodingDirectionDICOM": "COL",
  "InstitutionAddress": "Chemin_Queen-Mary_4565_Montreal_District_CA_H3W_1W5",
  "InstitutionName": "IUGM",
  "InstitutionalDepartmentName": "Department",
  "MRAcquisitionType": "2D",
  "MagneticFieldStrength": 3,
  "Manufacturer": "Siemens",
  "ManufacturersModelName": "Prisma_fit",
  "Modality": "MR",
  "MultibandAccelerationFactor": 4,
  "PartialFourier": 1,
  "PatientPosition": "HFS",
  "PercentPhaseFOV": 100,
  "PhaseEncodingDirection": "j",
  "PhaseEncodingSteps": 104,
  "PhaseResolution": 1,
  "PixelBandwidth": 2290,
  "ProcedureStepDescription": "video_friends",
  "ProtocolName": "func_task-s01e12b",
  "PulseSequenceDetails": "%CustomerSeq%_cmrr_mbep2d_bold",
  "ReceiveCoilActiveElements": "HC1-7;NC1,2",
  "ReceiveCoilName": "HeadNeck_64",
  "ReconMatrixPE": 104,
  "RepetitionTime": 1.49,
  "SAR": 0.0361572,
  "ScanOptions": "FS",
  "ScanningSequence": "EP",
  "SequenceName": "epfid2d1_104",
  "SequenceVariant": "SK_SS",
  "SeriesDescription": "func_task-s01e12b",
  "SeriesNumber": 11,
  "ShimSetting": [642, -7212, -8809, 726, 116, -49, -3, -7],
  "SliceThickness": 2,
  "SliceTiming": [0, 0.785, 0.0975, 0.8825, 0.1975, 0.98, 0.295, 1.0775, 0.3925, 1.1775, 0.49, 1.275, 0.5875, 1.3725, 0.6875, 0, 0.785, 0.0975, 0.8825, 0.1975, 0.98, 0.295, 1.0775, 0.3925, 1.1775, 0.49, 1.275, 0.5875, 1.3725, 0.6875, 0, 0.785, 0.0975, 0.8825, 0.1975, 0.98, 0.295, 1.0775, 0.3925, 1.1775, 0.49, 1.275, 0.5875, 1.3725, 0.6875, 0, 0.785, 0.0975, 0.8825, 0.1975, 0.98, 0.295, 1.0775, 0.3925, 1.1775, 0.49, 1.275, 0.5875, 1.3725, 0.6875],
  "SoftwareVersions": "syngo_MR_E11",
  "SpacingBetweenSlices": 2,
  "StationName": "MRC35049",
  "TaskName": "friends",
  "TotalReadoutTime": 0.0576811,
  "TxRefAmp": 243.602,
  "WipMemBlock": "aa92683e-31c2-46ad-96ee-0c687afc2da5||Sequence: R016 ve11c/master r/e634e98; Dec 19 2017 11:00:25 by eja",
  "dcmmeta_affine": [
    [-1.9970277547836304, -0.052293889224529266, 0.09563324600458145, 104.20560455322266],
    [-0.08021780848503113, 1.8931690454483032, -0.6399030685424805, -67.11628723144531],
    [0.0737934410572052, 0.6427878141403198, 1.8924530744552612, -59.154090881347656],
    [0.0, 0.0, 0.0, 1.0]
],
  "dcmmeta_reorient_transform": [
    [0.0, -1.0, 0.0, 103.0],
    [1.0, 0.0, 0.0, 0.0],
    [0.0, 0.0, 1.0, 0.0],
    [0.0, 0.0, 0.0, 1.0]
],
  "dcmmeta_shape": [104, 104, 60, 471],
  "dcmmeta_slice_dim": 2,
  "dcmmeta_version": 0.6,
  "global": {
    "const": {
      "AcquisitionMatrix": [104, 0, 0, 104],
      "AngioFlag": "N",
      "BitsAllocated": 16,
      "BitsStored": 16,
      "BodyPartExamined": "BRAIN",
      "Columns": 832,
      "EchoNumbers": 1,
      "EchoTime": 37.0,
      "EchoTrainLength": 104,
      "FlipAngle": 52.0,
      "HighBit": 15,
      "ImageOrientationPatient": [0.99851384967026, 0.040108903376, 0.03689671918558, -0.0261469449582, 0.94658453791762, -0.3213939169378],
      "ImagePositionPatient": [-806.70243789051, -846.192952632, 214.16701772727],
      "ImageType": [
        "ORIGINAL",
        "PRIMARY",
        "M",
        "MB",
        "ND",
        "MOSAIC"
],
      "ImagedNucleus": "1H",
      "ImagingFrequency": 123.25911,
      "InPlanePhaseEncodingDirection": "COL",
      "MRAcquisitionType": "2D",
      "MagneticFieldStrength": 3.0,
      "Manufacturer": "SIEMENS",
      "ManufacturerModelName": "Prisma_fit",
      "Modality": "MR",
      "NumberOfAverages": 1.0,
      "NumberOfPhaseEncodingSteps": 104,
      "PercentPhaseFieldOfView": 100.0,
      "PercentSampling": 100.0,
      "PerformedProcedureStepStartTime": "170136.370000",
      "PhotometricInterpretation": "MONOCHROME2",
      "PixelBandwidth": 2290.0,
      "PixelRepresentation": 0,
      "PixelSpacing": [2.0, 2.0],
      "ProtocolName": "func_task-s01e12b",
      "RepetitionTime": 1490.0,
      "Rows": 832,
      "SAR": 0.03615721805644,
      "SamplesPerPixel": 1,
      "ScanOptions": "FS",
      "ScanningSequence": "EP",
      "SequenceName": "epfid2d1_104",
      "SequenceVariant": [
        "SK",
        "SS"
],
      "SeriesDescription": "func_task-s01e12b",
      "SeriesNumber": 11,
      "SeriesTime": "174416.429000",
      "SliceLocation": -29.516447097126,
      "SliceThickness": 2.0,
      "SmallestImagePixelValue": 0,
      "SoftwareVersions": "syngo MR E11",
      "SpacingBetweenSlices": 2.0000000489135,
      "SpecificCharacterSet": "ISO_IR 100",
      "StudyID": "1",
      "StudyTime": "170136.308000",
      "TransmitCoilName": "Body",
      "VariableFlipAngleFlag": "N",
      "WindowCenterWidthExplanation": "Algo1",
      "dBdt": 0.0},
    "slices": {}
  },
  "time": {
    "samples": {
      "AcquisitionNumber": [1, 2, 3, 4, 5, 6, 7, 8, 9, 10, 11, 12, 13, 14, 15, 16, 17, 18, 19, 20, 21, 22, 23, 24, 25, 26, 27, 28, 29, 30, 31, 32, 33, 34, 35, 36, 37, 38, 39, 40, 41, 42, 43, 44, 45, 46, 47, 48, 49, 50, 51, 52, 53, 54, 55, 56, 57, 58, 59, 60, 61, 62, 63, 64, 65, 66, 67, 68, 69, 70, 71, 72, 73, 74, 75, 76, 77, 78, 79, 80, 81, 82, 83, 84, 85, 86, 87, 88, 89, 90, 91, 92, 93, 94, 95, 96, 97, 98, 99, 100, 101, 102, 103, 104, 105, 106, 107, 108, 109, 110, 111, 112, 113, 114, 115, 116, 117, 118, 119, 120, 121, 122, 123, 124, 125, 126, 127, 128, 129, 130, 131, 132, 133, 134, 135, 136, 137, 138, 139, 140, 141, 142, 143, 144, 145, 146, 147, 148, 149, 150, 151, 152, 153, 154, 155, 156, 157, 158, 159, 160, 161, 162, 163, 164, 165, 166, 167, 168, 169, 170, 171, 172, 173, 174, 175, 176, 177, 178, 179, 180, 181, 182, 183, 184, 185, 186, 187, 188, 189, 190, 191, 192, 193, 194, 195, 196, 197, 198, 199, 200, 201, 202, 203, 204, 205, 206, 207, 208, 209, 210, 211, 212, 213, 214, 215, 216, 217, 218, 219, 220, 221, 222, 223, 224, 225, 226, 227, 228, 229, 230, 231, 232, 233, 234, 235, 236, 237, 238, 239, 240, 241, 242, 243, 244, 245, 246, 247, 248, 249, 250, 251, 252, 253, 254, 255, 256, 257, 258, 259, 260, 261, 262, 263, 264, 265, 266, 267, 268, 269, 270, 271, 272, 273, 274, 275, 276, 277, 278, 279, 280, 281, 282, 283, 284, 285, 286, 287, 288, 289, 290, 291, 292, 293, 294, 295, 296, 297, 298, 299, 300, 301, 302, 303, 304, 305, 306, 307, 308, 309, 310, 311, 312, 313, 314, 315, 316, 317, 318, 319, 320, 321, 322, 323, 324, 325, 326, 327, 328, 329, 330, 331, 332, 333, 334, 335, 336, 337, 338, 339, 340, 341, 342, 343, 344, 345, 346, 347, 348, 349, 350, 351, 352, 353, 354, 355, 356, 357, 358, 359, 360, 361, 362, 363, 364, 365, 366, 367, 368, 369, 370, 371, 372, 373, 374, 375, 376, 377, 378, 379, 380, 381, 382, 383, 384, 385, 386, 387, 388, 389, 390, 391, 392, 393, 394, 395, 396, 397, 398, 399, 400, 401, 402, 403, 404, 405, 406, 407, 408, 409, 410, 411, 412, 413, 414, 415, 416, 417, 418, 419, 420, 421, 422, 423, 424, 425, 426, 427, 428, 429, 430, 431, 432, 433, 434, 435, 436, 437, 438, 439, 440, 441, 442, 443, 444, 445, 446, 447, 448, 449, 450, 451, 452, 453, 454, 455, 456, 457, 458, 459, 460, 461, 462, 463, 464, 465, 466, 467, 468, 469, 470, 471],
      "AcquisitionTime": ["174249.035000", "174250.525000", "174252.015000", "174253.505000", "174254.995000", "174256.485000", "174257.975000", "174259.465000", "174300.955000", "174302.445000", "174303.935000", "174305.425000", "174306.915000", "174308.405000", "174309.895000", "174311.385000", "174312.875000", "174314.365000", "174315.855000", "174317.345000", "174318.835000", "174320.325000", "174321.815000", "174323.305000", "174324.795000", "174326.285000", "174327.775000", "174329.265000", "174330.755000", "174332.245000", "174333.735000", "174335.225000", "174336.715000", "174338.205000", "174339.695000", "174341.185000", "174342.675000", "174344.165000", "174345.655000", "174347.145000", "174348.635000", "174350.125000", "174351.615000", "174353.105000", "174354.595000", "174356.085000", "174357.575000", "174359.065000", "174400.555000", "174402.045000", "174403.535000", "174405.025000", "174406.515000", "174408.005000", "174409.495000", "174410.985000", "174412.475000", "174413.965000", "174415.455000", "174416.945000", "174418.435000", "174419.925000", "174421.415000", "174422.905000", "174424.395000", "174425.885000", "174427.375000", "174428.865000", "174430.355000", "174431.845000", "174433.335000", "174434.825000", "174436.315000", "174437.805000", "174439.295000", "174440.785000", "174442.275000", "174443.765000", "174445.255000", "174446.745000", "174448.235000", "174449.725000", "174451.215000", "174452.705000", "174454.195000", "174455.685000", "174457.175000", "174458.665000", "174500.155000", "174501.645000", "174503.135000", "174504.625000", "174506.115000", "174507.605000", "174509.095000", "174510.585000", "174512.075000", "174513.565000", "174515.055000", "174516.545000", "174518.035000", "174519.525000", "174521.015000", "174522.505000", "174523.995000", "174525.485000", "174526.975000", "174528.465000", "174529.955000", "174531.445000", "174532.935000", "174534.425000", "174535.915000", "174537.405000", "174538.895000", "174540.385000", "174541.875000", "174543.365000", "174544.855000", "174546.345000", "174547.835000", "174549.325000", "174550.815000", "174552.305000", "174553.795000", "174555.285000", "174556.775000", "174558.265000", "174559.755000", "174601.245000", "174602.735000", "174604.225000", "174605.715000", "174607.205000", "174608.695000", "174610.185000", "174611.675000", "174613.165000", "174614.655000", "174616.145000", "174617.635000", "174619.125000", "174620.615000", "174622.105000", "174623.595000", "174625.085000", "174626.575000", "174628.065000", "174629.555000", "174631.045000", "174632.535000", "174634.025000", "174635.515000", "174637.005000", "174638.495000", "174639.985000", "174641.475000", "174642.965000", "174644.455000", "174645.945000", "174647.435000", "174648.925000", "174650.415000", "174651.905000", "174653.395000", "174654.885000", "174656.375000", "174657.865000", "174659.355000", "174700.845000", "174702.335000", "174703.825000", "174705.315000", "174706.805000", "174708.295000", "174709.785000", "174711.275000", "174712.765000", "174714.255000", "174715.745000", "174717.235000", "174718.725000", "174720.215000", "174721.705000", "174723.195000", "174724.685000", "174726.175000", "174727.665000", "174729.155000", "174730.645000", "174732.135000", "174733.625000", "174735.115000", "174736.605000", "174738.095000", "174739.585000", "174741.075000", "174742.565000", "174744.055000", "174745.545000", "174747.035000", "174748.525000", "174750.015000", "174751.505000", "174752.995000", "174754.485000", "174755.975000", "174757.465000", "174758.955000", "174800.445000", "174801.935000", "174803.425000", "174804.915000", "174806.405000", "174807.895000", "174809.385000", "174810.875000", "174812.365000", "174813.855000", "174815.345000", "174816.835000", "174818.325000", "174819.815000", "174821.305000", "174822.795000", "174824.285000", "174825.775000", "174827.265000", "174828.755000", "174830.245000", "174831.735000", "174833.225000", "174834.715000", "174836.205000", "174837.695000", "174839.185000", "174840.675000", "174842.165000", "174843.655000", "174845.145000", "174846.635000", "174848.125000", "174849.615000", "174851.105000", "174852.595000", "174854.085000", "174855.575000", "174857.065000", "174858.555000", "174900.045000", "174901.535000", "174903.025000", "174904.515000", "174906.005000", "174907.495000", "174908.985000", "174910.475000", "174911.965000", "174913.455000", "174914.945000", "174916.435000", "174917.925000", "174919.415000", "174920.905000", "174922.395000", "174923.885000", "174925.375000", "174926.865000", "174928.355000", "174929.845000", "174931.335000", "174932.825000", "174934.315000", "174935.805000", "174937.295000", "174938.785000", "174940.275000", "174941.765000", "174943.255000", "174944.745000", "174946.235000", "174947.725000", "174949.215000", "174950.705000", "174952.195000", "174953.685000", "174955.175000", "174956.665000", "174958.155000", "174959.645000", "175001.135000", "175002.625000", "175004.115000", "175005.605000", "175007.095000", "175008.585000", "175010.075000", "175011.565000", "175013.055000", "175014.545000", "175016.035000", "175017.525000", "175019.015000", "175020.505000", "175021.995000", "175023.485000", "175024.975000", "175026.465000", "175027.955000", "175029.445000", "175030.935000", "175032.425000", "175033.915000", "175035.405000", "175036.895000", "175038.385000", "175039.875000", "175041.365000", "175042.855000", "175044.345000", "175045.835000", "175047.325000", "175048.815000", "175050.305000", "175051.795000", "175053.285000", "175054.775000", "175056.265000", "175057.755000", "175059.245000", "175100.735000", "175102.225000", "175103.715000", "175105.205000", "175106.695000", "175108.185000", "175109.675000", "175111.165000", "175112.655000", "175114.145000", "175115.635000", "175117.125000", "175118.615000", "175120.105000", "175121.595000", "175123.085000", "175124.575000", "175126.065000", "175127.555000", "175129.045000", "175130.535000", "175132.025000", "175133.515000", "175135.005000", "175136.495000", "175137.985000", "175139.475000", "175140.965000", "175142.455000", "175143.945000", "175145.435000", "175146.925000", "175148.415000", "175149.905000", "175151.395000", "175152.885000", "175154.375000", "175155.865000", "175157.355000", "175158.845000", "175200.335000", "175201.825000", "175203.315000", "175204.805000", "175206.295000", "175207.785000", "175209.275000", "175210.765000", "175212.255000", "175213.745000", "175215.235000", "175216.725000", "175218.215000", "175219.705000", "175221.195000", "175222.685000", "175224.175000", "175225.665000", "175227.155000", "175228.645000", "175230.135000", "175231.625000", "175233.115000", "175234.605000", "175236.095000", "175237.585000", "175239.075000", "175240.565000", "175242.055000", "175243.545000", "175245.035000", "175246.525000", "175248.015000", "175249.505000", "175250.995000", "175252.485000", "175253.975000", "175255.465000", "175256.955000", "175258.445000", "175259.935000", "175301.425000", "175302.915000", "175304.405000", "175305.895000", "175307.385000", "175308.875000", "175310.365000", "175311.855000", "175313.345000", "175314.835000", "175316.325000", "175317.815000", "175319.305000", "175320.795000", "175322.285000", "175323.775000", "175325.265000", "175326.755000", "175328.245000", "175329.735000", "175331.225000", "175332.715000", "175334.205000", "175335.695000", "175337.185000", "175338.675000", "175340.165000", "175341.655000", "175343.145000", "175344.635000", "175346.125000", "175347.615000", "175349.105000", "175350.595000", "175352.085000", "175353.575000", "175355.065000", "175356.555000", "175358.045000", "175359.535000", "175401.025000", "175402.515000", "175404.005000", "175405.495000", "175406.985000", "175408.475000", "175409.965000", "175411.455000", "175412.945000", "175414.435000", "175415.925000", "175417.415000", "175418.905000", "175420.395000", "175421.885000", "175423.375000", "175424.865000", "175426.355000", "175427.845000", "175429.335000"],
      "ContentTime": ["174416.432000", "174416.435000", "174416.438000", "174416.441000", "174416.455000", "174416.458000", "174416.461000", "174416.464000", "174416.467000", "174416.470000", "174416.473000", "174416.476000", "174416.479000", "174416.482000", "174416.484000", "174416.487000", "174416.490000", "174416.493000", "174416.496000", "174416.499000", "174416.502000", "174416.505000", "174416.508000", "174416.511000", "174416.514000", "174416.517000", "174416.520000", "174416.522000", "174416.525000", "174416.528000", "174416.531000", "174416.534000", "174416.537000", "174416.545000", "174436.400000", "174436.403000", "174436.406000", "174436.409000", "174436.412000", "174436.415000", "174436.418000", "174436.421000", "174436.424000", "174436.427000", "174436.429000", "174436.432000", "174436.435000", "174436.438000", "174436.443000", "174436.446000", "174436.449000", "174436.452000", "174436.455000", "174436.458000", "174436.461000", "174456.400000", "174456.403000", "174456.406000", "174456.409000", "174456.412000", "174456.415000", "174456.417000", "174456.420000", "174456.423000", "174456.426000", "174456.429000", "174456.432000", "174456.435000", "174456.438000", "174456.441000", "174456.444000", "174456.447000", "174456.450000", "174456.453000", "174456.456000", "174516.400000", "174516.403000", "174516.406000", "174516.410000", "174516.413000", "174516.416000", "174516.419000", "174516.422000", "174516.425000", "174516.428000", "174516.431000", "174516.434000", "174516.437000", "174516.440000", "174516.442000", "174516.445000", "174516.448000", "174516.451000", "174516.454000", "174516.457000", "174556.401000", "174556.404000", "174556.407000", "174556.410000", "174556.413000", "174556.416000", "174556.419000", "174556.422000", "174556.425000", "174556.427000", "174556.430000", "174556.433000", "174556.436000", "174556.439000", "174556.442000", "174556.445000", "174556.448000", "174556.451000", "174556.454000", "174556.457000", "174556.460000", "174556.463000", "174556.466000", "174556.469000", "174556.472000", "174556.474000", "174556.477000", "174556.480000", "174556.483000", "174556.486000", "174636.400000", "174636.403000", "174636.406000", "174636.409000", "174636.412000", "174636.415000", "174636.418000", "174636.421000", "174636.424000", "174636.427000", "174636.429000", "174636.432000", "174636.435000", "174636.438000", "174636.441000", "174636.444000", "174636.447000", "174636.450000", "174636.453000", "174636.456000", "174636.459000", "174636.462000", "174636.465000", "174636.468000", "174636.471000", "174636.474000", "174636.476000", "174716.400000", "174716.403000", "174716.406000", "174716.409000", "174716.412000", "174716.415000", "174716.418000", "174716.421000", "174716.441000", "174716.443000", "174716.446000", "174716.449000", "174716.452000", "174716.455000", "174716.458000", "174716.461000", "174716.464000", "174716.467000", "174716.470000", "174716.473000", "174716.476000", "174716.479000", "174716.482000", "174716.492000", "174716.495000", "174716.498000", "174716.501000", "174756.401000", "174756.408000", "174756.411000", "174756.414000", "174756.417000", "174756.420000", "174756.423000", "174756.426000", "174756.429000", "174756.432000", "174756.435000", "174756.437000", "174756.440000", "174756.443000", "174756.446000", "174756.449000", "174756.452000", "174756.455000", "174756.458000", "174756.461000", "174756.464000", "174756.467000", "174756.470000", "174756.473000", "174756.475000", "174756.479000", "174756.481000", "174836.401000", "174836.404000", "174836.407000", "174836.410000", "174836.413000", "174836.416000", "174836.419000", "174836.422000", "174836.425000", "174836.428000", "174836.431000", "174836.434000", "174836.437000", "174836.440000", "174836.444000", "174836.447000", "174836.450000", "174836.452000", "174836.456000", "174836.458000", "174836.461000", "174836.464000", "174836.467000", "174836.470000", "174836.473000", "174836.476000", "174856.400000", "174856.403000", "174856.406000", "174856.409000", "174856.412000", "174856.415000", "174856.418000", "174856.421000", "174856.424000", "174856.427000", "174856.430000", "174856.433000", "174856.436000", "174856.439000", "174936.400000", "174936.403000", "174936.406000", "174936.409000", "174936.412000", "174936.415000", "174936.418000", "174936.421000", "174936.424000", "174936.427000", "174936.430000", "174936.432000", "174936.435000", "174936.438000", "174936.441000", "174936.444000", "174936.447000", "174936.450000", "174936.453000", "174936.456000", "174936.459000", "174936.462000", "174936.465000", "174936.468000", "174936.471000", "174936.474000", "174936.476000", "175016.401000", "175016.404000", "175016.407000", "175016.410000", "175016.413000", "175016.416000", "175016.419000", "175016.422000", "175016.425000", "175016.428000", "175016.431000", "175016.434000", "175016.437000", "175016.440000", "175016.442000", "175016.446000", "175016.448000", "175016.451000", "175016.454000", "175016.457000", "175016.460000", "175016.463000", "175016.466000", "175016.469000", "175016.472000", "175016.475000", "175056.401000", "175056.404000", "175056.407000", "175056.410000", "175056.413000", "175056.416000", "175056.419000", "175056.422000", "175056.425000", "175056.428000", "175056.431000", "175056.434000", "175056.437000", "175056.440000", "175056.442000", "175056.445000", "175056.448000", "175056.451000", "175056.454000", "175056.457000", "175056.460000", "175056.463000", "175056.466000", "175056.469000", "175056.472000", "175056.475000", "175056.478000", "175136.400000", "175136.403000", "175136.406000", "175136.409000", "175136.412000", "175136.415000", "175136.418000", "175136.421000", "175136.424000", "175136.427000", "175136.430000", "175136.433000", "175136.436000", "175136.439000", "175136.442000", "175136.445000", "175136.448000", "175136.450000", "175136.453000", "175136.456000", "175136.459000", "175136.462000", "175136.477000", "175136.480000", "175136.483000", "175136.486000", "175136.488000", "175216.400000", "175216.403000", "175216.406000", "175216.409000", "175216.412000", "175216.415000", "175216.418000", "175216.421000", "175216.424000", "175216.427000", "175216.430000", "175216.433000", "175216.436000", "175216.439000", "175216.442000", "175216.444000", "175216.447000", "175216.450000", "175216.453000", "175216.456000", "175216.459000", "175216.462000", "175216.465000", "175216.468000", "175216.471000", "175216.474000", "175216.477000", "175256.401000", "175256.404000", "175256.407000", "175256.410000", "175256.413000", "175256.416000", "175256.419000", "175256.422000", "175256.425000", "175256.428000", "175256.431000", "175256.433000", "175256.437000", "175256.439000", "175256.442000", "175256.445000", "175256.448000", "175256.451000", "175256.454000", "175256.457000", "175256.460000", "175256.463000", "175256.466000", "175256.469000", "175256.472000", "175256.475000", "175256.478000", "175336.400000", "175336.403000", "175336.406000", "175336.409000", "175336.412000", "175336.415000", "175336.418000", "175336.421000", "175336.424000", "175336.427000", "175336.430000", "175336.433000", "175336.436000", "175336.439000", "175336.442000", "175336.445000", "175336.448000", "175336.451000", "175336.453000", "175336.456000", "175336.459000", "175336.462000", "175336.465000", "175336.468000", "175336.471000", "175336.474000", "175336.477000", "175416.400000", "175416.403000", "175416.406000", "175416.409000", "175416.412000", "175416.415000", "175416.418000", "175416.421000", "175416.424000", "175416.427000", "175416.430000", "175416.433000", "175416.436000", "175416.439000", "175416.442000", "175416.445000", "175416.448000", "175416.451000", "175416.454000", "175416.457000", "175416.460000", "175416.462000", "175416.465000", "175416.468000", "175416.471000", "175416.474000", "175416.477000", "175431.237000", "175431.240000", "175431.243000", "175431.247000", "175431.249000", "175431.252000", "175431.256000", "175431.259000", "175431.262000", "175431.266000"],
