{
  "AcquisitionMatrixPE": 104,
  "AcquisitionNumber": 1,
  "AcquisitionTime": "17:30:11.052500",
  "BandwidthPerPixelPhaseEncode": 17.17,
  "BaseResolution": 104,
  "BodyPartExamined": "BRAIN",
  "CoilString": "HC1-7;NC1_2",
  "ConsistencyInfo": "N4_VE11C_LATEST_20160120",
  "ConversionSoftware": "dcm2niix",
  "ConversionSoftwareVersion": "v1.0.20190720  (JP2:OpenJPEG) GCC7.3.0",
  "DerivedVendorReportedEchoSpacing": 0.000560011,
  "DeviceSerialNumber": "167006",
  "DwellTime": 2.1e-06,
  "EchoTime": 0.037,
  "EchoTrainLength": 104,
  "EffectiveEchoSpacing": 0.000560011,
  "FlipAngle": 52,
  "ImageComments": "Unaliased_MB4_PE3_LB",
  "ImageOrientationPatientDICOM": [0.998514, 0.0401089, 0.0368967, -0.0261469, 0.946585, -0.321394],
  "ImageType": [
    "ORIGINAL",
    "PRIMARY",
    "M",
    "MB",
    "ND",
    "MOSAIC"
],
  "ImagingFrequency": 123.259,
  "InPlanePhaseEncodingDirectionDICOM": "COL",
  "InstitutionAddress": "Chemin_Queen-Mary_4565_Montreal_District_CA_H3W_1W5",
  "InstitutionName": "IUGM",
  "InstitutionalDepartmentName": "Department",
  "MRAcquisitionType": "2D",
  "MagneticFieldStrength": 3,
  "Manufacturer": "Siemens",
  "ManufacturersModelName": "Prisma_fit",
  "Modality": "MR",
  "MultibandAccelerationFactor": 4,
  "PartialFourier": 1,
  "PatientPosition": "HFS",
  "PercentPhaseFOV": 100,
  "PhaseEncodingDirection": "j",
  "PhaseEncodingSteps": 104,
  "PhaseResolution": 1,
  "PixelBandwidth": 2290,
  "ProcedureStepDescription": "video_friends",
  "ProtocolName": "func_task-s01e12a",
  "PulseSequenceDetails": "%CustomerSeq%_cmrr_mbep2d_bold",
  "ReceiveCoilActiveElements": "HC1-7;NC1,2",
  "ReceiveCoilName": "HeadNeck_64",
  "ReconMatrixPE": 104,
  "RepetitionTime": 1.49,
  "SAR": 0.0361575,
  "ScanOptions": "FS",
  "ScanningSequence": "EP",
  "SequenceName": "epfid2d1_104",
  "SequenceVariant": "SK_SS",
  "SeriesDescription": "func_task-s01e12a",
  "SeriesNumber": 9,
  "ShimSetting": [642, -7212, -8809, 726, 116, -49, -3, -7],
  "SliceThickness": 2,
  "SliceTiming": [0, 0.785, 0.0975, 0.8825, 0.1975, 0.98, 0.295, 1.0775, 0.3925, 1.1775, 0.49, 1.275, 0.5875, 1.3725, 0.6875, 0, 0.785, 0.0975, 0.8825, 0.1975, 0.98, 0.295, 1.0775, 0.3925, 1.1775, 0.49, 1.275, 0.5875, 1.3725, 0.6875, 0, 0.785, 0.0975, 0.8825, 0.1975, 0.98, 0.295, 1.0775, 0.3925, 1.1775, 0.49, 1.275, 0.5875, 1.3725, 0.6875, 0, 0.785, 0.0975, 0.8825, 0.1975, 0.98, 0.295, 1.0775, 0.3925, 1.1775, 0.49, 1.275, 0.5875, 1.3725, 0.6875],
  "SoftwareVersions": "syngo_MR_E11",
  "SpacingBetweenSlices": 2,
  "StationName": "MRC35049",
  "TaskName": "friends",
  "TotalReadoutTime": 0.0576811,
  "TxRefAmp": 243.602,
  "WipMemBlock": "52094af2-bb0e-484b-87ea-66029f13cff4||Sequence: R016 ve11c/master r/e634e98; Dec 19 2017 11:00:25 by eja",
  "dcmmeta_affine": [
    [-1.9970277547836304, -0.052293889224529266, 0.09563324600458145, 104.20560455322266],
    [-0.08021780848503113, 1.8931690454483032, -0.6399030685424805, -67.11628723144531],
    [0.0737934410572052, 0.6427878141403198, 1.8924530744552612, -59.154090881347656],
    [0.0, 0.0, 0.0, 1.0]
],
  "dcmmeta_reorient_transform": [
    [0.0, -1.0, 0.0, 103.0],
    [1.0, 0.0, 0.0, 0.0],
    [0.0, 0.0, 1.0, 0.0],
    [0.0, 0.0, 0.0, 1.0]
],
  "dcmmeta_shape": [104, 104, 60, 472],
  "dcmmeta_slice_dim": 2,
  "dcmmeta_version": 0.6,
  "global": {
    "const": {
      "AcquisitionMatrix": [104, 0, 0, 104],
      "AngioFlag": "N",
      "BitsAllocated": 16,
      "BitsStored": 16,
      "BodyPartExamined": "BRAIN",
      "Columns": 832,
      "EchoNumbers": 1,
      "EchoTime": 37.0,
      "EchoTrainLength": 104,
      "FlipAngle": 52.0,
      "HighBit": 15,
      "ImageOrientationPatient": [0.99851384967026, 0.040108903376, 0.03689671918558, -0.0261469449582, 0.94658453791762, -0.3213939169378],
      "ImagePositionPatient": [-806.70243789051, -846.192952632, 214.16701772727],
      "ImageType": [
        "ORIGINAL",
        "PRIMARY",
        "M",
        "MB",
        "ND",
        "MOSAIC"
],
      "ImagedNucleus": "1H",
      "ImagingFrequency": 123.259099,
      "InPlanePhaseEncodingDirection": "COL",
      "MRAcquisitionType": "2D",
      "MagneticFieldStrength": 3.0,
      "Manufacturer": "SIEMENS",
      "ManufacturerModelName": "Prisma_fit",
      "Modality": "MR",
      "NumberOfAverages": 1.0,
      "NumberOfPhaseEncodingSteps": 104,
      "PercentPhaseFieldOfView": 100.0,
      "PercentSampling": 100.0,
      "PerformedProcedureStepStartTime": "170136.370000",
      "PhotometricInterpretation": "MONOCHROME2",
      "PixelBandwidth": 2290.0,
      "PixelRepresentation": 0,
      "PixelSpacing": [2.0, 2.0],
      "ProtocolName": "func_task-s01e12a",
      "RepetitionTime": 1490.0,
      "Rows": 832,
      "SAR": 0.03615753743871,
      "SamplesPerPixel": 1,
      "ScanOptions": "FS",
      "ScanningSequence": "EP",
      "SequenceName": "epfid2d1_104",
      "SequenceVariant": [
        "SK",
        "SS"
],
      "SeriesDescription": "func_task-s01e12a",
      "SeriesNumber": 9,
      "SeriesTime": "173141.846000",
      "SliceLocation": -29.516447097126,
      "SliceThickness": 2.0,
      "SmallestImagePixelValue": 0,
      "SoftwareVersions": "syngo MR E11",
      "SpacingBetweenSlices": 2.0000000489135,
      "SpecificCharacterSet": "ISO_IR 100",
      "StudyID": "1",
      "StudyTime": "170136.308000",
      "TransmitCoilName": "Body",
      "VariableFlipAngleFlag": "N",
      "WindowCenterWidthExplanation": "Algo1",
      "dBdt": 0.0},
    "slices": {}
  },
  "time": {
    "samples": {
      "AcquisitionNumber": [1, 2, 3, 4, 5, 6, 7, 8, 9, 10, 11, 12, 13, 14, 15, 16, 17, 18, 19, 20, 21, 22, 23, 24, 25, 26, 27, 28, 29, 30, 31, 32, 33, 34, 35, 36, 37, 38, 39, 40, 41, 42, 43, 44, 45, 46, 47, 48, 49, 50, 51, 52, 53, 54, 55, 56, 57, 58, 59, 60, 61, 62, 63, 64, 65, 66, 67, 68, 69, 70, 71, 72, 73, 74, 75, 76, 77, 78, 79, 80, 81, 82, 83, 84, 85, 86, 87, 88, 89, 90, 91, 92, 93, 94, 95, 96, 97, 98, 99, 100, 101, 102, 103, 104, 105, 106, 107, 108, 109, 110, 111, 112, 113, 114, 115, 116, 117, 118, 119, 120, 121, 122, 123, 124, 125, 126, 127, 128, 129, 130, 131, 132, 133, 134, 135, 136, 137, 138, 139, 140, 141, 142, 143, 144, 145, 146, 147, 148, 149, 150, 151, 152, 153, 154, 155, 156, 157, 158, 159, 160, 161, 162, 163, 164, 165, 166, 167, 168, 169, 170, 171, 172, 173, 174, 175, 176, 177, 178, 179, 180, 181, 182, 183, 184, 185, 186, 187, 188, 189, 190, 191, 192, 193, 194, 195, 196, 197, 198, 199, 200, 201, 202, 203, 204, 205, 206, 207, 208, 209, 210, 211, 212, 213, 214, 215, 216, 217, 218, 219, 220, 221, 222, 223, 224, 225, 226, 227, 228, 229, 230, 231, 232, 233, 234, 235, 236, 237, 238, 239, 240, 241, 242, 243, 244, 245, 246, 247, 248, 249, 250, 251, 252, 253, 254, 255, 256, 257, 258, 259, 260, 261, 262, 263, 264, 265, 266, 267, 268, 269, 270, 271, 272, 273, 274, 275, 276, 277, 278, 279, 280, 281, 282, 283, 284, 285, 286, 287, 288, 289, 290, 291, 292, 293, 294, 295, 296, 297, 298, 299, 300, 301, 302, 303, 304, 305, 306, 307, 308, 309, 310, 311, 312, 313, 314, 315, 316, 317, 318, 319, 320, 321, 322, 323, 324, 325, 326, 327, 328, 329, 330, 331, 332, 333, 334, 335, 336, 337, 338, 339, 340, 341, 342, 343, 344, 345, 346, 347, 348, 349, 350, 351, 352, 353, 354, 355, 356, 357, 358, 359, 360, 361, 362, 363, 364, 365, 366, 367, 368, 369, 370, 371, 372, 373, 374, 375, 376, 377, 378, 379, 380, 381, 382, 383, 384, 385, 386, 387, 388, 389, 390, 391, 392, 393, 394, 395, 396, 397, 398, 399, 400, 401, 402, 403, 404, 405, 406, 407, 408, 409, 410, 411, 412, 413, 414, 415, 416, 417, 418, 419, 420, 421, 422, 423, 424, 425, 426, 427, 428, 429, 430, 431, 432, 433, 434, 435, 436, 437, 438, 439, 440, 441, 442, 443, 444, 445, 446, 447, 448, 449, 450, 451, 452, 453, 454, 455, 456, 457, 458, 459, 460, 461, 462, 463, 464, 465, 466, 467, 468, 469, 470, 471, 472],
      "AcquisitionTime": ["173011.052500", "173012.542500", "173014.032500", "173015.522500", "173017.012500", "173018.502500", "173019.992500", "173021.482500", "173022.972500", "173024.462500", "173025.952500", "173027.442500", "173028.932500", "173030.422500", "173031.912500", "173033.402500", "173034.892500", "173036.382500", "173037.872500", "173039.362500", "173040.852500", "173042.342500", "173043.832500", "173045.322500", "173046.812500", "173048.302500", "173049.792500", "173051.282500", "173052.772500", "173054.262500", "173055.752500", "173057.242500", "173058.732500", "173100.222500", "173101.712500", "173103.202500", "173104.692500", "173106.182500", "173107.672500", "173109.162500", "173110.652500", "173112.142500", "173113.632500", "173115.122500", "173116.612500", "173118.102500", "173119.592500", "173121.082500", "173122.572500", "173124.062500", "173125.552500", "173127.042500", "173128.532500", "173130.022500", "173131.512500", "173133.002500", "173134.492500", "173135.982500", "173137.472500", "173138.962500", "173140.452500", "173141.942500", "173143.432500", "173144.922500", "173146.412500", "173147.902500", "173149.392500", "173150.882500", "173152.372500", "173153.862500", "173155.352500", "173156.842500", "173158.332500", "173159.822500", "173201.312500", "173202.802500", "173204.292500", "173205.782500", "173207.272500", "173208.762500", "173210.252500", "173211.742500", "173213.232500", "173214.722500", "173216.212500", "173217.702500", "173219.192500", "173220.682500", "173222.172500", "173223.662500", "173225.152500", "173226.642500", "173228.132500", "173229.622500", "173231.112500", "173232.602500", "173234.092500", "173235.582500", "173237.072500", "173238.562500", "173240.052500", "173241.542500", "173243.032500", "173244.522500", "173246.012500", "173247.502500", "173248.992500", "173250.482500", "173251.972500", "173253.462500", "173254.952500", "173256.442500", "173257.932500", "173259.422500", "173300.912500", "173302.402500", "173303.892500", "173305.382500", "173306.872500", "173308.362500", "173309.852500", "173311.342500", "173312.832500", "173314.322500", "173315.812500", "173317.302500", "173318.792500", "173320.282500", "173321.772500", "173323.262500", "173324.752500", "173326.242500", "173327.732500", "173329.222500", "173330.712500", "173332.202500", "173333.692500", "173335.182500", "173336.672500", "173338.162500", "173339.652500", "173341.142500", "173342.632500", "173344.122500", "173345.612500", "173347.102500", "173348.592500", "173350.082500", "173351.572500", "173353.062500", "173354.552500", "173356.042500", "173357.532500", "173359.022500", "173400.512500", "173402.002500", "173403.492500", "173404.982500", "173406.472500", "173407.962500", "173409.452500", "173410.942500", "173412.432500", "173413.922500", "173415.412500", "173416.902500", "173418.392500", "173419.882500", "173421.372500", "173422.862500", "173424.352500", "173425.842500", "173427.332500", "173428.822500", "173430.312500", "173431.802500", "173433.292500", "173434.782500", "173436.272500", "173437.762500", "173439.252500", "173440.742500", "173442.232500", "173443.722500", "173445.212500", "173446.702500", "173448.192500", "173449.682500", "173451.172500", "173452.662500", "173454.152500", "173455.642500", "173457.132500", "173458.622500", "173500.112500", "173501.602500", "173503.092500", "173504.582500", "173506.072500", "173507.562500", "173509.052500", "173510.542500", "173512.032500", "173513.522500", "173515.012500", "173516.502500", "173517.992500", "173519.482500", "173520.972500", "173522.462500", "173523.952500", "173525.442500", "173526.932500", "173528.422500", "173529.912500", "173531.402500", "173532.892500", "173534.382500", "173535.872500", "173537.362500", "173538.852500", "173540.342500", "173541.832500", "173543.322500", "173544.812500", "173546.302500", "173547.792500", "173549.282500", "173550.772500", "173552.262500", "173553.752500", "173555.242500", "173556.732500", "173558.222500", "173559.712500", "173601.202500", "173602.692500", "173604.182500", "173605.672500", "173607.162500", "173608.652500", "173610.142500", "173611.632500", "173613.122500", "173614.612500", "173616.102500", "173617.592500", "173619.082500", "173620.572500", "173622.062500", "173623.552500", "173625.042500", "173626.532500", "173628.022500", "173629.512500", "173631.002500", "173632.492500", "173633.982500", "173635.472500", "173636.962500", "173638.452500", "173639.942500", "173641.432500", "173642.922500", "173644.412500", "173645.902500", "173647.392500", "173648.882500", "173650.372500", "173651.862500", "173653.352500", "173654.842500", "173656.332500", "173657.822500", "173659.312500", "173700.802500", "173702.292500", "173703.782500", "173705.272500", "173706.762500", "173708.252500", "173709.742500", "173711.232500", "173712.722500", "173714.212500", "173715.702500", "173717.192500", "173718.682500", "173720.172500", "173721.662500", "173723.152500", "173724.642500", "173726.132500", "173727.622500", "173729.112500", "173730.602500", "173732.092500", "173733.582500", "173735.072500", "173736.562500", "173738.052500", "173739.542500", "173741.032500", "173742.522500", "173744.012500", "173745.502500", "173746.992500", "173748.482500", "173749.972500", "173751.462500", "173752.952500", "173754.442500", "173755.932500", "173757.422500", "173758.912500", "173800.402500", "173801.892500", "173803.382500", "173804.872500", "173806.362500", "173807.852500", "173809.342500", "173810.832500", "173812.322500", "173813.812500", "173815.302500", "173816.792500", "173818.282500", "173819.772500", "173821.262500", "173822.752500", "173824.242500", "173825.732500", "173827.222500", "173828.712500", "173830.202500", "173831.692500", "173833.182500", "173834.672500", "173836.162500", "173837.652500", "173839.142500", "173840.632500", "173842.122500", "173843.612500", "173845.102500", "173846.592500", "173848.082500", "173849.572500", "173851.062500", "173852.552500", "173854.042500", "173855.532500", "173857.022500", "173858.512500", "173900.002500", "173901.492500", "173902.982500", "173904.472500", "173905.962500", "173907.452500", "173908.942500", "173910.432500", "173911.922500", "173913.412500", "173914.902500", "173916.392500", "173917.882500", "173919.372500", "173920.862500", "173922.352500", "173923.842500", "173925.332500", "173926.822500", "173928.312500", "173929.802500", "173931.292500", "173932.782500", "173934.272500", "173935.762500", "173937.252500", "173938.742500", "173940.232500", "173941.722500", "173943.212500", "173944.702500", "173946.192500", "173947.682500", "173949.172500", "173950.662500", "173952.152500", "173953.642500", "173955.132500", "173956.622500", "173958.112500", "173959.602500", "174001.092500", "174002.582500", "174004.072500", "174005.562500", "174007.052500", "174008.542500", "174010.032500", "174011.522500", "174013.012500", "174014.502500", "174015.992500", "174017.482500", "174018.972500", "174020.462500", "174021.952500", "174023.442500", "174024.932500", "174026.422500", "174027.912500", "174029.402500", "174030.892500", "174032.382500", "174033.872500", "174035.362500", "174036.852500", "174038.342500", "174039.832500", "174041.322500", "174042.812500", "174044.302500", "174045.792500", "174047.282500", "174048.772500", "174050.262500", "174051.752500", "174053.242500", "174054.732500", "174056.222500", "174057.712500", "174059.202500", "174100.692500", "174102.182500", "174103.672500", "174105.162500", "174106.652500", "174108.142500", "174109.632500", "174111.122500", "174112.612500", "174114.102500", "174115.592500", "174117.082500", "174118.572500", "174120.062500", "174121.552500", "174123.042500", "174124.532500", "174126.022500", "174127.512500", "174129.002500", "174130.492500", "174131.982500", "174133.472500", "174134.962500", "174136.452500", "174137.942500", "174139.432500", "174140.922500", "174142.412500", "174143.902500", "174145.392500", "174146.882500", "174148.372500", "174149.862500", "174151.352500", "174152.842500"],
      "ContentTime": ["173141.849000", "173141.859000", "173141.862000", "173141.865000", "173141.867000", "173141.870000", "173141.879000", "173141.882000", "173141.884000", "173141.887000", "173141.890000", "173141.893000", "173141.896000", "173141.899000", "173141.902000", "173141.905000", "173141.908000", "173141.911000", "173141.920000", "173141.923000", "173141.926000", "173141.929000", "173141.932000", "173141.935000", "173141.938000", "173141.941000", "173141.944000", "173141.947000", "173141.949000", "173141.952000", "173141.955000", "173141.958000", "173141.961000", "173141.964000", "173141.967000", "173221.807000", "173221.810000", "173221.813000", "173221.816000", "173221.819000", "173221.822000", "173221.825000", "173221.832000", "173221.834000", "173221.837000", "173221.840000", "173221.843000", "173221.846000", "173221.849000", "173221.852000", "173221.855000", "173221.858000", "173221.861000", "173221.864000", "173221.867000", "173221.870000", "173221.873000", "173221.875000", "173221.878000", "173221.881000", "173221.884000", "173221.887000", "173221.890000", "173221.893000", "173221.896000", "173221.899000", "173221.902000", "173221.905000", "173221.908000", "173221.911000", "173221.914000", "173221.916000", "173221.920000", "173221.922000", "173221.925000", "173241.806000", "173241.809000", "173241.812000", "173241.815000", "173241.830000", "173241.833000", "173241.836000", "173241.839000", "173241.842000", "173241.849000", "173241.852000", "173241.855000", "173241.858000", "173241.861000", "173241.864000", "173241.867000", "173241.870000", "173241.873000", "173241.876000", "173241.879000", "173321.807000", "173321.810000", "173321.813000", "173321.816000", "173321.819000", "173321.822000", "173321.825000", "173321.827000", "173321.830000", "173321.833000", "173321.836000", "173321.839000", "173321.842000", "173321.845000", "173321.848000", "173321.851000", "173321.854000", "173321.857000", "173321.860000", "173321.863000", "173321.865000", "173321.869000", "173321.871000", "173321.874000", "173321.877000", "173321.880000", "173321.883000", "173321.886000", "173321.889000", "173321.892000", "173321.895000", "173321.898000", "173401.807000", "173401.810000", "173401.813000", "173401.816000", "173401.819000", "173401.822000", "173401.825000", "173401.828000", "173401.831000", "173401.834000", "173401.837000", "173401.840000", "173401.843000", "173401.845000", "173401.848000", "173401.851000", "173401.854000", "173401.857000", "173401.860000", "173401.863000", "173401.866000", "173401.869000", "173401.872000", "173401.875000", "173401.878000", "173401.881000", "173401.884000", "173441.807000", "173441.810000", "173441.813000", "173441.816000", "173441.819000", "173441.822000", "173441.825000", "173441.828000", "173441.831000", "173441.833000", "173441.837000", "173441.839000", "173441.842000", "173441.845000", "173441.848000", "173441.851000", "173441.854000", "173441.857000", "173441.860000", "173441.863000", "173441.866000", "173441.869000", "173441.872000", "173441.875000", "173441.878000", "173441.881000", "173441.884000", "173521.806000", "173521.809000", "173521.812000", "173521.815000", "173521.818000", "173521.821000", "173521.824000", "173521.827000", "173521.830000", "173521.833000", "173521.836000", "173521.839000", "173521.842000", "173521.845000", "173521.848000", "173521.851000", "173521.854000", "173521.857000", "173521.859000", "173521.862000", "173521.865000", "173521.868000", "173521.871000", "173521.874000", "173521.877000", "173521.880000", "173521.883000", "173601.807000", "173601.810000", "173601.814000", "173601.817000", "173601.820000", "173601.823000", "173601.840000", "173601.843000", "173601.846000", "173601.849000", "173601.852000", "173601.855000", "173601.858000", "173601.861000", "173601.864000", "173601.867000", "173601.870000", "173601.873000", "173601.876000", "173601.879000", "173601.882000", "173601.885000", "173601.888000", "173601.891000", "173601.893000", "173601.896000", "173641.807000", "173641.810000", "173641.813000", "173641.816000", "173641.819000", "173641.822000", "173641.825000", "173641.828000", "173641.831000", "173641.834000", "173641.837000", "173641.840000", "173641.843000", "173641.846000", "173641.849000", "173641.852000", "173641.855000", "173641.857000", "173641.860000", "173641.863000", "173641.866000", "173641.869000", "173641.872000", "173641.875000", "173641.878000", "173641.881000", "173641.884000", "173721.806000", "173721.809000", "173721.812000", "173721.815000", "173721.818000", "173721.821000", "173721.840000", "173721.843000", "173721.846000", "173721.849000", "173721.852000", "173721.855000", "173721.858000", "173721.861000", "173721.864000", "173721.867000", "173721.870000", "173721.873000", "173721.876000", "173721.879000", "173721.882000", "173721.885000", "173721.888000", "173721.891000", "173721.894000", "173721.897000", "173721.899000", "173801.807000", "173801.810000", "173801.813000", "173801.816000", "173801.819000", "173801.822000", "173801.825000", "173801.828000", "173801.831000", "173801.834000", "173801.837000", "173801.840000", "173801.843000", "173801.846000", "173801.849000", "173801.852000", "173801.855000", "173801.858000", "173801.861000", "173801.864000", "173801.867000", "173801.870000", "173801.873000", "173801.876000", "173801.879000", "173801.882000", "173801.885000", "173841.807000", "173841.810000", "173841.813000", "173841.816000", "173841.819000", "173841.822000", "173841.825000", "173841.828000", "173841.831000", "173841.834000", "173841.837000", "173841.840000", "173841.843000", "173841.845000", "173841.848000", "173841.851000", "173841.854000", "173841.857000", "173841.860000", "173841.863000", "173841.866000", "173841.869000", "173841.872000", "173841.875000", "173841.878000", "173841.881000", "173841.884000", "173901.807000", "173901.810000", "173901.813000", "173901.816000", "173901.819000", "173901.822000", "173901.825000", "173901.828000", "173901.831000", "173901.834000", "173901.837000", "173901.840000", "173901.843000", "173941.806000", "173941.809000", "173941.812000", "173941.815000", "173941.818000", "173941.821000", "173941.824000", "173941.827000", "173941.830000", "173941.833000", "173941.835000", "173941.839000", "173941.841000", "173941.844000", "173941.847000", "173941.850000", "173941.853000", "173941.856000", "173941.859000", "173941.862000", "173941.865000", "173941.868000", "173941.871000", "173941.874000", "173941.877000", "173941.880000", "173941.883000", "174021.807000", "174021.810000", "174021.813000", "174021.816000", "174021.819000", "174021.822000", "174021.825000", "174021.828000", "174021.831000", "174021.834000", "174021.837000", "174021.840000", "174021.843000", "174021.846000", "174021.849000", "174021.852000", "174021.854000", "174021.857000", "174021.860000", "174021.863000", "174021.866000", "174021.869000", "174021.872000", "174021.875000", "174021.878000", "174021.881000", "174021.884000", "174101.807000", "174101.810000", "174101.813000", "174101.816000", "174101.819000", "174101.822000", "174101.825000", "174101.828000", "174101.831000", "174101.834000", "174101.837000", "174101.840000", "174101.843000", "174101.846000", "174101.849000", "174101.852000", "174101.855000", "174101.858000", "174101.861000", "174101.863000", "174101.866000", "174101.869000", "174101.872000", "174101.875000", "174101.878000", "174101.881000", "174101.884000", "174141.807000", "174141.810000", "174141.813000", "174141.816000", "174141.819000", "174141.822000", "174141.825000", "174141.828000", "174141.831000", "174141.834000", "174141.836000", "174141.839000", "174141.842000", "174141.845000", "174141.848000", "174141.851000", "174141.854000", "174141.857000", "174141.860000", "174141.863000", "174141.877000", "174141.880000", "174141.883000", "174141.886000", "174141.889000", "174141.892000", "174141.895000", "174155.109000", "174155.112000", "174155.115000", "174155.118000", "174155.121000", "174155.124000", "174155.127000", "174155.130000", "174155.133000"],
