{
  "AcquisitionMatrixPE": 104,
  "AcquisitionNumber": 1,
  "AcquisitionTime": "17:44:4.790000",
  "BandwidthPerPixelPhaseEncode": 17.17,
  "BaseResolution": 104,
  "BodyPartExamined": "BRAIN",
  "CoilCombinationMethod": "Sum of Squares",
  "ConsistencyInfo": "N4_VE11C_LATEST_20160120",
  "ConversionSoftware": "dcm2niix",
  "ConversionSoftwareVersion": "v1.0.20220505",
  "DerivedVendorReportedEchoSpacing": 0.000560011,
  "DeviceSerialNumber": "167006",
  "DwellTime": 2.1e-06,
  "EchoTime": 0.037,
  "EchoTrainLength": 104,
  "EffectiveEchoSpacing": 0.000560011,
  "FlipAngle": 52,
  "HeudiconvVersion": "0.5.3.post811+g6206e14",
  "ImageComments": "Unaliased MB4/PE3/LB",
  "ImageOrientationPatientDICOM": [0.999669, -0.0257417, -0.000379945, 0.0239076, 0.933716, -0.357215],
  "ImageOrientationText": "Tra>Cor(-20.9)>Sag(-0.5)",
  "ImageType": [
    "ORIGINAL",
    "PRIMARY",
    "M",
    "MB",
    "ND",
    "MOSAIC"
],
  "ImagingFrequency": 123.259,
  "InPlanePhaseEncodingDirectionDICOM": "COL",
  "InstitutionAddress": "Chemin Queen-Mary 4565,Montreal,District,CA,H3W 1W5",
  "InstitutionName": "IUGM",
  "InstitutionalDepartmentName": "Department",
  "MRAcquisitionType": "2D",
  "MagneticFieldStrength": 3,
  "Manufacturer": "Siemens",
  "ManufacturersModelName": "Prisma_fit",
  "MatrixCoilMode": "SENSE",
  "Modality": "MR",
  "MultibandAccelerationFactor": 4,
  "PartialFourier": 1,
  "PatientPosition": "HFS",
  "PercentPhaseFOV": 100,
  "PercentSampling": 100,
  "PhaseEncodingDirection": "j",
  "PhaseEncodingSteps": 104,
  "PhaseResolution": 1,
  "PixelBandwidth": 2290,
  "ProcedureStepDescription": "video^friends",
  "ProtocolName": "func_task-friends-s05e23b",
  "PulseSequenceDetails": "%CustomerSeq%\\cmrr_mbep2d_bold",
  "ReceiveCoilActiveElements": "HC1-7;NC1,2",
  "ReceiveCoilName": "HeadNeck_64",
  "ReconMatrixPE": 104,
  "RepetitionTime": 1.49,
  "SAR": 0.0792199,
  "ScanOptions": "FS",
  "ScanningSequence": "EP",
  "SequenceName": "epfid2d1_104",
  "SequenceVariant": "SK\\SS",
  "SeriesDescription": "func_task-friends-s05e23b",
  "SeriesNumber": 11,
  "ShimSetting": [615, -7271, -8834, 419, 21, -376, 4, 19],
  "SliceThickness": 2,
  "SliceTiming": [0, 0.7825, 0.0975, 0.8825, 0.195, 0.98, 0.2925, 1.0775, 0.3925, 1.175, 0.49, 1.2725, 0.5875, 1.3725, 0.685, 0, 0.7825, 0.0975, 0.8825, 0.195, 0.98, 0.2925, 1.0775, 0.3925, 1.175, 0.49, 1.2725, 0.5875, 1.3725, 0.685, 0, 0.7825, 0.0975, 0.8825, 0.195, 0.98, 0.2925, 1.0775, 0.3925, 1.175, 0.49, 1.2725, 0.5875, 1.3725, 0.685, 0, 0.7825, 0.0975, 0.8825, 0.195, 0.98, 0.2925, 1.0775, 0.3925, 1.175, 0.49, 1.2725, 0.5875, 1.3725, 0.685],
  "SoftwareVersions": "syngo MR E11",
  "SpacingBetweenSlices": 2,
  "StationName": "MRC35049",
  "TaskName": "s05e23b",
  "TotalReadoutTime": 0.0576811,
  "TxRefAmp": 295.077,
  "WipMemBlock": "f23f659b-03eb-44dd-9069-508c8cefe2a2||Sequence: R017 ve11c/master r/75a17815+; Jun 28 2022 16:32:11 by eja",
  "dcmmeta_affine": [
    [-1.999337077140808, 0.04781528562307358, -0.019100142642855644, 97.0572509765625],
    [0.0514833927154541, 1.8674325942993164, -0.7141743302345276, -74.15618896484375],
    [-0.0007598907104693353, 0.7144292593002319, 1.8680444955825806, -66.02874755859375],
    [0.0, 0.0, 0.0, 1.0]
],
  "dcmmeta_reorient_transform": [
    [0.0, -1.0, 0.0, 103.0],
    [1.0, 0.0, 0.0, 0.0],
    [0.0, 0.0, 1.0, 0.0],
    [0.0, 0.0, 0.0, 1.0]
],
  "dcmmeta_shape": [104, 104, 60, 458],
  "dcmmeta_slice_dim": 2,
  "dcmmeta_version": 0.6,
  "global": {
    "const": {
      "AcquisitionMatrix": [104, 0, 0, 104],
      "AngioFlag": "N",
      "BitsAllocated": 16,
      "BitsStored": 16,
      "BodyPartExamined": "BRAIN",
      "Columns": 832,
      "EchoNumbers": 1,
      "EchoTime": 37.0,
      "EchoTrainLength": 104,
      "FlipAngle": 52.0,
      "HighBit": 15,
      "ImageOrientationPatient": [0.99966855544441, -0.0257416956943, -0.000379945355, 0.02390764289851, 0.9337163008401, -0.357214633178],
      "ImagePositionPatient": [-847.14569668485, -779.19488124691, 267.88631743703],
      "ImageType": [
        "ORIGINAL",
        "PRIMARY",
        "M",
        "MB",
        "ND",
        "MOSAIC"
],
      "ImagedNucleus": "1H",
      "ImagingFrequency": 123.258797,
      "InPlanePhaseEncodingDirection": "COL",
      "MRAcquisitionType": "2D",
      "MagneticFieldStrength": 3.0,
      "Manufacturer": "SIEMENS",
      "ManufacturerModelName": "Prisma_fit",
      "Modality": "MR",
      "NumberOfAverages": 1.0,
      "NumberOfPhaseEncodingSteps": 104,
      "PercentPhaseFieldOfView": 100.0,
      "PercentSampling": 100.0,
      "PerformedProcedureStepStartTime": "172720.628000",
      "PhotometricInterpretation": "MONOCHROME2",
      "PixelBandwidth": 2290.0,
      "PixelRepresentation": 0,
      "PixelSpacing": [2.0, 2.0],
      "ProtocolName": "func_task-friends-s05e23b",
      "RepetitionTime": 1490.0,
      "Rows": 832,
      "SAR": 0.07921987887347,
      "SamplesPerPixel": 1,
      "ScanOptions": "FS",
      "ScanningSequence": "EP",
      "SequenceName": "epfid2d1_104",
      "SequenceVariant": [
        "SK",
        "SS"
],
      "SeriesDescription": "func_task-friends-s05e23b",
      "SeriesNumber": 11,
      "SeriesTime": "174530.916000",
      "SliceLocation": -36.119002923403,
      "SliceThickness": 2.0,
      "SmallestImagePixelValue": 0,
      "SoftwareVersions": "syngo MR E11",
      "SpacingBetweenSlices": 1.9999999950663,
      "SpecificCharacterSet": "ISO_IR 100",
      "StudyID": "1",
      "StudyTime": "172720.563000",
      "TransmitCoilName": "Body",
      "VariableFlipAngleFlag": "N",
      "WindowCenterWidthExplanation": "Algo1",
      "dBdt": 0.0},
    "slices": {}
  },
  "time": {
    "samples": {
      "AcquisitionNumber": [1, 2, 3, 4, 5, 6, 7, 8, 9, 10, 11, 12, 13, 14, 15, 16, 17, 18, 19, 20, 21, 22, 23, 24, 25, 26, 27, 28, 29, 30, 31, 32, 33, 34, 35, 36, 37, 38, 39, 40, 41, 42, 43, 44, 45, 46, 47, 48, 49, 50, 51, 52, 53, 54, 55, 56, 57, 58, 59, 60, 61, 62, 63, 64, 65, 66, 67, 68, 69, 70, 71, 72, 73, 74, 75, 76, 77, 78, 79, 80, 81, 82, 83, 84, 85, 86, 87, 88, 89, 90, 91, 92, 93, 94, 95, 96, 97, 98, 99, 100, 101, 102, 103, 104, 105, 106, 107, 108, 109, 110, 111, 112, 113, 114, 115, 116, 117, 118, 119, 120, 121, 122, 123, 124, 125, 126, 127, 128, 129, 130, 131, 132, 133, 134, 135, 136, 137, 138, 139, 140, 141, 142, 143, 144, 145, 146, 147, 148, 149, 150, 151, 152, 153, 154, 155, 156, 157, 158, 159, 160, 161, 162, 163, 164, 165, 166, 167, 168, 169, 170, 171, 172, 173, 174, 175, 176, 177, 178, 179, 180, 181, 182, 183, 184, 185, 186, 187, 188, 189, 190, 191, 192, 193, 194, 195, 196, 197, 198, 199, 200, 201, 202, 203, 204, 205, 206, 207, 208, 209, 210, 211, 212, 213, 214, 215, 216, 217, 218, 219, 220, 221, 222, 223, 224, 225, 226, 227, 228, 229, 230, 231, 232, 233, 234, 235, 236, 237, 238, 239, 240, 241, 242, 243, 244, 245, 246, 247, 248, 249, 250, 251, 252, 253, 254, 255, 256, 257, 258, 259, 260, 261, 262, 263, 264, 265, 266, 267, 268, 269, 270, 271, 272, 273, 274, 275, 276, 277, 278, 279, 280, 281, 282, 283, 284, 285, 286, 287, 288, 289, 290, 291, 292, 293, 294, 295, 296, 297, 298, 299, 300, 301, 302, 303, 304, 305, 306, 307, 308, 309, 310, 311, 312, 313, 314, 315, 316, 317, 318, 319, 320, 321, 322, 323, 324, 325, 326, 327, 328, 329, 330, 331, 332, 333, 334, 335, 336, 337, 338, 339, 340, 341, 342, 343, 344, 345, 346, 347, 348, 349, 350, 351, 352, 353, 354, 355, 356, 357, 358, 359, 360, 361, 362, 363, 364, 365, 366, 367, 368, 369, 370, 371, 372, 373, 374, 375, 376, 377, 378, 379, 380, 381, 382, 383, 384, 385, 386, 387, 388, 389, 390, 391, 392, 393, 394, 395, 396, 397, 398, 399, 400, 401, 402, 403, 404, 405, 406, 407, 408, 409, 410, 411, 412, 413, 414, 415, 416, 417, 418, 419, 420, 421, 422, 423, 424, 425, 426, 427, 428, 429, 430, 431, 432, 433, 434, 435, 436, 437, 438, 439, 440, 441, 442, 443, 444, 445, 446, 447, 448, 449, 450, 451, 452, 453, 454, 455, 456, 457, 458],
      "AcquisitionTime": ["174404.790000", "174406.280000", "174407.770000", "174409.260000", "174410.750000", "174412.240000", "174413.730000", "174415.220000", "174416.710000", "174418.200000", "174419.690000", "174421.180000", "174422.670000", "174424.160000", "174425.650000", "174427.140000", "174428.630000", "174430.120000", "174431.610000", "174433.100000", "174434.590000", "174436.080000", "174437.570000", "174439.060000", "174440.550000", "174442.040000", "174443.530000", "174445.020000", "174446.510000", "174448.000000", "174449.490000", "174450.980000", "174452.470000", "174453.960000", "174455.450000", "174456.940000", "174458.430000", "174459.920000", "174501.410000", "174502.900000", "174504.390000", "174505.880000", "174507.370000", "174508.860000", "174510.350000", "174511.840000", "174513.330000", "174514.820000", "174516.310000", "174517.800000", "174519.290000", "174520.780000", "174522.270000", "174523.760000", "174525.250000", "174526.740000", "174528.230000", "174529.720000", "174531.210000", "174532.700000", "174534.190000", "174535.680000", "174537.170000", "174538.660000", "174540.150000", "174541.640000", "174543.130000", "174544.620000", "174546.110000", "174547.600000", "174549.090000", "174550.580000", "174552.070000", "174553.560000", "174555.050000", "174556.540000", "174558.030000", "174559.520000", "174601.010000", "174602.500000", "174603.990000", "174605.480000", "174606.970000", "174608.460000", "174609.950000", "174611.440000", "174612.930000", "174614.420000", "174615.910000", "174617.400000", "174618.890000", "174620.380000", "174621.870000", "174623.360000", "174624.850000", "174626.340000", "174627.830000", "174629.320000", "174630.810000", "174632.300000", "174633.790000", "174635.280000", "174636.770000", "174638.260000", "174639.750000", "174641.240000", "174642.730000", "174644.220000", "174645.710000", "174647.200000", "174648.690000", "174650.180000", "174651.670000", "174653.160000", "174654.650000", "174656.140000", "174657.630000", "174659.120000", "174700.610000", "174702.100000", "174703.590000", "174705.080000", "174706.570000", "174708.060000", "174709.550000", "174711.040000", "174712.530000", "174714.020000", "174715.510000", "174717.000000", "174718.490000", "174719.980000", "174721.470000", "174722.960000", "174724.450000", "174725.940000", "174727.430000", "174728.920000", "174730.410000", "174731.900000", "174733.390000", "174734.880000", "174736.370000", "174737.860000", "174739.350000", "174740.840000", "174742.330000", "174743.820000", "174745.310000", "174746.800000", "174748.290000", "174749.780000", "174751.270000", "174752.760000", "174754.250000", "174755.740000", "174757.230000", "174758.720000", "174800.210000", "174801.700000", "174803.190000", "174804.680000", "174806.170000", "174807.660000", "174809.150000", "174810.640000", "174812.130000", "174813.620000", "174815.110000", "174816.600000", "174818.090000", "174819.580000", "174821.070000", "174822.560000", "174824.050000", "174825.540000", "174827.030000", "174828.520000", "174830.010000", "174831.500000", "174832.990000", "174834.480000", "174835.970000", "174837.460000", "174838.950000", "174840.440000", "174841.930000", "174843.420000", "174844.910000", "174846.400000", "174847.890000", "174849.380000", "174850.870000", "174852.360000", "174853.850000", "174855.340000", "174856.830000", "174858.320000", "174859.810000", "174901.300000", "174902.790000", "174904.280000", "174905.770000", "174907.260000", "174908.750000", "174910.240000", "174911.730000", "174913.220000", "174914.710000", "174916.200000", "174917.690000", "174919.180000", "174920.670000", "174922.160000", "174923.650000", "174925.140000", "174926.630000", "174928.120000", "174929.610000", "174931.100000", "174932.590000", "174934.080000", "174935.570000", "174937.060000", "174938.550000", "174940.040000", "174941.530000", "174943.020000", "174944.510000", "174946.000000", "174947.490000", "174948.980000", "174950.470000", "174951.960000", "174953.450000", "174954.940000", "174956.430000", "174957.920000", "174959.410000", "175000.900000", "175002.390000", "175003.880000", "175005.370000", "175006.860000", "175008.350000", "175009.840000", "175011.330000", "175012.820000", "175014.310000", "175015.800000", "175017.290000", "175018.780000", "175020.270000", "175021.760000", "175023.250000", "175024.740000", "175026.230000", "175027.720000", "175029.210000", "175030.700000", "175032.190000", "175033.680000", "175035.170000", "175036.660000", "175038.150000", "175039.640000", "175041.130000", "175042.620000", "175044.110000", "175045.600000", "175047.090000", "175048.580000", "175050.070000", "175051.560000", "175053.050000", "175054.540000", "175056.030000", "175057.520000", "175059.010000", "175100.500000", "175101.990000", "175103.480000", "175104.970000", "175106.460000", "175107.950000", "175109.440000", "175110.930000", "175112.420000", "175113.910000", "175115.400000", "175116.890000", "175118.380000", "175119.870000", "175121.360000", "175122.850000", "175124.340000", "175125.830000", "175127.320000", "175128.810000", "175130.300000", "175131.790000", "175133.280000", "175134.770000", "175136.260000", "175137.750000", "175139.240000", "175140.730000", "175142.220000", "175143.710000", "175145.200000", "175146.690000", "175148.180000", "175149.670000", "175151.160000", "175152.650000", "175154.140000", "175155.630000", "175157.120000", "175158.610000", "175200.100000", "175201.590000", "175203.080000", "175204.570000", "175206.060000", "175207.550000", "175209.040000", "175210.530000", "175212.020000", "175213.510000", "175215.000000", "175216.490000", "175217.980000", "175219.470000", "175220.960000", "175222.450000", "175223.940000", "175225.430000", "175226.920000", "175228.410000", "175229.900000", "175231.390000", "175232.880000", "175234.370000", "175235.860000", "175237.350000", "175238.840000", "175240.330000", "175241.820000", "175243.310000", "175244.800000", "175246.290000", "175247.780000", "175249.270000", "175250.760000", "175252.250000", "175253.740000", "175255.230000", "175256.720000", "175258.210000", "175259.700000", "175301.190000", "175302.680000", "175304.170000", "175305.660000", "175307.150000", "175308.640000", "175310.130000", "175311.620000", "175313.110000", "175314.600000", "175316.090000", "175317.580000", "175319.070000", "175320.560000", "175322.050000", "175323.540000", "175325.030000", "175326.520000", "175328.010000", "175329.500000", "175330.990000", "175332.480000", "175333.970000", "175335.460000", "175336.950000", "175338.440000", "175339.930000", "175341.420000", "175342.910000", "175344.400000", "175345.890000", "175347.380000", "175348.870000", "175350.360000", "175351.850000", "175353.340000", "175354.830000", "175356.320000", "175357.810000", "175359.300000", "175400.790000", "175402.280000", "175403.770000", "175405.260000", "175406.750000", "175408.240000", "175409.730000", "175411.220000", "175412.710000", "175414.200000", "175415.690000", "175417.180000", "175418.670000", "175420.160000", "175421.650000", "175423.140000", "175424.630000", "175426.120000", "175427.610000", "175429.100000", "175430.590000", "175432.080000", "175433.570000", "175435.060000", "175436.550000", "175438.040000", "175439.530000", "175441.020000", "175442.510000", "175444.000000", "175445.490000", "175446.980000", "175448.470000", "175449.960000", "175451.450000", "175452.940000", "175454.430000", "175455.920000", "175457.410000", "175458.900000", "175500.390000", "175501.880000", "175503.370000", "175504.860000", "175506.350000", "175507.840000", "175509.330000", "175510.820000", "175512.310000", "175513.800000", "175515.290000", "175516.780000", "175518.270000", "175519.760000", "175521.250000", "175522.740000", "175524.230000", "175525.720000"],
      "ContentTime": ["174530.919000", "174530.922000", "174530.925000", "174530.928000", "174530.940000", "174530.943000", "174530.946000", "174530.948000", "174530.951000", "174530.954000", "174530.957000", "174530.960000", "174530.963000", "174530.966000", "174530.968000", "174530.971000", "174530.974000", "174530.977000", "174530.980000", "174530.983000", "174530.985000", "174530.988000", "174530.991000", "174530.994000", "174530.997000", "174531.001000", "174531.004000", "174531.013000", "174531.016000", "174531.018000", "174531.021000", "174531.024000", "174531.027000", "174531.030000", "174531.033000", "174531.036000", "174531.039000", "174550.884000", "174550.887000", "174550.890000", "174550.893000", "174550.895000", "174550.898000", "174550.901000", "174550.904000", "174550.907000", "174550.921000", "174550.924000", "174550.927000", "174550.930000", "174550.932000", "174550.935000", "174550.938000", "174550.941000", "174550.944000", "174550.947000", "174550.950000", "174610.884000", "174610.887000", "174610.890000", "174610.892000", "174610.895000", "174610.898000", "174610.901000", "174610.904000", "174610.907000", "174610.910000", "174610.913000", "174610.915000", "174610.918000", "174610.921000", "174610.924000", "174610.927000", "174610.930000", "174610.933000", "174610.935000", "174610.938000", "174610.941000", "174650.884000", "174650.887000", "174650.890000", "174650.893000", "174650.895000", "174650.898000", "174650.909000", "174650.912000", "174650.915000", "174650.917000", "174650.920000", "174650.923000", "174650.926000", "174650.929000", "174650.932000", "174650.935000", "174650.937000", "174650.940000", "174650.943000", "174650.946000", "174650.949000", "174650.952000", "174650.954000", "174650.957000", "174650.960000", "174650.963000", "174650.966000", "174650.969000", "174650.972000", "174650.974000", "174650.977000", "174650.980000", "174650.983000", "174730.884000", "174730.887000", "174730.890000", "174730.893000", "174730.895000", "174730.898000", "174730.903000", "174730.913000", "174730.916000", "174730.919000", "174730.922000", "174730.924000", "174730.927000", "174730.930000", "174730.933000", "174730.936000", "174730.939000", "174730.942000", "174730.945000", "174730.947000", "174730.950000", "174730.953000", "174730.956000", "174730.959000", "174730.962000", "174730.965000", "174810.884000", "174810.887000", "174810.890000", "174810.893000", "174810.895000", "174810.898000", "174810.901000", "174810.904000", "174810.907000", "174810.910000", "174810.913000", "174810.916000", "174810.919000", "174810.922000", "174810.925000", "174810.927000", "174810.930000", "174810.933000", "174810.936000", "174810.939000", "174810.942000", "174810.945000", "174810.947000", "174810.971000", "174810.974000", "174810.977000", "174810.984000", "174850.884000", "174850.887000", "174850.890000", "174850.893000", "174850.896000", "174850.898000", "174850.901000", "174850.904000", "174850.907000", "174850.910000", "174850.913000", "174850.916000", "174850.919000", "174850.922000", "174850.924000", "174850.927000", "174850.930000", "174850.933000", "174850.936000", "174850.939000", "174850.942000", "174850.944000", "174850.947000", "174850.950000", "174850.953000", "174850.956000", "174850.959000", "174930.883000", "174930.886000", "174930.889000", "174930.892000", "174930.894000", "174930.897000", "174930.900000", "174930.903000", "174930.906000", "174930.909000", "174930.912000", "174930.915000", "174930.918000", "174930.921000", "174930.923000", "174930.926000", "174930.929000", "174930.932000", "174930.935000", "174930.938000", "174930.941000", "174930.943000", "174930.946000", "174930.949000", "174930.952000", "174930.955000", "174930.958000", "175010.884000", "175010.887000", "175010.890000", "175010.893000", "175010.896000", "175010.899000", "175010.901000", "175010.904000", "175010.907000", "175010.910000", "175010.913000", "175010.916000", "175010.919000", "175010.922000", "175010.925000", "175010.927000", "175010.930000", "175010.933000", "175010.936000", "175010.939000", "175010.942000", "175010.945000", "175010.948000", "175010.950000", "175010.953000", "175010.956000", "175010.959000", "175050.884000", "175050.887000", "175050.890000", "175050.893000", "175050.896000", "175050.899000", "175050.901000", "175050.904000", "175050.907000", "175050.910000", "175050.913000", "175050.916000", "175050.919000", "175050.922000", "175050.924000", "175050.927000", "175050.930000", "175050.933000", "175050.936000", "175050.939000", "175050.942000", "175050.944000", "175050.947000", "175050.950000", "175050.953000", "175050.956000", "175050.959000", "175130.883000", "175130.886000", "175130.889000", "175130.892000", "175130.895000", "175130.898000", "175130.900000", "175130.903000", "175130.906000", "175130.909000", "175130.912000", "175130.915000", "175130.918000", "175130.920000", "175130.923000", "175130.926000", "175130.929000", "175130.932000", "175130.935000", "175130.938000", "175130.940000", "175130.943000", "175130.946000", "175130.949000", "175130.952000", "175130.955000", "175130.958000", "175210.884000", "175210.887000", "175210.890000", "175210.893000", "175210.896000", "175210.899000", "175210.903000", "175210.913000", "175210.916000", "175210.919000", "175210.922000", "175210.925000", "175210.928000", "175210.931000", "175210.933000", "175210.936000", "175210.939000", "175210.942000", "175210.945000", "175210.948000", "175210.950000", "175210.953000", "175210.957000", "175210.959000", "175210.962000", "175210.965000", "175250.884000", "175250.887000", "175250.890000", "175250.893000", "175250.896000", "175250.899000", "175250.901000", "175250.904000", "175250.907000", "175250.910000", "175250.913000", "175250.916000", "175250.919000", "175250.922000", "175250.924000", "175250.927000", "175250.930000", "175250.933000", "175250.936000", "175250.939000", "175250.942000", "175250.945000", "175250.947000", "175250.970000", "175250.972000", "175250.975000", "175250.978000", "175330.884000", "175330.887000", "175330.890000", "175330.893000", "175330.895000", "175330.898000", "175330.901000", "175330.904000", "175330.907000", "175330.910000", "175330.913000", "175330.916000", "175330.919000", "175330.922000", "175330.925000", "175330.928000", "175330.931000", "175330.934000", "175330.936000", "175330.939000", "175330.942000", "175330.945000", "175330.948000", "175330.951000", "175330.954000", "175330.957000", "175330.959000", "175410.883000", "175410.886000", "175410.889000", "175410.892000", "175410.895000", "175410.897000", "175410.900000", "175410.903000", "175410.906000", "175410.909000", "175410.912000", "175410.922000", "175410.925000", "175410.928000", "175410.931000", "175410.934000", "175410.937000", "175410.939000", "175410.942000", "175410.945000", "175410.948000", "175410.951000", "175410.954000", "175410.957000", "175410.960000", "175410.963000", "175410.966000", "175450.884000", "175450.887000", "175450.890000", "175450.893000", "175450.896000", "175450.898000", "175450.901000", "175450.904000", "175450.907000", "175450.910000", "175450.913000", "175450.916000", "175450.919000", "175450.922000", "175450.924000", "175450.927000", "175450.930000", "175450.933000", "175450.936000", "175450.939000", "175450.941000", "175450.944000", "175450.947000", "175450.950000", "175450.953000", "175450.956000", "175450.959000", "175527.768000", "175527.772000", "175527.775000", "175527.778000", "175527.781000", "175527.784000", "175527.786000", "175527.789000", "175527.792000", "175527.795000", "175527.798000", "175527.801000", "175527.804000", "175527.808000", "175527.811000", "175527.814000", "175527.817000", "175527.820000", "175527.823000", "175527.826000", "175527.829000", "175527.832000", "175527.835000", "175527.838000", "175527.841000"],
