{
  "AcquisitionMatrixPE": 104,
  "AcquisitionNumber": 1,
  "AcquisitionTime": "17:56:54.400000",
  "BandwidthPerPixelPhaseEncode": 17.17,
  "BaseResolution": 104,
  "BodyPartExamined": "BRAIN",
  "CoilCombinationMethod": "Sum of Squares",
  "ConsistencyInfo": "N4_VE11C_LATEST_20160120",
  "ConversionSoftware": "dcm2niix",
  "ConversionSoftwareVersion": "v1.0.20220505",
  "DerivedVendorReportedEchoSpacing": 0.000560011,
  "DeviceSerialNumber": "167006",
  "DwellTime": 2.1e-06,
  "EchoTime": 0.037,
  "EchoTrainLength": 104,
  "EffectiveEchoSpacing": 0.000560011,
  "FlipAngle": 52,
  "HeudiconvVersion": "0.5.3.post811+g6206e14",
  "ImageComments": "Unaliased MB4/PE3/LB",
  "ImageOrientationPatientDICOM": [0.999669, -0.0257417, -0.000379945, 0.0239076, 0.933716, -0.357215],
  "ImageOrientationText": "Tra>Cor(-20.9)>Sag(-0.5)",
  "ImageType": [
    "ORIGINAL",
    "PRIMARY",
    "M",
    "MB",
    "ND",
    "MOSAIC"
],
  "ImagingFrequency": 123.259,
  "InPlanePhaseEncodingDirectionDICOM": "COL",
  "InstitutionAddress": "Chemin Queen-Mary 4565,Montreal,District,CA,H3W 1W5",
  "InstitutionName": "IUGM",
  "InstitutionalDepartmentName": "Department",
  "MRAcquisitionType": "2D",
  "MagneticFieldStrength": 3,
  "Manufacturer": "Siemens",
  "ManufacturersModelName": "Prisma_fit",
  "MatrixCoilMode": "SENSE",
  "Modality": "MR",
  "MultibandAccelerationFactor": 4,
  "PartialFourier": 1,
  "PatientPosition": "HFS",
  "PercentPhaseFOV": 100,
  "PercentSampling": 100,
  "PhaseEncodingDirection": "j",
  "PhaseEncodingSteps": 104,
  "PhaseResolution": 1,
  "PixelBandwidth": 2290,
  "ProcedureStepDescription": "video^friends",
  "ProtocolName": "func_task-friends-s05e23c",
  "PulseSequenceDetails": "%CustomerSeq%\\cmrr_mbep2d_bold",
  "ReceiveCoilActiveElements": "HC1-7;NC1,2",
  "ReceiveCoilName": "HeadNeck_64",
  "ReconMatrixPE": 104,
  "RepetitionTime": 1.49,
  "SAR": 0.0792199,
  "ScanOptions": "FS",
  "ScanningSequence": "EP",
  "SequenceName": "epfid2d1_104",
  "SequenceVariant": "SK\\SS",
  "SeriesDescription": "func_task-friends-s05e23c",
  "SeriesNumber": 13,
  "ShimSetting": [615, -7271, -8834, 419, 21, -376, 4, 19],
  "SliceThickness": 2,
  "SliceTiming": [0, 0.7825, 0.0975, 0.88, 0.195, 0.98, 0.2925, 1.0775, 0.39, 1.175, 0.49, 1.2725, 0.5875, 1.37, 0.685, 0, 0.7825, 0.0975, 0.88, 0.195, 0.98, 0.2925, 1.0775, 0.39, 1.175, 0.49, 1.2725, 0.5875, 1.37, 0.685, 0, 0.7825, 0.0975, 0.88, 0.195, 0.98, 0.2925, 1.0775, 0.39, 1.175, 0.49, 1.2725, 0.5875, 1.37, 0.685, 0, 0.7825, 0.0975, 0.88, 0.195, 0.98, 0.2925, 1.0775, 0.39, 1.175, 0.49, 1.2725, 0.5875, 1.37, 0.685],
  "SoftwareVersions": "syngo MR E11",
  "SpacingBetweenSlices": 2,
  "StationName": "MRC35049",
  "TaskName": "s05e23c",
  "TotalReadoutTime": 0.0576811,
  "TxRefAmp": 295.077,
  "WipMemBlock": "eb5db0f1-9f4e-48a3-a2a4-88f155d865b8||Sequence: R017 ve11c/master r/75a17815+; Jun 28 2022 16:32:11 by eja",
  "dcmmeta_affine": [
    [-1.999337077140808, 0.04781528562307358, -0.019100142642855644, 97.0572509765625],
    [0.0514833927154541, 1.8674325942993164, -0.7141743302345276, -74.15618896484375],
    [-0.0007598907104693353, 0.7144292593002319, 1.8680444955825806, -66.02874755859375],
    [0.0, 0.0, 0.0, 1.0]
],
  "dcmmeta_reorient_transform": [
    [0.0, -1.0, 0.0, 103.0],
    [1.0, 0.0, 0.0, 0.0],
    [0.0, 0.0, 1.0, 0.0],
    [0.0, 0.0, 0.0, 1.0]
],
  "dcmmeta_shape": [104, 104, 60, 458],
  "dcmmeta_slice_dim": 2,
  "dcmmeta_version": 0.6,
  "global": {
    "const": {
      "AcquisitionMatrix": [104, 0, 0, 104],
      "AngioFlag": "N",
      "BitsAllocated": 16,
      "BitsStored": 16,
      "BodyPartExamined": "BRAIN",
      "Columns": 832,
      "EchoNumbers": 1,
      "EchoTime": 37.0,
      "EchoTrainLength": 104,
      "FlipAngle": 52.0,
      "HighBit": 15,
      "ImageOrientationPatient": [0.99966855544441, -0.0257416956943, -0.000379945355, 0.02390764289851, 0.9337163008401, -0.357214633178],
      "ImagePositionPatient": [-847.14569668485, -779.19488124691, 267.88631743703],
      "ImageType": [
        "ORIGINAL",
        "PRIMARY",
        "M",
        "MB",
        "ND",
        "MOSAIC"
],
      "ImagedNucleus": "1H",
      "ImagingFrequency": 123.258797,
      "InPlanePhaseEncodingDirection": "COL",
      "MRAcquisitionType": "2D",
      "MagneticFieldStrength": 3.0,
      "Manufacturer": "SIEMENS",
      "ManufacturerModelName": "Prisma_fit",
      "Modality": "MR",
      "NumberOfAverages": 1.0,
      "NumberOfPhaseEncodingSteps": 104,
      "PercentPhaseFieldOfView": 100.0,
      "PercentSampling": 100.0,
      "PerformedProcedureStepStartTime": "172720.628000",
      "PhotometricInterpretation": "MONOCHROME2",
      "PixelBandwidth": 2290.0,
      "PixelRepresentation": 0,
      "PixelSpacing": [2.0, 2.0],
      "ProtocolName": "func_task-friends-s05e23c",
      "RepetitionTime": 1490.0,
      "Rows": 832,
      "SAR": 0.07921987887347,
      "SamplesPerPixel": 1,
      "ScanOptions": "FS",
      "ScanningSequence": "EP",
      "SequenceName": "epfid2d1_104",
      "SequenceVariant": [
        "SK",
        "SS"
],
      "SeriesDescription": "func_task-friends-s05e23c",
      "SeriesNumber": 13,
      "SeriesTime": "175819.363000",
      "SliceLocation": -36.119002923403,
      "SliceThickness": 2.0,
      "SmallestImagePixelValue": 0,
      "SoftwareVersions": "syngo MR E11",
      "SpacingBetweenSlices": 1.9999999950663,
      "SpecificCharacterSet": "ISO_IR 100",
      "StudyID": "1",
      "StudyTime": "172720.563000",
      "TransmitCoilName": "Body",
      "VariableFlipAngleFlag": "N",
      "WindowCenterWidthExplanation": "Algo1",
      "dBdt": 0.0},
    "slices": {}
  },
  "time": {
    "samples": {
      "AcquisitionNumber": [1, 2, 3, 4, 5, 6, 7, 8, 9, 10, 11, 12, 13, 14, 15, 16, 17, 18, 19, 20, 21, 22, 23, 24, 25, 26, 27, 28, 29, 30, 31, 32, 33, 34, 35, 36, 37, 38, 39, 40, 41, 42, 43, 44, 45, 46, 47, 48, 49, 50, 51, 52, 53, 54, 55, 56, 57, 58, 59, 60, 61, 62, 63, 64, 65, 66, 67, 68, 69, 70, 71, 72, 73, 74, 75, 76, 77, 78, 79, 80, 81, 82, 83, 84, 85, 86, 87, 88, 89, 90, 91, 92, 93, 94, 95, 96, 97, 98, 99, 100, 101, 102, 103, 104, 105, 106, 107, 108, 109, 110, 111, 112, 113, 114, 115, 116, 117, 118, 119, 120, 121, 122, 123, 124, 125, 126, 127, 128, 129, 130, 131, 132, 133, 134, 135, 136, 137, 138, 139, 140, 141, 142, 143, 144, 145, 146, 147, 148, 149, 150, 151, 152, 153, 154, 155, 156, 157, 158, 159, 160, 161, 162, 163, 164, 165, 166, 167, 168, 169, 170, 171, 172, 173, 174, 175, 176, 177, 178, 179, 180, 181, 182, 183, 184, 185, 186, 187, 188, 189, 190, 191, 192, 193, 194, 195, 196, 197, 198, 199, 200, 201, 202, 203, 204, 205, 206, 207, 208, 209, 210, 211, 212, 213, 214, 215, 216, 217, 218, 219, 220, 221, 222, 223, 224, 225, 226, 227, 228, 229, 230, 231, 232, 233, 234, 235, 236, 237, 238, 239, 240, 241, 242, 243, 244, 245, 246, 247, 248, 249, 250, 251, 252, 253, 254, 255, 256, 257, 258, 259, 260, 261, 262, 263, 264, 265, 266, 267, 268, 269, 270, 271, 272, 273, 274, 275, 276, 277, 278, 279, 280, 281, 282, 283, 284, 285, 286, 287, 288, 289, 290, 291, 292, 293, 294, 295, 296, 297, 298, 299, 300, 301, 302, 303, 304, 305, 306, 307, 308, 309, 310, 311, 312, 313, 314, 315, 316, 317, 318, 319, 320, 321, 322, 323, 324, 325, 326, 327, 328, 329, 330, 331, 332, 333, 334, 335, 336, 337, 338, 339, 340, 341, 342, 343, 344, 345, 346, 347, 348, 349, 350, 351, 352, 353, 354, 355, 356, 357, 358, 359, 360, 361, 362, 363, 364, 365, 366, 367, 368, 369, 370, 371, 372, 373, 374, 375, 376, 377, 378, 379, 380, 381, 382, 383, 384, 385, 386, 387, 388, 389, 390, 391, 392, 393, 394, 395, 396, 397, 398, 399, 400, 401, 402, 403, 404, 405, 406, 407, 408, 409, 410, 411, 412, 413, 414, 415, 416, 417, 418, 419, 420, 421, 422, 423, 424, 425, 426, 427, 428, 429, 430, 431, 432, 433, 434, 435, 436, 437, 438, 439, 440, 441, 442, 443, 444, 445, 446, 447, 448, 449, 450, 451, 452, 453, 454, 455, 456, 457, 458],
      "AcquisitionTime": ["175654.400000", "175655.890000", "175657.380000", "175658.870000", "175700.360000", "175701.850000", "175703.340000", "175704.830000", "175706.320000", "175707.810000", "175709.300000", "175710.790000", "175712.280000", "175713.770000", "175715.260000", "175716.750000", "175718.240000", "175719.730000", "175721.220000", "175722.710000", "175724.200000", "175725.690000", "175727.180000", "175728.670000", "175730.160000", "175731.650000", "175733.140000", "175734.630000", "175736.120000", "175737.610000", "175739.100000", "175740.590000", "175742.080000", "175743.570000", "175745.060000", "175746.550000", "175748.040000", "175749.530000", "175751.020000", "175752.510000", "175754.000000", "175755.490000", "175756.980000", "175758.470000", "175759.960000", "175801.450000", "175802.940000", "175804.430000", "175805.920000", "175807.410000", "175808.900000", "175810.390000", "175811.880000", "175813.370000", "175814.860000", "175816.350000", "175817.840000", "175819.330000", "175820.820000", "175822.310000", "175823.800000", "175825.290000", "175826.780000", "175828.270000", "175829.760000", "175831.250000", "175832.740000", "175834.230000", "175835.720000", "175837.210000", "175838.700000", "175840.190000", "175841.680000", "175843.170000", "175844.660000", "175846.150000", "175847.640000", "175849.130000", "175850.620000", "175852.110000", "175853.600000", "175855.090000", "175856.580000", "175858.070000", "175859.560000", "175901.050000", "175902.540000", "175904.030000", "175905.520000", "175907.010000", "175908.500000", "175909.990000", "175911.480000", "175912.970000", "175914.460000", "175915.950000", "175917.440000", "175918.930000", "175920.420000", "175921.910000", "175923.400000", "175924.890000", "175926.380000", "175927.870000", "175929.360000", "175930.850000", "175932.340000", "175933.830000", "175935.320000", "175936.810000", "175938.300000", "175939.790000", "175941.280000", "175942.770000", "175944.260000", "175945.750000", "175947.240000", "175948.730000", "175950.220000", "175951.710000", "175953.200000", "175954.690000", "175956.180000", "175957.670000", "175959.160000", "180000.650000", "180002.140000", "180003.630000", "180005.120000", "180006.610000", "180008.100000", "180009.590000", "180011.080000", "180012.570000", "180014.060000", "180015.550000", "180017.040000", "180018.530000", "180020.020000", "180021.510000", "180023.000000", "180024.490000", "180025.980000", "180027.470000", "180028.960000", "180030.450000", "180031.940000", "180033.430000", "180034.920000", "180036.410000", "180037.900000", "180039.390000", "180040.880000", "180042.370000", "180043.860000", "180045.350000", "180046.840000", "180048.330000", "180049.820000", "180051.310000", "180052.800000", "180054.290000", "180055.780000", "180057.270000", "180058.760000", "180100.250000", "180101.740000", "180103.230000", "180104.720000", "180106.210000", "180107.700000", "180109.190000", "180110.680000", "180112.170000", "180113.660000", "180115.150000", "180116.640000", "180118.130000", "180119.620000", "180121.110000", "180122.600000", "180124.090000", "180125.580000", "180127.070000", "180128.560000", "180130.050000", "180131.540000", "180133.030000", "180134.520000", "180136.010000", "180137.500000", "180138.990000", "180140.480000", "180141.970000", "180143.460000", "180144.950000", "180146.440000", "180147.930000", "180149.420000", "180150.910000", "180152.400000", "180153.890000", "180155.380000", "180156.870000", "180158.360000", "180159.850000", "180201.340000", "180202.830000", "180204.320000", "180205.810000", "180207.300000", "180208.790000", "180210.280000", "180211.770000", "180213.260000", "180214.750000", "180216.240000", "180217.730000", "180219.220000", "180220.710000", "180222.200000", "180223.690000", "180225.180000", "180226.670000", "180228.160000", "180229.650000", "180231.140000", "180232.630000", "180234.120000", "180235.610000", "180237.100000", "180238.590000", "180240.080000", "180241.570000", "180243.060000", "180244.550000", "180246.040000", "180247.530000", "180249.020000", "180250.510000", "180252.000000", "180253.490000", "180254.980000", "180256.470000", "180257.960000", "180259.450000", "180300.940000", "180302.430000", "180303.920000", "180305.410000", "180306.900000", "180308.390000", "180309.880000", "180311.370000", "180312.860000", "180314.350000", "180315.840000", "180317.330000", "180318.820000", "180320.310000", "180321.800000", "180323.290000", "180324.780000", "180326.270000", "180327.760000", "180329.250000", "180330.740000", "180332.230000", "180333.720000", "180335.210000", "180336.700000", "180338.190000", "180339.680000", "180341.170000", "180342.660000", "180344.150000", "180345.640000", "180347.130000", "180348.620000", "180350.110000", "180351.600000", "180353.090000", "180354.580000", "180356.070000", "180357.560000", "180359.050000", "180400.540000", "180402.030000", "180403.520000", "180405.010000", "180406.500000", "180407.990000", "180409.480000", "180410.970000", "180412.460000", "180413.950000", "180415.440000", "180416.930000", "180418.420000", "180419.910000", "180421.400000", "180422.890000", "180424.380000", "180425.870000", "180427.360000", "180428.850000", "180430.340000", "180431.830000", "180433.320000", "180434.810000", "180436.300000", "180437.790000", "180439.280000", "180440.770000", "180442.260000", "180443.750000", "180445.240000", "180446.730000", "180448.220000", "180449.710000", "180451.200000", "180452.690000", "180454.180000", "180455.670000", "180457.160000", "180458.650000", "180500.140000", "180501.630000", "180503.120000", "180504.610000", "180506.100000", "180507.590000", "180509.080000", "180510.570000", "180512.060000", "180513.550000", "180515.040000", "180516.530000", "180518.020000", "180519.510000", "180521.000000", "180522.490000", "180523.980000", "180525.470000", "180526.960000", "180528.450000", "180529.940000", "180531.430000", "180532.920000", "180534.410000", "180535.900000", "180537.390000", "180538.880000", "180540.370000", "180541.860000", "180543.350000", "180544.840000", "180546.330000", "180547.820000", "180549.310000", "180550.800000", "180552.290000", "180553.780000", "180555.270000", "180556.760000", "180558.250000", "180559.740000", "180601.230000", "180602.720000", "180604.210000", "180605.700000", "180607.190000", "180608.680000", "180610.170000", "180611.660000", "180613.150000", "180614.640000", "180616.130000", "180617.620000", "180619.110000", "180620.600000", "180622.090000", "180623.580000", "180625.070000", "180626.560000", "180628.050000", "180629.540000", "180631.030000", "180632.520000", "180634.010000", "180635.500000", "180636.990000", "180638.480000", "180639.970000", "180641.460000", "180642.950000", "180644.440000", "180645.930000", "180647.420000", "180648.910000", "180650.400000", "180651.890000", "180653.380000", "180654.870000", "180656.360000", "180657.850000", "180659.340000", "180700.830000", "180702.320000", "180703.810000", "180705.300000", "180706.790000", "180708.280000", "180709.770000", "180711.260000", "180712.750000", "180714.240000", "180715.730000", "180717.220000", "180718.710000", "180720.200000", "180721.690000", "180723.180000", "180724.670000", "180726.160000", "180727.650000", "180729.140000", "180730.630000", "180732.120000", "180733.610000", "180735.100000", "180736.590000", "180738.080000", "180739.570000", "180741.060000", "180742.550000", "180744.040000", "180745.530000", "180747.020000", "180748.510000", "180750.000000", "180751.490000", "180752.980000", "180754.470000", "180755.960000", "180757.450000", "180758.940000", "180800.430000", "180801.920000", "180803.410000", "180804.900000", "180806.390000", "180807.880000", "180809.370000", "180810.860000", "180812.350000", "180813.840000", "180815.330000"],
      "ContentTime": ["175819.366000", "175819.369000", "175819.372000", "175819.375000", "175819.378000", "175819.381000", "175819.384000", "175819.387000", "175819.389000", "175819.392000", "175819.395000", "175819.398000", "175819.401000", "175819.404000", "175819.407000", "175819.409000", "175819.412000", "175819.415000", "175819.418000", "175819.421000", "175819.424000", "175819.435000", "175819.438000", "175819.441000", "175819.443000", "175819.446000", "175819.449000", "175819.452000", "175819.455000", "175819.458000", "175819.461000", "175819.463000", "175819.466000", "175839.334000", "175839.337000", "175839.340000", "175839.343000", "175839.345000", "175839.348000", "175839.351000", "175839.354000", "175839.357000", "175839.360000", "175839.363000", "175839.365000", "175839.368000", "175839.381000", "175839.383000", "175839.386000", "175839.389000", "175839.392000", "175839.395000", "175839.415000", "175859.334000", "175859.337000", "175859.340000", "175859.343000", "175859.345000", "175859.348000", "175859.351000", "175859.354000", "175859.357000", "175859.360000", "175859.363000", "175859.365000", "175859.368000", "175859.371000", "175859.374000", "175859.377000", "175859.380000", "175859.383000", "175859.385000", "175859.388000", "175919.333000", "175919.336000", "175919.339000", "175919.341000", "175919.352000", "175919.355000", "175919.358000", "175919.361000", "175919.364000", "175919.367000", "175919.369000", "175919.372000", "175919.375000", "175919.378000", "175919.381000", "175919.384000", "175919.386000", "175919.389000", "175919.392000", "175919.395000", "175959.333000", "175959.336000", "175959.339000", "175959.342000", "175959.345000", "175959.347000", "175959.350000", "175959.353000", "175959.356000", "175959.359000", "175959.362000", "175959.365000", "175959.367000", "175959.370000", "175959.373000", "175959.376000", "175959.379000", "175959.382000", "175959.385000", "175959.387000", "175959.390000", "175959.393000", "175959.396000", "175959.399000", "175959.402000", "175959.405000", "175959.407000", "175959.410000", "175959.413000", "175959.416000", "180039.334000", "180039.337000", "180039.340000", "180039.343000", "180039.345000", "180039.348000", "180039.351000", "180039.354000", "180039.357000", "180039.360000", "180039.363000", "180039.366000", "180039.369000", "180039.371000", "180039.374000", "180039.377000", "180039.380000", "180039.389000", "180039.392000", "180039.395000", "180039.398000", "180039.400000", "180039.403000", "180039.406000", "180039.409000", "180039.412000", "180039.415000", "180119.334000", "180119.337000", "180119.340000", "180119.343000", "180119.345000", "180119.348000", "180119.351000", "180119.354000", "180119.357000", "180119.360000", "180119.363000", "180119.366000", "180119.368000", "180119.371000", "180119.374000", "180119.389000", "180119.392000", "180119.394000", "180119.397000", "180119.400000", "180119.403000", "180119.406000", "180119.409000", "180119.412000", "180119.415000", "180119.417000", "180119.420000", "180159.333000", "180159.336000", "180159.339000", "180159.342000", "180159.345000", "180159.358000", "180159.360000", "180159.363000", "180159.366000", "180159.369000", "180159.372000", "180159.375000", "180159.378000", "180159.380000", "180159.383000", "180159.386000", "180159.389000", "180159.392000", "180159.395000", "180159.398000", "180159.401000", "180159.404000", "180159.406000", "180159.409000", "180159.412000", "180159.415000", "180239.334000", "180239.337000", "180239.340000", "180239.343000", "180239.346000", "180239.348000", "180239.351000", "180239.354000", "180239.357000", "180239.360000", "180239.363000", "180239.366000", "180239.369000", "180239.372000", "180239.374000", "180239.377000", "180239.380000", "180239.383000", "180239.386000", "180239.389000", "180239.392000", "180239.394000", "180239.397000", "180239.400000", "180239.403000", "180239.406000", "180239.409000", "180319.334000", "180319.337000", "180319.340000", "180319.343000", "180319.346000", "180319.348000", "180319.351000", "180319.354000", "180319.357000", "180319.360000", "180319.363000", "180319.366000", "180319.369000", "180319.371000", "180319.374000", "180319.377000", "180319.380000", "180319.383000", "180319.386000", "180319.389000", "180319.391000", "180319.394000", "180319.397000", "180319.400000", "180319.414000", "180319.417000", "180319.420000", "180359.333000", "180359.336000", "180359.339000", "180359.342000", "180359.345000", "180359.348000", "180359.351000", "180359.353000", "180359.356000", "180359.359000", "180359.362000", "180359.365000", "180359.368000", "180359.371000", "180359.374000", "180359.376000", "180359.379000", "180359.382000", "180359.385000", "180359.388000", "180359.391000", "180359.394000", "180359.397000", "180359.399000", "180359.402000", "180359.405000", "180359.408000", "180439.333000", "180439.336000", "180439.339000", "180439.342000", "180439.345000", "180439.347000", "180439.350000", "180439.353000", "180439.356000", "180439.359000", "180439.362000", "180439.365000", "180439.368000", "180439.370000", "180439.373000", "180439.376000", "180439.379000", "180439.382000", "180439.385000", "180439.388000", "180439.391000", "180439.393000", "180439.396000", "180439.399000", "180439.402000", "180439.405000", "180439.408000", "180519.334000", "180519.337000", "180519.340000", "180519.343000", "180519.346000", "180519.348000", "180519.351000", "180519.354000", "180519.357000", "180519.360000", "180519.363000", "180519.366000", "180519.369000", "180519.372000", "180519.374000", "180519.377000", "180519.380000", "180519.383000", "180519.386000", "180519.389000", "180519.392000", "180519.395000", "180519.397000", "180519.400000", "180519.403000", "180519.406000", "180519.409000", "180559.334000", "180559.337000", "180559.340000", "180559.343000", "180559.346000", "180559.348000", "180559.351000", "180559.354000", "180559.357000", "180559.360000", "180559.363000", "180559.366000", "180559.369000", "180559.371000", "180559.374000", "180559.377000", "180559.380000", "180559.383000", "180559.386000", "180559.389000", "180559.391000", "180559.394000", "180559.397000", "180559.400000", "180559.403000", "180559.406000", "180559.409000", "180639.333000", "180639.336000", "180639.339000", "180639.342000", "180639.345000", "180639.347000", "180639.350000", "180639.353000", "180639.356000", "180639.359000", "180639.362000", "180639.365000", "180639.368000", "180639.371000", "180639.374000", "180639.377000", "180639.379000", "180639.382000", "180639.385000", "180639.388000", "180639.391000", "180639.394000", "180639.397000", "180639.400000", "180639.403000", "180639.405000", "180719.334000", "180719.337000", "180719.340000", "180719.343000", "180719.345000", "180719.348000", "180719.351000", "180719.354000", "180719.357000", "180719.360000", "180719.363000", "180719.366000", "180719.369000", "180719.371000", "180719.374000", "180719.377000", "180719.380000", "180719.383000", "180719.386000", "180719.389000", "180719.391000", "180719.394000", "180719.397000", "180719.400000", "180719.403000", "180719.406000", "180719.409000", "180759.334000", "180759.337000", "180759.340000", "180759.343000", "180759.346000", "180759.349000", "180759.351000", "180759.354000", "180759.357000", "180759.360000", "180759.363000", "180759.381000", "180759.384000", "180759.387000", "180759.390000", "180759.392000", "180759.395000", "180759.398000", "180759.401000", "180759.404000", "180759.407000", "180759.410000", "180759.413000", "180759.416000", "180759.418000", "180759.421000", "180759.424000", "180817.831000", "180817.834000", "180817.837000", "180817.840000", "180817.843000", "180817.846000", "180817.849000", "180817.851000", "180817.854000", "180817.857000", "180817.860000", "180817.863000", "180817.866000"],
