{
  "AcquisitionMatrixPE": 104,
  "AcquisitionNumber": 1,
  "AcquisitionTime": "18:09:40.760000",
  "BandwidthPerPixelPhaseEncode": 17.17,
  "BaseResolution": 104,
  "BodyPartExamined": "BRAIN",
  "CoilCombinationMethod": "Sum of Squares",
  "ConsistencyInfo": "N4_VE11C_LATEST_20160120",
  "ConversionSoftware": "dcm2niix",
  "ConversionSoftwareVersion": "v1.0.20220505",
  "DerivedVendorReportedEchoSpacing": 0.000560011,
  "DeviceSerialNumber": "167006",
  "DwellTime": 2.1e-06,
  "EchoTime": 0.037,
  "EchoTrainLength": 104,
  "EffectiveEchoSpacing": 0.000560011,
  "FlipAngle": 52,
  "HeudiconvVersion": "0.5.3.post811+g6206e14",
  "ImageComments": "Unaliased MB4/PE3/LB",
  "ImageOrientationPatientDICOM": [0.999669, -0.0257417, -0.000379945, 0.0239076, 0.933716, -0.357215],
  "ImageOrientationText": "Tra>Cor(-20.9)>Sag(-0.5)",
  "ImageType": [
    "ORIGINAL",
    "PRIMARY",
    "M",
    "MB",
    "ND",
    "MOSAIC"
],
  "ImagingFrequency": 123.259,
  "InPlanePhaseEncodingDirectionDICOM": "COL",
  "InstitutionAddress": "Chemin Queen-Mary 4565,Montreal,District,CA,H3W 1W5",
  "InstitutionName": "IUGM",
  "InstitutionalDepartmentName": "Department",
  "MRAcquisitionType": "2D",
  "MagneticFieldStrength": 3,
  "Manufacturer": "Siemens",
  "ManufacturersModelName": "Prisma_fit",
  "MatrixCoilMode": "SENSE",
  "Modality": "MR",
  "MultibandAccelerationFactor": 4,
  "PartialFourier": 1,
  "PatientPosition": "HFS",
  "PercentPhaseFOV": 100,
  "PercentSampling": 100,
  "PhaseEncodingDirection": "j",
  "PhaseEncodingSteps": 104,
  "PhaseResolution": 1,
  "PixelBandwidth": 2290,
  "ProcedureStepDescription": "video^friends",
  "ProtocolName": "func_task-friends-s05e23d",
  "PulseSequenceDetails": "%CustomerSeq%\\cmrr_mbep2d_bold",
  "ReceiveCoilActiveElements": "HC1-7;NC1,2",
  "ReceiveCoilName": "HeadNeck_64",
  "ReconMatrixPE": 104,
  "RepetitionTime": 1.49,
  "SAR": 0.0792199,
  "ScanOptions": "FS",
  "ScanningSequence": "EP",
  "SequenceName": "epfid2d1_104",
  "SequenceVariant": "SK\\SS",
  "SeriesDescription": "func_task-friends-s05e23d",
  "SeriesNumber": 15,
  "ShimSetting": [615, -7271, -8834, 419, 21, -376, 4, 19],
  "SliceThickness": 2,
  "SliceTiming": [0, 0.785, 0.0975, 0.8825, 0.1975, 0.98, 0.295, 1.0775, 0.3925, 1.1775, 0.49, 1.275, 0.5875, 1.3725, 0.6875, 0, 0.785, 0.0975, 0.8825, 0.1975, 0.98, 0.295, 1.0775, 0.3925, 1.1775, 0.49, 1.275, 0.5875, 1.3725, 0.6875, 0, 0.785, 0.0975, 0.8825, 0.1975, 0.98, 0.295, 1.0775, 0.3925, 1.1775, 0.49, 1.275, 0.5875, 1.3725, 0.6875, 0, 0.785, 0.0975, 0.8825, 0.1975, 0.98, 0.295, 1.0775, 0.3925, 1.1775, 0.49, 1.275, 0.5875, 1.3725, 0.6875],
  "SoftwareVersions": "syngo MR E11",
  "SpacingBetweenSlices": 2,
  "StationName": "MRC35049",
  "TaskName": "s05e23d",
  "TotalReadoutTime": 0.0576811,
  "TxRefAmp": 295.077,
  "WipMemBlock": "7ba6a76f-f69f-4288-9181-9c4c6aff429d||Sequence: R017 ve11c/master r/75a17815+; Jun 28 2022 16:32:11 by eja",
  "dcmmeta_affine": [
    [-1.999337077140808, 0.04781528562307358, -0.019100142642855644, 97.0572509765625],
    [0.0514833927154541, 1.8674325942993164, -0.7141743302345276, -74.15618896484375],
    [-0.0007598907104693353, 0.7144292593002319, 1.8680444955825806, -66.02874755859375],
    [0.0, 0.0, 0.0, 1.0]
],
  "dcmmeta_reorient_transform": [
    [0.0, -1.0, 0.0, 103.0],
    [1.0, 0.0, 0.0, 0.0],
    [0.0, 0.0, 1.0, 0.0],
    [0.0, 0.0, 0.0, 1.0]
],
  "dcmmeta_shape": [104, 104, 60, 488],
  "dcmmeta_slice_dim": 2,
  "dcmmeta_version": 0.6,
  "global": {
    "const": {
      "AcquisitionMatrix": [104, 0, 0, 104],
      "AngioFlag": "N",
      "BitsAllocated": 16,
      "BitsStored": 16,
      "BodyPartExamined": "BRAIN",
      "Columns": 832,
      "EchoNumbers": 1,
      "EchoTime": 37.0,
      "EchoTrainLength": 104,
      "FlipAngle": 52.0,
      "HighBit": 15,
      "ImageOrientationPatient": [0.99966855544441, -0.0257416956943, -0.000379945355, 0.02390764289851, 0.9337163008401, -0.357214633178],
      "ImagePositionPatient": [-847.14569668485, -779.19488124691, 267.88631743703],
      "ImageType": [
        "ORIGINAL",
        "PRIMARY",
        "M",
        "MB",
        "ND",
        "MOSAIC"
],
      "ImagedNucleus": "1H",
      "ImagingFrequency": 123.2588,
      "InPlanePhaseEncodingDirection": "COL",
      "MRAcquisitionType": "2D",
      "MagneticFieldStrength": 3.0,
      "Manufacturer": "SIEMENS",
      "ManufacturerModelName": "Prisma_fit",
      "Modality": "MR",
      "NumberOfAverages": 1.0,
      "NumberOfPhaseEncodingSteps": 104,
      "PercentPhaseFieldOfView": 100.0,
      "PercentSampling": 100.0,
      "PerformedProcedureStepStartTime": "172720.628000",
      "PhotometricInterpretation": "MONOCHROME2",
      "PixelBandwidth": 2290.0,
      "PixelRepresentation": 0,
      "PixelSpacing": [2.0, 2.0],
      "ProtocolName": "func_task-friends-s05e23d",
      "RepetitionTime": 1490.0,
      "Rows": 832,
      "SAR": 0.07921987888961,
      "SamplesPerPixel": 1,
      "ScanOptions": "FS",
      "ScanningSequence": "EP",
      "SequenceName": "epfid2d1_104",
      "SequenceVariant": [
        "SK",
        "SS"
],
      "SeriesDescription": "func_task-friends-s05e23d",
      "SeriesNumber": 15,
      "SeriesTime": "181033.990000",
      "SliceLocation": -36.119002923403,
      "SliceThickness": 2.0,
      "SmallestImagePixelValue": 0,
      "SoftwareVersions": "syngo MR E11",
      "SpacingBetweenSlices": 1.9999999950663,
      "SpecificCharacterSet": "ISO_IR 100",
      "StudyID": "1",
      "StudyTime": "172720.563000",
      "TransmitCoilName": "Body",
      "VariableFlipAngleFlag": "N",
      "WindowCenterWidthExplanation": "Algo1",
      "dBdt": 0.0},
    "slices": {}
  },
  "time": {
    "samples": {
      "AcquisitionNumber": [1, 2, 3, 4, 5, 6, 7, 8, 9, 10, 11, 12, 13, 14, 15, 16, 17, 18, 19, 20, 21, 22, 23, 24, 25, 26, 27, 28, 29, 30, 31, 32, 33, 34, 35, 36, 37, 38, 39, 40, 41, 42, 43, 44, 45, 46, 47, 48, 49, 50, 51, 52, 53, 54, 55, 56, 57, 58, 59, 60, 61, 62, 63, 64, 65, 66, 67, 68, 69, 70, 71, 72, 73, 74, 75, 76, 77, 78, 79, 80, 81, 82, 83, 84, 85, 86, 87, 88, 89, 90, 91, 92, 93, 94, 95, 96, 97, 98, 99, 100, 101, 102, 103, 104, 105, 106, 107, 108, 109, 110, 111, 112, 113, 114, 115, 116, 117, 118, 119, 120, 121, 122, 123, 124, 125, 126, 127, 128, 129, 130, 131, 132, 133, 134, 135, 136, 137, 138, 139, 140, 141, 142, 143, 144, 145, 146, 147, 148, 149, 150, 151, 152, 153, 154, 155, 156, 157, 158, 159, 160, 161, 162, 163, 164, 165, 166, 167, 168, 169, 170, 171, 172, 173, 174, 175, 176, 177, 178, 179, 180, 181, 182, 183, 184, 185, 186, 187, 188, 189, 190, 191, 192, 193, 194, 195, 196, 197, 198, 199, 200, 201, 202, 203, 204, 205, 206, 207, 208, 209, 210, 211, 212, 213, 214, 215, 216, 217, 218, 219, 220, 221, 222, 223, 224, 225, 226, 227, 228, 229, 230, 231, 232, 233, 234, 235, 236, 237, 238, 239, 240, 241, 242, 243, 244, 245, 246, 247, 248, 249, 250, 251, 252, 253, 254, 255, 256, 257, 258, 259, 260, 261, 262, 263, 264, 265, 266, 267, 268, 269, 270, 271, 272, 273, 274, 275, 276, 277, 278, 279, 280, 281, 282, 283, 284, 285, 286, 287, 288, 289, 290, 291, 292, 293, 294, 295, 296, 297, 298, 299, 300, 301, 302, 303, 304, 305, 306, 307, 308, 309, 310, 311, 312, 313, 314, 315, 316, 317, 318, 319, 320, 321, 322, 323, 324, 325, 326, 327, 328, 329, 330, 331, 332, 333, 334, 335, 336, 337, 338, 339, 340, 341, 342, 343, 344, 345, 346, 347, 348, 349, 350, 351, 352, 353, 354, 355, 356, 357, 358, 359, 360, 361, 362, 363, 364, 365, 366, 367, 368, 369, 370, 371, 372, 373, 374, 375, 376, 377, 378, 379, 380, 381, 382, 383, 384, 385, 386, 387, 388, 389, 390, 391, 392, 393, 394, 395, 396, 397, 398, 399, 400, 401, 402, 403, 404, 405, 406, 407, 408, 409, 410, 411, 412, 413, 414, 415, 416, 417, 418, 419, 420, 421, 422, 423, 424, 425, 426, 427, 428, 429, 430, 431, 432, 433, 434, 435, 436, 437, 438, 439, 440, 441, 442, 443, 444, 445, 446, 447, 448, 449, 450, 451, 452, 453, 454, 455, 456, 457, 458, 459, 460, 461, 462, 463, 464, 465, 466, 467, 468, 469, 470, 471, 472, 473, 474, 475, 476, 477, 478, 479, 480, 481, 482, 483, 484, 485, 486, 487, 488],
      "AcquisitionTime": ["180940.760000", "180942.250000", "180943.740000", "180945.230000", "180946.720000", "180948.210000", "180949.700000", "180951.190000", "180952.680000", "180954.170000", "180955.660000", "180957.150000", "180958.640000", "181000.130000", "181001.620000", "181003.110000", "181004.600000", "181006.090000", "181007.580000", "181009.070000", "181010.560000", "181012.050000", "181013.540000", "181015.030000", "181016.520000", "181018.010000", "181019.500000", "181020.990000", "181022.480000", "181023.970000", "181025.460000", "181026.950000", "181028.440000", "181029.930000", "181031.420000", "181032.910000", "181034.400000", "181035.890000", "181037.380000", "181038.870000", "181040.360000", "181041.850000", "181043.340000", "181044.830000", "181046.320000", "181047.810000", "181049.300000", "181050.790000", "181052.280000", "181053.770000", "181055.260000", "181056.750000", "181058.240000", "181059.730000", "181101.220000", "181102.710000", "181104.200000", "181105.690000", "181107.180000", "181108.670000", "181110.160000", "181111.650000", "181113.140000", "181114.630000", "181116.120000", "181117.610000", "181119.100000", "181120.590000", "181122.080000", "181123.570000", "181125.060000", "181126.550000", "181128.040000", "181129.530000", "181131.020000", "181132.510000", "181134.000000", "181135.490000", "181136.980000", "181138.470000", "181139.960000", "181141.450000", "181142.940000", "181144.430000", "181145.920000", "181147.410000", "181148.900000", "181150.390000", "181151.880000", "181153.370000", "181154.860000", "181156.350000", "181157.840000", "181159.330000", "181200.820000", "181202.310000", "181203.800000", "181205.290000", "181206.780000", "181208.270000", "181209.760000", "181211.250000", "181212.740000", "181214.230000", "181215.720000", "181217.210000", "181218.700000", "181220.190000", "181221.680000", "181223.170000", "181224.660000", "181226.150000", "181227.640000", "181229.130000", "181230.620000", "181232.110000", "181233.600000", "181235.090000", "181236.580000", "181238.070000", "181239.560000", "181241.050000", "181242.540000", "181244.030000", "181245.520000", "181247.010000", "181248.500000", "181249.990000", "181251.480000", "181252.970000", "181254.460000", "181255.950000", "181257.440000", "181258.930000", "181300.420000", "181301.910000", "181303.400000", "181304.890000", "181306.380000", "181307.870000", "181309.360000", "181310.850000", "181312.340000", "181313.830000", "181315.320000", "181316.810000", "181318.300000", "181319.790000", "181321.280000", "181322.770000", "181324.260000", "181325.750000", "181327.240000", "181328.730000", "181330.220000", "181331.710000", "181333.200000", "181334.690000", "181336.180000", "181337.670000", "181339.160000", "181340.650000", "181342.140000", "181343.630000", "181345.120000", "181346.610000", "181348.100000", "181349.590000", "181351.080000", "181352.570000", "181354.060000", "181355.550000", "181357.040000", "181358.530000", "181400.020000", "181401.510000", "181403.000000", "181404.490000", "181405.980000", "181407.470000", "181408.960000", "181410.450000", "181411.940000", "181413.430000", "181414.920000", "181416.410000", "181417.900000", "181419.390000", "181420.880000", "181422.370000", "181423.860000", "181425.350000", "181426.840000", "181428.330000", "181429.820000", "181431.310000", "181432.800000", "181434.290000", "181435.780000", "181437.270000", "181438.760000", "181440.250000", "181441.740000", "181443.230000", "181444.720000", "181446.210000", "181447.700000", "181449.190000", "181450.680000", "181452.170000", "181453.660000", "181455.150000", "181456.640000", "181458.130000", "181459.620000", "181501.110000", "181502.600000", "181504.090000", "181505.580000", "181507.070000", "181508.560000", "181510.050000", "181511.540000", "181513.030000", "181514.520000", "181516.010000", "181517.500000", "181518.990000", "181520.480000", "181521.970000", "181523.460000", "181524.950000", "181526.440000", "181527.930000", "181529.420000", "181530.910000", "181532.400000", "181533.890000", "181535.380000", "181536.870000", "181538.360000", "181539.850000", "181541.340000", "181542.830000", "181544.320000", "181545.810000", "181547.300000", "181548.790000", "181550.280000", "181551.770000", "181553.260000", "181554.750000", "181556.240000", "181557.730000", "181559.220000", "181600.710000", "181602.200000", "181603.690000", "181605.180000", "181606.670000", "181608.160000", "181609.650000", "181611.140000", "181612.630000", "181614.120000", "181615.610000", "181617.100000", "181618.590000", "181620.080000", "181621.570000", "181623.060000", "181624.550000", "181626.040000", "181627.530000", "181629.020000", "181630.510000", "181632.000000", "181633.490000", "181634.980000", "181636.470000", "181637.960000", "181639.450000", "181640.940000", "181642.430000", "181643.920000", "181645.410000", "181646.900000", "181648.390000", "181649.880000", "181651.370000", "181652.860000", "181654.350000", "181655.840000", "181657.330000", "181658.820000", "181700.310000", "181701.800000", "181703.290000", "181704.780000", "181706.270000", "181707.760000", "181709.250000", "181710.740000", "181712.230000", "181713.720000", "181715.210000", "181716.700000", "181718.190000", "181719.680000", "181721.170000", "181722.660000", "181724.150000", "181725.640000", "181727.130000", "181728.620000", "181730.110000", "181731.600000", "181733.090000", "181734.580000", "181736.070000", "181737.560000", "181739.050000", "181740.540000", "181742.030000", "181743.520000", "181745.010000", "181746.500000", "181747.990000", "181749.480000", "181750.970000", "181752.460000", "181753.950000", "181755.440000", "181756.930000", "181758.420000", "181759.910000", "181801.400000", "181802.890000", "181804.380000", "181805.870000", "181807.360000", "181808.850000", "181810.340000", "181811.830000", "181813.320000", "181814.810000", "181816.300000", "181817.790000", "181819.280000", "181820.770000", "181822.260000", "181823.750000", "181825.240000", "181826.730000", "181828.220000", "181829.710000", "181831.200000", "181832.690000", "181834.180000", "181835.670000", "181837.160000", "181838.650000", "181840.140000", "181841.630000", "181843.120000", "181844.610000", "181846.100000", "181847.590000", "181849.080000", "181850.570000", "181852.060000", "181853.550000", "181855.040000", "181856.530000", "181858.020000", "181859.510000", "181901.000000", "181902.490000", "181903.980000", "181905.470000", "181906.960000", "181908.450000", "181909.940000", "181911.430000", "181912.920000", "181914.410000", "181915.900000", "181917.390000", "181918.880000", "181920.370000", "181921.860000", "181923.350000", "181924.840000", "181926.330000", "181927.820000", "181929.310000", "181930.800000", "181932.290000", "181933.780000", "181935.270000", "181936.760000", "181938.250000", "181939.740000", "181941.230000", "181942.720000", "181944.210000", "181945.700000", "181947.190000", "181948.680000", "181950.170000", "181951.660000", "181953.150000", "181954.640000", "181956.130000", "181957.620000", "181959.110000", "182000.600000", "182002.090000", "182003.580000", "182005.070000", "182006.560000", "182008.050000", "182009.540000", "182011.030000", "182012.520000", "182014.010000", "182015.500000", "182016.990000", "182018.480000", "182019.970000", "182021.460000", "182022.950000", "182024.440000", "182025.930000", "182027.420000", "182028.910000", "182030.400000", "182031.890000", "182033.380000", "182034.870000", "182036.360000", "182037.850000", "182039.340000", "182040.830000", "182042.320000", "182043.810000", "182045.300000", "182046.790000", "182048.280000", "182049.770000", "182051.260000", "182052.750000", "182054.240000", "182055.730000", "182057.220000", "182058.710000", "182100.200000", "182101.690000", "182103.180000", "182104.670000", "182106.160000", "182107.650000", "182109.140000", "182110.630000", "182112.120000", "182113.610000", "182115.100000", "182116.590000", "182118.080000", "182119.570000", "182121.060000", "182122.550000", "182124.040000", "182125.530000", "182127.020000", "182128.510000", "182130.000000", "182131.490000", "182132.980000", "182134.470000", "182135.960000", "182137.450000", "182138.940000", "182140.430000", "182141.920000", "182143.410000", "182144.900000", "182146.390000"],
      "ContentTime": ["181033.993000", "181034.004000", "181034.007000", "181034.010000", "181053.957000", "181053.960000", "181053.963000", "181053.966000", "181053.969000", "181053.971000", "181053.974000", "181053.977000", "181053.980000", "181053.983000", "181053.986000", "181053.988000", "181054.000000", "181054.003000", "181054.005000", "181054.008000", "181054.011000", "181054.014000", "181054.017000", "181054.020000", "181054.023000", "181113.957000", "181113.960000", "181113.963000", "181113.966000", "181113.969000", "181113.971000", "181113.974000", "181113.977000", "181113.980000", "181113.983000", "181113.986000", "181113.988000", "181114.002000", "181114.005000", "181114.008000", "181114.011000", "181114.013000", "181114.016000", "181114.019000", "181114.023000", "181133.957000", "181133.960000", "181133.963000", "181133.966000", "181133.968000", "181133.971000", "181133.974000", "181133.977000", "181133.980000", "181133.983000", "181133.986000", "181133.988000", "181134.000000", "181134.002000", "181134.005000", "181134.008000", "181134.011000", "181134.014000", "181134.017000", "181134.019000", "181153.957000", "181153.960000", "181153.963000", "181153.966000", "181153.969000", "181153.971000", "181153.974000", "181153.977000", "181153.980000", "181153.983000", "181153.986000", "181153.988000", "181153.991000", "181153.994000", "181153.997000", "181154.001000", "181154.004000", "181154.007000", "181154.016000", "181154.019000", "181233.958000", "181233.961000", "181233.964000", "181233.967000", "181233.970000", "181233.972000", "181233.975000", "181233.978000", "181233.981000", "181233.984000", "181233.987000", "181233.990000", "181233.993000", "181233.996000", "181234.000000", "181234.003000", "181234.005000", "181234.008000", "181234.011000", "181234.014000", "181234.017000", "181234.020000", "181234.023000", "181234.025000", "181234.028000", "181234.031000", "181234.034000", "181234.037000", "181234.040000", "181234.043000", "181313.957000", "181313.960000", "181313.963000", "181313.966000", "181313.969000", "181313.971000", "181313.982000", "181313.985000", "181313.988000", "181313.991000", "181313.994000", "181313.997000", "181314.001000", "181314.003000", "181314.006000", "181314.009000", "181314.012000", "181314.015000", "181314.018000", "181314.021000", "181314.023000", "181314.026000", "181314.029000", "181314.032000", "181314.035000", "181314.038000", "181314.041000", "181353.957000", "181353.960000", "181353.963000", "181353.966000", "181353.979000", "181353.982000", "181353.985000", "181353.988000", "181353.991000", "181353.994000", "181353.997000", "181354.000000", "181354.003000", "181354.006000", "181354.009000", "181354.012000", "181354.015000", "181354.018000", "181354.021000", "181354.023000", "181354.026000", "181354.029000", "181354.032000", "181354.035000", "181354.038000", "181354.041000", "181354.044000", "181433.957000", "181433.960000", "181433.963000", "181433.966000", "181433.969000", "181433.971000", "181433.974000", "181433.977000", "181433.980000", "181433.983000", "181433.986000", "181433.989000", "181433.992000", "181433.995000", "181434.006000", "181434.009000", "181434.012000", "181434.015000", "181434.018000", "181434.021000", "181434.024000", "181434.027000", "181434.030000", "181434.032000", "181434.035000", "181434.038000", "181434.041000", "181513.957000", "181513.960000", "181513.963000", "181513.966000", "181513.969000", "181513.972000", "181513.975000", "181513.978000", "181513.981000", "181513.984000", "181513.987000", "181513.989000", "181513.992000", "181513.995000", "181513.998000", "181514.002000", "181514.005000", "181514.008000", "181514.011000", "181514.014000", "181514.017000", "181514.019000", "181514.022000", "181514.025000", "181514.029000", "181514.032000", "181553.957000", "181553.960000", "181553.963000", "181553.966000", "181553.968000", "181553.971000", "181553.974000", "181553.977000", "181553.980000", "181553.983000", "181553.986000", "181553.989000", "181553.992000", "181553.994000", "181553.997000", "181554.001000", "181554.004000", "181554.007000", "181554.010000", "181554.013000", "181554.016000", "181554.019000", "181554.022000", "181554.025000", "181554.027000", "181554.030000", "181554.033000", "181633.957000", "181633.960000", "181633.963000", "181633.966000", "181633.969000", "181633.972000", "181633.975000", "181633.977000", "181633.980000", "181633.983000", "181633.986000", "181633.989000", "181633.992000", "181633.995000", "181633.998000", "181634.001000", "181634.004000", "181634.007000", "181634.010000", "181634.013000", "181634.016000", "181634.019000", "181634.022000", "181634.025000", "181634.027000", "181634.030000", "181634.033000", "181713.958000", "181713.961000", "181713.964000", "181713.967000", "181713.970000", "181713.973000", "181713.985000", "181713.988000", "181713.991000", "181713.994000", "181713.997000", "181714.001000", "181714.004000", "181714.007000", "181714.010000", "181714.012000", "181714.015000", "181714.018000", "181714.021000", "181714.024000", "181714.027000", "181714.030000", "181714.033000", "181714.036000", "181714.039000", "181714.042000", "181714.044000", "181753.957000", "181753.960000", "181753.963000", "181753.966000", "181753.969000", "181753.972000", "181753.974000", "181753.977000", "181753.980000", "181753.983000", "181753.986000", "181753.989000", "181753.992000", "181753.995000", "181753.998000", "181754.001000", "181754.004000", "181754.007000", "181754.010000", "181754.013000", "181754.016000", "181754.019000", "181754.022000", "181754.025000", "181754.027000", "181754.030000", "181754.033000", "181833.957000", "181833.960000", "181833.963000", "181833.966000", "181833.969000", "181833.986000", "181833.989000", "181833.992000", "181833.994000", "181833.997000", "181834.001000", "181834.004000", "181834.007000", "181834.010000", "181834.013000", "181834.016000", "181834.019000", "181834.021000", "181834.024000", "181834.027000", "181834.030000", "181834.033000", "181834.036000", "181834.039000", "181834.042000", "181834.045000", "181834.047000", "181853.957000", "181853.960000", "181853.963000", "181853.966000", "181853.969000", "181853.972000", "181853.974000", "181853.977000", "181853.980000", "181853.983000", "181853.986000", "181853.989000", "181853.993000", "181933.958000", "181933.961000", "181933.964000", "181933.967000", "181933.970000", "181933.973000", "181933.975000", "181933.978000", "181933.981000", "181933.984000", "181933.987000", "181933.990000", "181933.993000", "181933.996000", "181934.000000", "181934.003000", "181934.005000", "181934.008000", "181934.011000", "181934.014000", "181934.017000", "181934.020000", "181934.023000", "181934.026000", "181934.028000", "181934.031000", "181934.034000", "182013.957000", "182013.960000", "182013.963000", "182013.966000", "182013.969000", "182013.971000", "182013.974000", "182013.977000", "182013.980000", "182013.983000", "182013.986000", "182013.989000", "182013.992000", "182013.995000", "182013.998000", "182014.002000", "182014.005000", "182014.008000", "182014.011000", "182014.013000", "182014.016000", "182014.019000", "182014.022000", "182014.025000", "182014.028000", "182014.031000", "182014.034000", "182053.957000", "182053.960000", "182053.963000", "182053.966000", "182053.969000", "182053.972000", "182053.975000", "182053.978000", "182053.980000", "182053.983000", "182053.986000", "182053.989000", "182053.992000", "182053.995000", "182053.998000", "182054.001000", "182054.004000", "182054.006000", "182054.009000", "182054.012000", "182054.015000", "182054.018000", "182054.021000", "182054.024000", "182054.027000", "182054.030000", "182054.032000", "182133.957000", "182133.960000", "182133.963000", "182133.966000", "182133.970000", "182133.973000", "182133.980000", "182133.983000", "182133.986000", "182133.989000", "182133.992000", "182133.995000", "182133.997000", "182134.001000", "182134.004000", "182134.007000", "182134.010000", "182134.013000", "182134.016000", "182134.019000", "182134.022000", "182134.025000", "182134.028000", "182134.031000", "182134.033000", "182134.036000", "182148.935000", "182148.938000", "182148.941000", "182148.944000", "182148.947000", "182148.950000", "182148.953000", "182148.956000", "182148.959000", "182148.962000", "182148.965000"],
