{
  "AcquisitionMatrixPE": 104,
  "AcquisitionNumber": 1,
  "AcquisitionTime": "17:31:23.052500",
  "BandwidthPerPixelPhaseEncode": 17.17,
  "BaseResolution": 104,
  "BodyPartExamined": "BRAIN",
  "CoilCombinationMethod": "Sum of Squares",
  "ConsistencyInfo": "N4_VE11C_LATEST_20160120",
  "ConversionSoftware": "dcm2niix",
  "ConversionSoftwareVersion": "v1.0.20220505",
  "DerivedVendorReportedEchoSpacing": 0.000560011,
  "DeviceSerialNumber": "167006",
  "DwellTime": 2.1e-06,
  "EchoTime": 0.037,
  "EchoTrainLength": 104,
  "EffectiveEchoSpacing": 0.000560011,
  "FlipAngle": 52,
  "HeudiconvVersion": "0.5.3.post811+g6206e14",
  "ImageComments": "Unaliased MB4/PE3/LB",
  "ImageOrientationPatientDICOM": [0.999669, -0.0257417, -0.000379945, 0.0239076, 0.933716, -0.357215],
  "ImageOrientationText": "Tra>Cor(-20.9)>Sag(-0.5)",
  "ImageType": [
    "ORIGINAL",
    "PRIMARY",
    "M",
    "MB",
    "ND",
    "MOSAIC"
],
  "ImagingFrequency": 123.259,
  "InPlanePhaseEncodingDirectionDICOM": "COL",
  "InstitutionAddress": "Chemin Queen-Mary 4565,Montreal,District,CA,H3W 1W5",
  "InstitutionName": "IUGM",
  "InstitutionalDepartmentName": "Department",
  "MRAcquisitionType": "2D",
  "MagneticFieldStrength": 3,
  "Manufacturer": "Siemens",
  "ManufacturersModelName": "Prisma_fit",
  "MatrixCoilMode": "SENSE",
  "Modality": "MR",
  "MultibandAccelerationFactor": 4,
  "PartialFourier": 1,
  "PatientPosition": "HFS",
  "PercentPhaseFOV": 100,
  "PercentSampling": 100,
  "PhaseEncodingDirection": "j",
  "PhaseEncodingSteps": 104,
  "PhaseResolution": 1,
  "PixelBandwidth": 2290,
  "ProcedureStepDescription": "video^friends",
  "ProtocolName": "func_task-friends-s05e23a",
  "PulseSequenceDetails": "%CustomerSeq%\\cmrr_mbep2d_bold",
  "ReceiveCoilActiveElements": "HC1-7;NC1,2",
  "ReceiveCoilName": "HeadNeck_64",
  "ReconMatrixPE": 104,
  "RepetitionTime": 1.49,
  "SAR": 0.0792199,
  "ScanOptions": "FS",
  "ScanningSequence": "EP",
  "SequenceName": "epfid2d1_104",
  "SequenceVariant": "SK\\SS",
  "SeriesDescription": "func_task-friends-s05e23a",
  "SeriesNumber": 9,
  "ShimSetting": [615, -7271, -8834, 419, 21, -376, 4, 19],
  "SliceThickness": 2,
  "SliceTiming": [0, 0.7825, 0.0975, 0.88, 0.195, 0.98, 0.2925, 1.0775, 0.39, 1.175, 0.49, 1.2725, 0.5875, 1.37, 0.685, 0, 0.7825, 0.0975, 0.88, 0.195, 0.98, 0.2925, 1.0775, 0.39, 1.175, 0.49, 1.2725, 0.5875, 1.37, 0.685, 0, 0.7825, 0.0975, 0.88, 0.195, 0.98, 0.2925, 1.0775, 0.39, 1.175, 0.49, 1.2725, 0.5875, 1.37, 0.685, 0, 0.7825, 0.0975, 0.88, 0.195, 0.98, 0.2925, 1.0775, 0.39, 1.175, 0.49, 1.2725, 0.5875, 1.37, 0.685],
  "SoftwareVersions": "syngo MR E11",
  "SpacingBetweenSlices": 2,
  "StationName": "MRC35049",
  "TaskName": "s05e23a",
  "TotalReadoutTime": 0.0576811,
  "TxRefAmp": 295.077,
  "WipMemBlock": "5d0febe2-f303-42f3-adf4-6ee5f892cd3d||Sequence: R017 ve11c/master r/75a17815+; Jun 28 2022 16:32:11 by eja",
  "dcmmeta_affine": [
    [-1.999337077140808, 0.04781528562307358, -0.019100142642855644, 97.0572509765625],
    [0.0514833927154541, 1.8674325942993164, -0.7141743302345276, -74.15618896484375],
    [-0.0007598907104693353, 0.7144292593002319, 1.8680444955825806, -66.02874755859375],
    [0.0, 0.0, 0.0, 1.0]
],
  "dcmmeta_reorient_transform": [
    [0.0, -1.0, 0.0, 103.0],
    [1.0, 0.0, 0.0, 0.0],
    [0.0, 0.0, 1.0, 0.0],
    [0.0, 0.0, 0.0, 1.0]
],
  "dcmmeta_shape": [104, 104, 60, 454],
  "dcmmeta_slice_dim": 2,
  "dcmmeta_version": 0.6,
  "global": {
    "const": {
      "AcquisitionMatrix": [104, 0, 0, 104],
      "AngioFlag": "N",
      "BitsAllocated": 16,
      "BitsStored": 16,
      "BodyPartExamined": "BRAIN",
      "Columns": 832,
      "EchoNumbers": 1,
      "EchoTime": 37.0,
      "EchoTrainLength": 104,
      "FlipAngle": 52.0,
      "HighBit": 15,
      "ImageOrientationPatient": [0.99966855544441, -0.0257416956943, -0.000379945355, 0.02390764289851, 0.9337163008401, -0.357214633178],
      "ImagePositionPatient": [-847.14569668485, -779.19488124691, 267.88631743703],
      "ImageType": [
        "ORIGINAL",
        "PRIMARY",
        "M",
        "MB",
        "ND",
        "MOSAIC"
],
      "ImagedNucleus": "1H",
      "ImagingFrequency": 123.258789,
      "InPlanePhaseEncodingDirection": "COL",
      "MRAcquisitionType": "2D",
      "MagneticFieldStrength": 3.0,
      "Manufacturer": "SIEMENS",
      "ManufacturerModelName": "Prisma_fit",
      "Modality": "MR",
      "NumberOfAverages": 1.0,
      "NumberOfPhaseEncodingSteps": 104,
      "PercentPhaseFieldOfView": 100.0,
      "PercentSampling": 100.0,
      "PerformedProcedureStepStartTime": "172720.628000",
      "PhotometricInterpretation": "MONOCHROME2",
      "PixelBandwidth": 2290.0,
      "PixelRepresentation": 0,
      "PixelSpacing": [2.0, 2.0],
      "ProtocolName": "func_task-friends-s05e23a",
      "RepetitionTime": 1490.0,
      "Rows": 832,
      "SAR": 0.07921988049003,
      "SamplesPerPixel": 1,
      "ScanOptions": "FS",
      "ScanningSequence": "EP",
      "SequenceName": "epfid2d1_104",
      "SequenceVariant": [
        "SK",
        "SS"
],
      "SeriesDescription": "func_task-friends-s05e23a",
      "SeriesNumber": 9,
      "SeriesTime": "173233.987000",
      "SliceLocation": -36.119002923403,
      "SliceThickness": 2.0,
      "SmallestImagePixelValue": 0,
      "SoftwareVersions": "syngo MR E11",
      "SpacingBetweenSlices": 1.9999999950663,
      "SpecificCharacterSet": "ISO_IR 100",
      "StudyID": "1",
      "StudyTime": "172720.563000",
      "TransmitCoilName": "Body",
      "VariableFlipAngleFlag": "N",
      "WindowCenterWidthExplanation": "Algo1",
      "dBdt": 0.0},
    "slices": {}
  },
  "time": {
    "samples": {
      "AcquisitionNumber": [1, 2, 3, 4, 5, 6, 7, 8, 9, 10, 11, 12, 13, 14, 15, 16, 17, 18, 19, 20, 21, 22, 23, 24, 25, 26, 27, 28, 29, 30, 31, 32, 33, 34, 35, 36, 37, 38, 39, 40, 41, 42, 43, 44, 45, 46, 47, 48, 49, 50, 51, 52, 53, 54, 55, 56, 57, 58, 59, 60, 61, 62, 63, 64, 65, 66, 67, 68, 69, 70, 71, 72, 73, 74, 75, 76, 77, 78, 79, 80, 81, 82, 83, 84, 85, 86, 87, 88, 89, 90, 91, 92, 93, 94, 95, 96, 97, 98, 99, 100, 101, 102, 103, 104, 105, 106, 107, 108, 109, 110, 111, 112, 113, 114, 115, 116, 117, 118, 119, 120, 121, 122, 123, 124, 125, 126, 127, 128, 129, 130, 131, 132, 133, 134, 135, 136, 137, 138, 139, 140, 141, 142, 143, 144, 145, 146, 147, 148, 149, 150, 151, 152, 153, 154, 155, 156, 157, 158, 159, 160, 161, 162, 163, 164, 165, 166, 167, 168, 169, 170, 171, 172, 173, 174, 175, 176, 177, 178, 179, 180, 181, 182, 183, 184, 185, 186, 187, 188, 189, 190, 191, 192, 193, 194, 195, 196, 197, 198, 199, 200, 201, 202, 203, 204, 205, 206, 207, 208, 209, 210, 211, 212, 213, 214, 215, 216, 217, 218, 219, 220, 221, 222, 223, 224, 225, 226, 227, 228, 229, 230, 231, 232, 233, 234, 235, 236, 237, 238, 239, 240, 241, 242, 243, 244, 245, 246, 247, 248, 249, 250, 251, 252, 253, 254, 255, 256, 257, 258, 259, 260, 261, 262, 263, 264, 265, 266, 267, 268, 269, 270, 271, 272, 273, 274, 275, 276, 277, 278, 279, 280, 281, 282, 283, 284, 285, 286, 287, 288, 289, 290, 291, 292, 293, 294, 295, 296, 297, 298, 299, 300, 301, 302, 303, 304, 305, 306, 307, 308, 309, 310, 311, 312, 313, 314, 315, 316, 317, 318, 319, 320, 321, 322, 323, 324, 325, 326, 327, 328, 329, 330, 331, 332, 333, 334, 335, 336, 337, 338, 339, 340, 341, 342, 343, 344, 345, 346, 347, 348, 349, 350, 351, 352, 353, 354, 355, 356, 357, 358, 359, 360, 361, 362, 363, 364, 365, 366, 367, 368, 369, 370, 371, 372, 373, 374, 375, 376, 377, 378, 379, 380, 381, 382, 383, 384, 385, 386, 387, 388, 389, 390, 391, 392, 393, 394, 395, 396, 397, 398, 399, 400, 401, 402, 403, 404, 405, 406, 407, 408, 409, 410, 411, 412, 413, 414, 415, 416, 417, 418, 419, 420, 421, 422, 423, 424, 425, 426, 427, 428, 429, 430, 431, 432, 433, 434, 435, 436, 437, 438, 439, 440, 441, 442, 443, 444, 445, 446, 447, 448, 449, 450, 451, 452, 453, 454],
      "AcquisitionTime": ["173123.052500", "173124.542500", "173126.032500", "173127.522500", "173129.012500", "173130.502500", "173131.992500", "173133.482500", "173134.972500", "173136.462500", "173137.952500", "173139.442500", "173140.932500", "173142.422500", "173143.912500", "173145.402500", "173146.892500", "173148.382500", "173149.872500", "173151.362500", "173152.852500", "173154.342500", "173155.832500", "173157.322500", "173158.812500", "173200.302500", "173201.792500", "173203.282500", "173204.772500", "173206.262500", "173207.752500", "173209.242500", "173210.732500", "173212.222500", "173213.712500", "173215.202500", "173216.692500", "173218.182500", "173219.672500", "173221.162500", "173222.652500", "173224.142500", "173225.632500", "173227.122500", "173228.612500", "173230.102500", "173231.592500", "173233.082500", "173234.572500", "173236.062500", "173237.552500", "173239.042500", "173240.532500", "173242.022500", "173243.512500", "173245.002500", "173246.492500", "173247.982500", "173249.472500", "173250.962500", "173252.452500", "173253.942500", "173255.432500", "173256.922500", "173258.412500", "173259.902500", "173301.392500", "173302.882500", "173304.372500", "173305.862500", "173307.352500", "173308.842500", "173310.332500", "173311.822500", "173313.312500", "173314.802500", "173316.292500", "173317.782500", "173319.272500", "173320.762500", "173322.252500", "173323.742500", "173325.232500", "173326.722500", "173328.212500", "173329.702500", "173331.192500", "173332.682500", "173334.172500", "173335.662500", "173337.152500", "173338.642500", "173340.132500", "173341.622500", "173343.112500", "173344.602500", "173346.092500", "173347.582500", "173349.072500", "173350.562500", "173352.052500", "173353.542500", "173355.032500", "173356.522500", "173358.012500", "173359.502500", "173400.992500", "173402.482500", "173403.972500", "173405.462500", "173406.952500", "173408.442500", "173409.932500", "173411.422500", "173412.912500", "173414.402500", "173415.892500", "173417.382500", "173418.872500", "173420.362500", "173421.852500", "173423.342500", "173424.832500", "173426.322500", "173427.812500", "173429.302500", "173430.792500", "173432.282500", "173433.772500", "173435.262500", "173436.752500", "173438.242500", "173439.732500", "173441.222500", "173442.712500", "173444.202500", "173445.692500", "173447.182500", "173448.672500", "173450.162500", "173451.652500", "173453.142500", "173454.632500", "173456.122500", "173457.612500", "173459.102500", "173500.592500", "173502.082500", "173503.572500", "173505.062500", "173506.552500", "173508.042500", "173509.532500", "173511.022500", "173512.512500", "173514.002500", "173515.492500", "173516.982500", "173518.472500", "173519.962500", "173521.452500", "173522.942500", "173524.432500", "173525.922500", "173527.412500", "173528.902500", "173530.392500", "173531.882500", "173533.372500", "173534.862500", "173536.352500", "173537.842500", "173539.332500", "173540.822500", "173542.312500", "173543.802500", "173545.292500", "173546.782500", "173548.272500", "173549.762500", "173551.252500", "173552.742500", "173554.232500", "173555.722500", "173557.212500", "173558.702500", "173600.192500", "173601.682500", "173603.172500", "173604.662500", "173606.152500", "173607.642500", "173609.132500", "173610.622500", "173612.112500", "173613.602500", "173615.092500", "173616.582500", "173618.072500", "173619.562500", "173621.052500", "173622.542500", "173624.032500", "173625.522500", "173627.012500", "173628.502500", "173629.992500", "173631.482500", "173632.972500", "173634.462500", "173635.952500", "173637.442500", "173638.932500", "173640.422500", "173641.912500", "173643.402500", "173644.892500", "173646.382500", "173647.872500", "173649.362500", "173650.852500", "173652.342500", "173653.832500", "173655.322500", "173656.812500", "173658.302500", "173659.792500", "173701.282500", "173702.772500", "173704.262500", "173705.752500", "173707.242500", "173708.732500", "173710.222500", "173711.712500", "173713.202500", "173714.692500", "173716.182500", "173717.672500", "173719.162500", "173720.652500", "173722.142500", "173723.632500", "173725.122500", "173726.612500", "173728.102500", "173729.592500", "173731.082500", "173732.572500", "173734.062500", "173735.552500", "173737.042500", "173738.532500", "173740.022500", "173741.512500", "173743.002500", "173744.492500", "173745.982500", "173747.472500", "173748.962500", "173750.452500", "173751.942500", "173753.432500", "173754.922500", "173756.412500", "173757.902500", "173759.392500", "173800.882500", "173802.372500", "173803.862500", "173805.352500", "173806.842500", "173808.332500", "173809.822500", "173811.312500", "173812.802500", "173814.292500", "173815.782500", "173817.272500", "173818.762500", "173820.252500", "173821.742500", "173823.232500", "173824.722500", "173826.212500", "173827.702500", "173829.192500", "173830.682500", "173832.172500", "173833.662500", "173835.152500", "173836.642500", "173838.132500", "173839.622500", "173841.112500", "173842.602500", "173844.092500", "173845.582500", "173847.072500", "173848.562500", "173850.052500", "173851.542500", "173853.032500", "173854.522500", "173856.012500", "173857.502500", "173858.992500", "173900.482500", "173901.972500", "173903.462500", "173904.952500", "173906.442500", "173907.932500", "173909.422500", "173910.912500", "173912.402500", "173913.892500", "173915.382500", "173916.872500", "173918.362500", "173919.852500", "173921.342500", "173922.832500", "173924.322500", "173925.812500", "173927.302500", "173928.792500", "173930.282500", "173931.772500", "173933.262500", "173934.752500", "173936.242500", "173937.732500", "173939.222500", "173940.712500", "173942.202500", "173943.692500", "173945.182500", "173946.672500", "173948.162500", "173949.652500", "173951.142500", "173952.632500", "173954.122500", "173955.612500", "173957.102500", "173958.592500", "174000.082500", "174001.572500", "174003.062500", "174004.552500", "174006.042500", "174007.532500", "174009.022500", "174010.512500", "174012.002500", "174013.492500", "174014.982500", "174016.472500", "174017.962500", "174019.452500", "174020.942500", "174022.432500", "174023.922500", "174025.412500", "174026.902500", "174028.392500", "174029.882500", "174031.372500", "174032.862500", "174034.352500", "174035.842500", "174037.332500", "174038.822500", "174040.312500", "174041.802500", "174043.292500", "174044.782500", "174046.272500", "174047.762500", "174049.252500", "174050.742500", "174052.232500", "174053.722500", "174055.212500", "174056.702500", "174058.192500", "174059.682500", "174101.172500", "174102.662500", "174104.152500", "174105.642500", "174107.132500", "174108.622500", "174110.112500", "174111.602500", "174113.092500", "174114.582500", "174116.072500", "174117.562500", "174119.052500", "174120.542500", "174122.032500", "174123.522500", "174125.012500", "174126.502500", "174127.992500", "174129.482500", "174130.972500", "174132.462500", "174133.952500", "174135.442500", "174136.932500", "174138.422500", "174139.912500", "174141.402500", "174142.892500", "174144.382500", "174145.872500", "174147.362500", "174148.852500", "174150.342500", "174151.832500", "174153.322500", "174154.812500", "174156.302500", "174157.792500", "174159.282500", "174200.772500", "174202.262500", "174203.752500", "174205.242500", "174206.732500", "174208.222500", "174209.712500", "174211.202500", "174212.692500", "174214.182500", "174215.672500", "174217.162500", "174218.652500", "174220.142500", "174221.632500", "174223.122500", "174224.612500", "174226.102500", "174227.592500", "174229.082500", "174230.572500", "174232.062500", "174233.552500", "174235.042500", "174236.532500", "174238.022500"],
      "ContentTime": ["173233.990000", "173233.993000", "173233.996000", "173234.000000", "173234.003000", "173234.006000", "173234.009000", "173234.012000", "173234.021000", "173234.023000", "173234.026000", "173234.029000", "173234.032000", "173234.035000", "173234.038000", "173234.048000", "173234.051000", "173234.054000", "173234.057000", "173234.060000", "173234.063000", "173234.065000", "173253.957000", "173253.970000", "173253.973000", "173253.976000", "173253.979000", "173253.981000", "173253.984000", "173253.987000", "173253.990000", "173253.993000", "173253.996000", "173254.000000", "173254.003000", "173254.006000", "173254.017000", "173254.020000", "173254.022000", "173254.025000", "173254.028000", "173254.031000", "173313.958000", "173313.961000", "173313.964000", "173313.967000", "173313.978000", "173313.981000", "173313.984000", "173313.988000", "173313.991000", "173313.994000", "173313.997000", "173314.001000", "173314.004000", "173314.007000", "173314.010000", "173314.012000", "173314.015000", "173314.018000", "173314.021000", "173314.024000", "173333.957000", "173333.960000", "173333.963000", "173333.966000", "173333.968000", "173333.971000", "173333.974000", "173333.977000", "173333.980000", "173333.983000", "173333.985000", "173333.988000", "173333.991000", "173333.994000", "173333.997000", "173334.001000", "173334.004000", "173334.007000", "173334.009000", "173334.012000", "173413.957000", "173413.960000", "173413.963000", "173413.966000", "173413.969000", "173413.972000", "173413.975000", "173413.978000", "173413.981000", "173413.983000", "173414.000000", "173414.003000", "173414.006000", "173414.008000", "173414.011000", "173414.014000", "173414.017000", "173414.020000", "173414.023000", "173414.025000", "173414.037000", "173414.040000", "173414.043000", "173414.045000", "173414.048000", "173414.051000", "173414.054000", "173414.057000", "173414.060000", "173414.063000", "173414.066000", "173414.069000", "173453.957000", "173453.960000", "173453.963000", "173453.966000", "173453.968000", "173453.971000", "173453.974000", "173453.977000", "173453.980000", "173453.983000", "173453.986000", "173453.988000", "173453.991000", "173453.994000", "173453.997000", "173454.002000", "173454.004000", "173454.007000", "173454.010000", "173454.013000", "173454.016000", "173454.019000", "173454.022000", "173454.025000", "173454.028000", "173454.031000", "173454.033000", "173533.958000", "173533.961000", "173533.964000", "173533.967000", "173533.970000", "173533.973000", "173533.975000", "173533.978000", "173533.981000", "173533.984000", "173533.987000", "173533.990000", "173533.993000", "173533.996000", "173533.998000", "173534.002000", "173534.005000", "173534.008000", "173534.011000", "173534.014000", "173534.017000", "173534.019000", "173534.022000", "173534.025000", "173534.028000", "173534.031000", "173613.957000", "173613.960000", "173613.963000", "173613.966000", "173613.969000", "173613.972000", "173613.975000", "173613.978000", "173613.981000", "173613.984000", "173613.987000", "173613.990000", "173613.993000", "173613.996000", "173614.000000", "173614.003000", "173614.005000", "173614.008000", "173614.011000", "173614.014000", "173614.017000", "173614.020000", "173614.023000", "173614.026000", "173614.028000", "173614.031000", "173614.034000", "173653.957000", "173653.960000", "173653.963000", "173653.966000", "173653.969000", "173653.971000", "173653.974000", "173653.977000", "173653.980000", "173653.988000", "173653.991000", "173653.993000", "173653.996000", "173654.005000", "173654.008000", "173654.010000", "173654.013000", "173654.016000", "173654.019000", "173654.022000", "173654.025000", "173654.028000", "173654.031000", "173654.034000", "173654.036000", "173654.039000", "173654.042000", "173733.957000", "173733.960000", "173733.963000", "173733.966000", "173733.969000", "173733.972000", "173733.974000", "173733.977000", "173733.980000", "173733.983000", "173733.986000", "173733.989000", "173733.992000", "173733.995000", "173733.997000", "173734.001000", "173734.004000", "173734.007000", "173734.010000", "173734.013000", "173734.016000", "173734.019000", "173734.021000", "173734.024000", "173734.027000", "173734.030000", "173734.033000", "173813.957000", "173813.960000", "173813.963000", "173813.966000", "173813.969000", "173813.972000", "173813.985000", "173813.987000", "173813.990000", "173813.993000", "173813.996000", "173814.000000", "173814.003000", "173814.006000", "173814.009000", "173814.011000", "173814.014000", "173814.017000", "173814.020000", "173814.023000", "173814.026000", "173814.029000", "173814.032000", "173814.034000", "173814.037000", "173814.040000", "173814.043000", "173853.957000", "173853.960000", "173853.963000", "173853.966000", "173853.969000", "173853.972000", "173853.975000", "173853.978000", "173853.980000", "173853.983000", "173853.986000", "173853.989000", "173853.992000", "173853.995000", "173853.998000", "173854.002000", "173854.005000", "173854.008000", "173854.011000", "173854.014000", "173854.017000", "173854.020000", "173854.023000", "173854.026000", "173854.029000", "173854.032000", "173854.035000", "173933.957000", "173933.960000", "173933.963000", "173933.966000", "173933.969000", "173933.972000", "173933.975000", "173933.977000", "173933.980000", "173933.983000", "173933.986000", "173933.989000", "173933.992000", "173933.995000", "173934.007000", "173934.010000", "173934.013000", "173934.016000", "173934.019000", "173934.022000", "173934.025000", "173934.028000", "173934.030000", "173934.033000", "173934.037000", "173934.039000", "174013.958000", "174013.961000", "174013.964000", "174013.967000", "174013.970000", "174013.973000", "174013.975000", "174013.978000", "174013.981000", "174013.984000", "174013.987000", "174013.990000", "174013.993000", "174013.996000", "174013.998000", "174014.002000", "174014.005000", "174014.008000", "174014.011000", "174014.014000", "174014.017000", "174014.020000", "174014.022000", "174014.025000", "174014.028000", "174014.031000", "174014.034000", "174053.957000", "174053.960000", "174053.963000", "174053.966000", "174053.969000", "174053.972000", "174053.975000", "174053.977000", "174053.980000", "174053.983000", "174053.986000", "174053.989000", "174053.992000", "174053.994000", "174053.997000", "174054.001000", "174054.004000", "174054.007000", "174054.010000", "174054.013000", "174054.016000", "174054.019000", "174054.021000", "174054.024000", "174054.027000", "174054.030000", "174054.033000", "174133.957000", "174133.960000", "174133.963000", "174133.966000", "174133.969000", "174133.972000", "174133.975000", "174133.977000", "174133.980000", "174133.983000", "174133.986000", "174133.989000", "174133.992000", "174133.995000", "174133.998000", "174134.002000", "174134.004000", "174134.007000", "174134.010000", "174134.013000", "174134.016000", "174134.019000", "174134.022000", "174134.025000", "174134.028000", "174134.030000", "174134.033000", "174213.957000", "174213.960000", "174213.963000", "174213.966000", "174213.969000", "174213.972000", "174213.975000", "174213.978000", "174213.980000", "174213.983000", "174213.986000", "174213.989000", "174213.992000", "174213.995000", "174213.998000", "174214.002000", "174214.004000", "174214.007000", "174214.010000", "174214.013000", "174214.026000", "174214.029000", "174214.032000", "174214.035000", "174214.038000", "174214.041000", "174214.044000", "174240.366000", "174240.369000", "174240.372000", "174240.375000", "174240.378000", "174240.381000", "174240.384000", "174240.387000", "174240.389000", "174240.392000", "174240.395000", "174240.398000", "174240.401000", "174240.404000", "174240.407000", "174240.410000", "174240.413000", "174240.415000"],
