{
  "AcquisitionMatrixPE": 104,
  "AcquisitionNumber": 1,
  "AcquisitionTime": "16:37:14.755000",
  "BandwidthPerPixelPhaseEncode": 17.17,
  "BaseResolution": 104,
  "BodyPartExamined": "BRAIN",
  "CoilCombinationMethod": "Sum of Squares",
  "ConsistencyInfo": "N4_VE11C_LATEST_20160120",
  "ConversionSoftware": "dcm2niix",
  "ConversionSoftwareVersion": "v1.0.20230411",
  "DerivedVendorReportedEchoSpacing": 0.000560011,
  "DeviceSerialNumber": "167006",
  "DwellTime": 2.1e-06,
  "EchoTime": 0.037,
  "EchoTrainLength": 104,
  "EffectiveEchoSpacing": 0.000560011,
  "FlipAngle": 52,
  "HeudiconvVersion": "0.5.3.post861+ge7d3c7f",
  "ImageComments": "Unaliased MB4/PE3/LB",
  "ImageOrientationPatientDICOM": [0.999193, -0.00254637, 0.0400898, 0.0245942, 0.827857, -0.5604],
  "ImageOrientationText": "Tra>Cor(-34.1)>Sag(1.8)",
  "ImageType": [
    "ORIGINAL",
    "PRIMARY",
    "M",
    "MB",
    "ND",
    "MOSAIC"
],
  "ImagingFrequency": 123.249768,
  "InPlanePhaseEncodingDirectionDICOM": "COL",
  "InstitutionAddress": "Chemin Queen-Mary 4565,Montreal,District,CA,H3W 1W5",
  "InstitutionName": "IUGM",
  "InstitutionalDepartmentName": "Department",
  "MRAcquisitionType": "2D",
  "MagneticFieldStrength": 3,
  "Manufacturer": "Siemens",
  "ManufacturersModelName": "Prisma_fit",
  "MatrixCoilMode": "SENSE",
  "Modality": "MR",
  "MultibandAccelerationFactor": 4,
  "NonlinearGradientCorrection": false,
  "PartialFourier": 1,
  "PatientPosition": "HFS",
  "PercentPhaseFOV": 100,
  "PercentSampling": 100,
  "PhaseEncodingDirection": "j",
  "PhaseEncodingSteps": 104,
  "PhaseResolution": 1,
  "PixelBandwidth": 2290,
  "ProcedureStepDescription": "video^friends",
  "ProtocolName": "func_task-friends-s07e08a",
  "PulseSequenceDetails": "%CustomerSeq%\\cmrr_mbep2d_bold",
  "ReceiveCoilActiveElements": "HC1-7;NC1,2",
  "ReceiveCoilName": "HeadNeck_64",
  "ReconMatrixPE": 104,
  "RepetitionTime": 1.49,
  "SAR": 0.0505584,
  "ScanOptions": "FS",
  "ScanningSequence": "EP",
  "SequenceName": "epfid2d1_104",
  "SequenceVariant": "SK\\SS",
  "SeriesDescription": "func_task-friends-s07e08a",
  "SeriesNumber": 14,
  "ShimSetting": [608, -7209, -8863, 279, 20, -213, -140, 96],
  "SliceThickness": 2,
  "SliceTiming": [0, 0.785, 0.1, 0.8825, 0.1975, 0.98, 0.295, 1.08, 0.3925, 1.1775, 0.49, 1.275, 0.59, 1.3725, 0.6875, 0, 0.785, 0.1, 0.8825, 0.1975, 0.98, 0.295, 1.08, 0.3925, 1.1775, 0.49, 1.275, 0.59, 1.3725, 0.6875, 0, 0.785, 0.1, 0.8825, 0.1975, 0.98, 0.295, 1.08, 0.3925, 1.1775, 0.49, 1.275, 0.59, 1.3725, 0.6875, 0, 0.785, 0.1, 0.8825, 0.1975, 0.98, 0.295, 1.08, 0.3925, 1.1775, 0.49, 1.275, 0.59, 1.3725, 0.6875],
  "SoftwareVersions": "syngo MR E11",
  "SpacingBetweenSlices": 2,
  "StationName": "MRC35049",
  "TaskName": "s07e08a",
  "TotalReadoutTime": 0.0576811,
  "TxRefAmp": 263.354,
  "WipMemBlock": "eec15873-b886-4cfa-b488-0deb89533ff5||Sequence: R017 ve11c/master r/75a17815+; Jun 28 2022 16:32:11 by eja",
  "dcmmeta_affine": [
    [-1.9983856678009033, 0.04918844625353813, 0.06352334469556808, 99.63350677490234],
    [0.0050927335396409035, 1.6557139158248901, -1.121867060661316, -52.711151123046875],
    [0.08017969131469727, 1.1207997798919678, 1.6545026302337646, -105.43795776367188],
    [0.0, 0.0, 0.0, 1.0]
],
  "dcmmeta_reorient_transform": [
    [0.0, -1.0, 0.0, 103.0],
    [1.0, 0.0, 0.0, 0.0],
    [0.0, 0.0, 1.0, 0.0],
    [0.0, 0.0, 0.0, 1.0]
],
  "dcmmeta_shape": [104, 104, 60, 474],
  "dcmmeta_slice_dim": 2,
  "dcmmeta_version": 0.6,
  "global": {
    "const": {
      "AcquisitionMatrix": [104, 0, 0, 104],
      "AngioFlag": "N",
      "BitsAllocated": 16,
      "BitsStored": 16,
      "BodyPartExamined": "BRAIN",
      "Columns": 832,
      "EchoNumbers": 1,
      "EchoTime": 37.0,
      "EchoTrainLength": 104,
      "FlipAngle": 52.0,
      "HighBit": 15,
      "ImageOrientationPatient": [0.99919283438917, -0.0025463668767, 0.04008984561031, 0.02459422344263, 0.8278569366882, -0.5603998720115],
      "ImagePositionPatient": [-850.01689441388, -718.65347121631, 388.79011191817],
      "ImageType": [
        "ORIGINAL",
        "PRIMARY",
        "M",
        "MB",
        "ND",
        "MOSAIC"
],
      "ImagedNucleus": "1H",
      "ImagingFrequency": 123.249768,
      "InPlanePhaseEncodingDirection": "COL",
      "MRAcquisitionType": "2D",
      "MagneticFieldStrength": 3.0,
      "Manufacturer": "SIEMENS",
      "ManufacturerModelName": "Prisma_fit",
      "Modality": "MR",
      "NumberOfAverages": 1.0,
      "NumberOfPhaseEncodingSteps": 104,
      "PercentPhaseFieldOfView": 100.0,
      "PercentSampling": 100.0,
      "PerformedProcedureStepStartTime": "160357.159000",
      "PhotometricInterpretation": "MONOCHROME2",
      "PixelBandwidth": 2290.0,
      "PixelRepresentation": 0,
      "PixelSpacing": [2.0, 2.0],
      "ProtocolName": "func_task-friends-s07e08a",
      "RepetitionTime": 1490.0,
      "Rows": 832,
      "SAR": 0.05055842604958,
      "SamplesPerPixel": 1,
      "ScanOptions": "FS",
      "ScanningSequence": "EP",
      "SequenceName": "epfid2d1_104",
      "SequenceVariant": [
        "SK",
        "SS"
],
      "SeriesDescription": "func_task-friends-s07e08a",
      "SeriesNumber": 14,
      "SeriesTime": "163839.521000",
      "SliceLocation": -54.491716042382,
      "SliceThickness": 2.0,
      "SmallestImagePixelValue": 0,
      "SoftwareVersions": "syngo MR E11",
      "SpacingBetweenSlices": 1.9999999705319,
      "SpecificCharacterSet": "ISO_IR 100",
      "StudyID": "1",
      "StudyTime": "160357.068000",
      "TransmitCoilName": "Body",
      "VariableFlipAngleFlag": "N",
      "WindowCenterWidthExplanation": "Algo1",
      "dBdt": 0.0},
    "slices": {}
  },
  "time": {
    "samples": {
      "AcquisitionNumber": [1, 2, 3, 4, 5, 6, 7, 8, 9, 10, 11, 12, 13, 14, 15, 16, 17, 18, 19, 20, 21, 22, 23, 24, 25, 26, 27, 28, 29, 30, 31, 32, 33, 34, 35, 36, 37, 38, 39, 40, 41, 42, 43, 44, 45, 46, 47, 48, 49, 50, 51, 52, 53, 54, 55, 56, 57, 58, 59, 60, 61, 62, 63, 64, 65, 66, 67, 68, 69, 70, 71, 72, 73, 74, 75, 76, 77, 78, 79, 80, 81, 82, 83, 84, 85, 86, 87, 88, 89, 90, 91, 92, 93, 94, 95, 96, 97, 98, 99, 100, 101, 102, 103, 104, 105, 106, 107, 108, 109, 110, 111, 112, 113, 114, 115, 116, 117, 118, 119, 120, 121, 122, 123, 124, 125, 126, 127, 128, 129, 130, 131, 132, 133, 134, 135, 136, 137, 138, 139, 140, 141, 142, 143, 144, 145, 146, 147, 148, 149, 150, 151, 152, 153, 154, 155, 156, 157, 158, 159, 160, 161, 162, 163, 164, 165, 166, 167, 168, 169, 170, 171, 172, 173, 174, 175, 176, 177, 178, 179, 180, 181, 182, 183, 184, 185, 186, 187, 188, 189, 190, 191, 192, 193, 194, 195, 196, 197, 198, 199, 200, 201, 202, 203, 204, 205, 206, 207, 208, 209, 210, 211, 212, 213, 214, 215, 216, 217, 218, 219, 220, 221, 222, 223, 224, 225, 226, 227, 228, 229, 230, 231, 232, 233, 234, 235, 236, 237, 238, 239, 240, 241, 242, 243, 244, 245, 246, 247, 248, 249, 250, 251, 252, 253, 254, 255, 256, 257, 258, 259, 260, 261, 262, 263, 264, 265, 266, 267, 268, 269, 270, 271, 272, 273, 274, 275, 276, 277, 278, 279, 280, 281, 282, 283, 284, 285, 286, 287, 288, 289, 290, 291, 292, 293, 294, 295, 296, 297, 298, 299, 300, 301, 302, 303, 304, 305, 306, 307, 308, 309, 310, 311, 312, 313, 314, 315, 316, 317, 318, 319, 320, 321, 322, 323, 324, 325, 326, 327, 328, 329, 330, 331, 332, 333, 334, 335, 336, 337, 338, 339, 340, 341, 342, 343, 344, 345, 346, 347, 348, 349, 350, 351, 352, 353, 354, 355, 356, 357, 358, 359, 360, 361, 362, 363, 364, 365, 366, 367, 368, 369, 370, 371, 372, 373, 374, 375, 376, 377, 378, 379, 380, 381, 382, 383, 384, 385, 386, 387, 388, 389, 390, 391, 392, 393, 394, 395, 396, 397, 398, 399, 400, 401, 402, 403, 404, 405, 406, 407, 408, 409, 410, 411, 412, 413, 414, 415, 416, 417, 418, 419, 420, 421, 422, 423, 424, 425, 426, 427, 428, 429, 430, 431, 432, 433, 434, 435, 436, 437, 438, 439, 440, 441, 442, 443, 444, 445, 446, 447, 448, 449, 450, 451, 452, 453, 454, 455, 456, 457, 458, 459, 460, 461, 462, 463, 464, 465, 466, 467, 468, 469, 470, 471, 472, 473, 474],
      "AcquisitionTime": ["163714.755000", "163716.245000", "163717.735000", "163719.225000", "163720.715000", "163722.205000", "163723.695000", "163725.185000", "163726.675000", "163728.165000", "163729.655000", "163731.145000", "163732.635000", "163734.125000", "163735.615000", "163737.105000", "163738.595000", "163740.085000", "163741.575000", "163743.065000", "163744.555000", "163746.045000", "163747.535000", "163749.025000", "163750.515000", "163752.005000", "163753.495000", "163754.985000", "163756.475000", "163757.965000", "163759.455000", "163800.945000", "163802.435000", "163803.925000", "163805.415000", "163806.905000", "163808.395000", "163809.885000", "163811.375000", "163812.865000", "163814.355000", "163815.845000", "163817.335000", "163818.825000", "163820.315000", "163821.805000", "163823.295000", "163824.785000", "163826.275000", "163827.765000", "163829.255000", "163830.745000", "163832.235000", "163833.725000", "163835.215000", "163836.705000", "163838.195000", "163839.685000", "163841.175000", "163842.665000", "163844.155000", "163845.645000", "163847.135000", "163848.625000", "163850.115000", "163851.605000", "163853.095000", "163854.585000", "163856.075000", "163857.565000", "163859.055000", "163900.545000", "163902.035000", "163903.525000", "163905.015000", "163906.505000", "163907.995000", "163909.485000", "163910.975000", "163912.465000", "163913.955000", "163915.445000", "163916.935000", "163918.425000", "163919.915000", "163921.405000", "163922.895000", "163924.385000", "163925.875000", "163927.365000", "163928.855000", "163930.345000", "163931.835000", "163933.325000", "163934.815000", "163936.305000", "163937.795000", "163939.285000", "163940.775000", "163942.265000", "163943.755000", "163945.245000", "163946.735000", "163948.225000", "163949.715000", "163951.205000", "163952.695000", "163954.185000", "163955.675000", "163957.165000", "163958.655000", "164000.145000", "164001.635000", "164003.125000", "164004.615000", "164006.105000", "164007.595000", "164009.085000", "164010.575000", "164012.065000", "164013.555000", "164015.045000", "164016.535000", "164018.025000", "164019.515000", "164021.005000", "164022.495000", "164023.985000", "164025.475000", "164026.965000", "164028.455000", "164029.945000", "164031.435000", "164032.925000", "164034.415000", "164035.905000", "164037.395000", "164038.885000", "164040.375000", "164041.865000", "164043.355000", "164044.845000", "164046.335000", "164047.825000", "164049.315000", "164050.805000", "164052.295000", "164053.785000", "164055.275000", "164056.765000", "164058.255000", "164059.745000", "164101.235000", "164102.725000", "164104.215000", "164105.705000", "164107.195000", "164108.685000", "164110.175000", "164111.665000", "164113.155000", "164114.645000", "164116.135000", "164117.625000", "164119.115000", "164120.605000", "164122.095000", "164123.585000", "164125.075000", "164126.565000", "164128.055000", "164129.545000", "164131.035000", "164132.525000", "164134.015000", "164135.505000", "164136.995000", "164138.485000", "164139.975000", "164141.465000", "164142.955000", "164144.445000", "164145.935000", "164147.425000", "164148.915000", "164150.405000", "164151.895000", "164153.385000", "164154.875000", "164156.365000", "164157.855000", "164159.345000", "164200.835000", "164202.325000", "164203.815000", "164205.305000", "164206.795000", "164208.285000", "164209.775000", "164211.265000", "164212.755000", "164214.245000", "164215.735000", "164217.225000", "164218.715000", "164220.205000", "164221.695000", "164223.185000", "164224.675000", "164226.165000", "164227.655000", "164229.145000", "164230.635000", "164232.125000", "164233.615000", "164235.105000", "164236.595000", "164238.085000", "164239.575000", "164241.065000", "164242.555000", "164244.045000", "164245.535000", "164247.025000", "164248.515000", "164250.005000", "164251.495000", "164252.985000", "164254.475000", "164255.965000", "164257.455000", "164258.945000", "164300.435000", "164301.925000", "164303.415000", "164304.905000", "164306.395000", "164307.885000", "164309.375000", "164310.865000", "164312.355000", "164313.845000", "164315.335000", "164316.825000", "164318.315000", "164319.805000", "164321.295000", "164322.785000", "164324.275000", "164325.765000", "164327.255000", "164328.745000", "164330.235000", "164331.725000", "164333.215000", "164334.705000", "164336.195000", "164337.685000", "164339.175000", "164340.665000", "164342.155000", "164343.645000", "164345.135000", "164346.625000", "164348.115000", "164349.605000", "164351.095000", "164352.585000", "164354.075000", "164355.565000", "164357.055000", "164358.545000", "164400.035000", "164401.525000", "164403.015000", "164404.505000", "164405.995000", "164407.485000", "164408.975000", "164410.465000", "164411.955000", "164413.445000", "164414.935000", "164416.425000", "164417.915000", "164419.405000", "164420.895000", "164422.385000", "164423.875000", "164425.365000", "164426.855000", "164428.345000", "164429.835000", "164431.325000", "164432.815000", "164434.305000", "164435.795000", "164437.285000", "164438.775000", "164440.265000", "164441.755000", "164443.245000", "164444.735000", "164446.225000", "164447.715000", "164449.205000", "164450.695000", "164452.185000", "164453.675000", "164455.165000", "164456.655000", "164458.145000", "164459.635000", "164501.125000", "164502.615000", "164504.105000", "164505.595000", "164507.085000", "164508.575000", "164510.065000", "164511.555000", "164513.045000", "164514.535000", "164516.025000", "164517.515000", "164519.005000", "164520.495000", "164521.985000", "164523.475000", "164524.965000", "164526.455000", "164527.945000", "164529.435000", "164530.925000", "164532.415000", "164533.905000", "164535.395000", "164536.885000", "164538.375000", "164539.865000", "164541.355000", "164542.845000", "164544.335000", "164545.825000", "164547.315000", "164548.805000", "164550.295000", "164551.785000", "164553.275000", "164554.765000", "164556.255000", "164557.745000", "164559.235000", "164600.725000", "164602.215000", "164603.705000", "164605.195000", "164606.685000", "164608.175000", "164609.665000", "164611.155000", "164612.645000", "164614.135000", "164615.625000", "164617.115000", "164618.605000", "164620.095000", "164621.585000", "164623.075000", "164624.565000", "164626.055000", "164627.545000", "164629.035000", "164630.525000", "164632.015000", "164633.505000", "164634.995000", "164636.485000", "164637.975000", "164639.465000", "164640.955000", "164642.445000", "164643.935000", "164645.425000", "164646.915000", "164648.405000", "164649.895000", "164651.385000", "164652.875000", "164654.365000", "164655.855000", "164657.345000", "164658.835000", "164700.325000", "164701.815000", "164703.305000", "164704.795000", "164706.285000", "164707.775000", "164709.265000", "164710.755000", "164712.245000", "164713.735000", "164715.225000", "164716.715000", "164718.205000", "164719.695000", "164721.185000", "164722.675000", "164724.165000", "164725.655000", "164727.145000", "164728.635000", "164730.125000", "164731.615000", "164733.105000", "164734.595000", "164736.085000", "164737.575000", "164739.065000", "164740.555000", "164742.045000", "164743.535000", "164745.025000", "164746.515000", "164748.005000", "164749.495000", "164750.985000", "164752.475000", "164753.965000", "164755.455000", "164756.945000", "164758.435000", "164759.925000", "164801.415000", "164802.905000", "164804.395000", "164805.885000", "164807.375000", "164808.865000", "164810.355000", "164811.845000", "164813.335000", "164814.825000", "164816.315000", "164817.805000", "164819.295000", "164820.785000", "164822.275000", "164823.765000", "164825.255000", "164826.745000", "164828.235000", "164829.725000", "164831.215000", "164832.705000", "164834.195000", "164835.685000", "164837.175000", "164838.665000", "164840.155000", "164841.645000", "164843.135000", "164844.625000", "164846.115000", "164847.605000", "164849.095000", "164850.585000", "164852.075000", "164853.565000", "164855.055000", "164856.545000", "164858.035000", "164859.525000"],
      "ContentTime": ["163839.524000", "163839.528000", "163839.537000", "163839.539000", "163839.542000", "163839.546000", "163839.549000", "163839.551000", "163839.554000", "163839.557000", "163839.560000", "163839.563000", "163839.566000", "163839.569000", "163839.572000", "163839.575000", "163839.578000", "163839.582000", "163839.585000", "163839.588000", "163839.591000", "163839.594000", "163839.597000", "163839.600000", "163839.603000", "163839.606000", "163839.609000", "163839.612000", "163839.615000", "163839.621000", "163839.624000", "163839.627000", "163839.630000", "163839.633000", "163839.636000", "163839.639000", "163839.641000", "163859.499000", "163859.502000", "163859.505000", "163859.508000", "163859.511000", "163859.514000", "163859.517000", "163859.520000", "163859.523000", "163859.526000", "163859.529000", "163859.532000", "163859.535000", "163859.538000", "163859.541000", "163859.544000", "163859.547000", "163859.550000", "163859.553000", "163859.556000", "163919.499000", "163919.502000", "163919.505000", "163919.508000", "163919.511000", "163919.514000", "163919.517000", "163919.520000", "163919.523000", "163919.526000", "163919.529000", "163919.532000", "163919.535000", "163919.538000", "163919.541000", "163919.544000", "163919.547000", "163919.550000", "163919.553000", "163919.556000", "163959.498000", "163959.501000", "163959.504000", "163959.507000", "163959.510000", "163959.513000", "163959.516000", "163959.519000", "163959.522000", "163959.525000", "163959.528000", "163959.531000", "163959.534000", "163959.537000", "163959.540000", "163959.543000", "163959.546000", "163959.549000", "163959.552000", "163959.564000", "163959.567000", "163959.570000", "163959.573000", "163959.576000", "163959.579000", "163959.583000", "163959.586000", "163959.589000", "163959.592000", "163959.595000", "163959.598000", "163959.601000", "163959.604000", "164039.498000", "164039.501000", "164039.504000", "164039.507000", "164039.510000", "164039.513000", "164039.537000", "164039.540000", "164039.543000", "164039.546000", "164039.549000", "164039.552000", "164039.555000", "164039.558000", "164039.561000", "164039.564000", "164039.567000", "164039.570000", "164039.573000", "164039.576000", "164039.579000", "164039.582000", "164039.585000", "164039.588000", "164039.591000", "164039.594000", "164039.598000", "164119.499000", "164119.502000", "164119.505000", "164119.508000", "164119.511000", "164119.514000", "164119.517000", "164119.520000", "164119.523000", "164119.526000", "164119.529000", "164119.532000", "164119.535000", "164119.546000", "164119.549000", "164119.552000", "164119.555000", "164119.558000", "164119.561000", "164119.564000", "164119.567000", "164119.570000", "164119.573000", "164119.576000", "164119.579000", "164119.582000", "164119.585000", "164159.498000", "164159.501000", "164159.504000", "164159.507000", "164159.510000", "164159.513000", "164159.516000", "164159.519000", "164159.522000", "164159.525000", "164159.528000", "164159.531000", "164159.535000", "164159.538000", "164159.542000", "164159.545000", "164159.547000", "164159.550000", "164159.554000", "164159.556000", "164159.560000", "164159.562000", "164159.566000", "164159.569000", "164159.572000", "164159.574000", "164239.498000", "164239.501000", "164239.504000", "164239.507000", "164239.510000", "164239.513000", "164239.516000", "164239.519000", "164239.522000", "164239.525000", "164239.528000", "164239.531000", "164239.534000", "164239.537000", "164239.548000", "164239.550000", "164239.553000", "164239.556000", "164239.560000", "164239.563000", "164239.566000", "164239.568000", "164239.572000", "164239.574000", "164239.577000", "164239.580000", "164239.583000", "164319.499000", "164319.502000", "164319.505000", "164319.508000", "164319.511000", "164319.514000", "164319.517000", "164319.520000", "164319.523000", "164319.526000", "164319.529000", "164319.532000", "164319.535000", "164319.538000", "164319.541000", "164319.544000", "164319.547000", "164319.550000", "164319.553000", "164319.556000", "164319.559000", "164319.563000", "164319.566000", "164319.569000", "164319.572000", "164319.575000", "164319.578000", "164359.499000", "164359.502000", "164359.505000", "164359.508000", "164359.511000", "164359.514000", "164359.517000", "164359.520000", "164359.523000", "164359.526000", "164359.529000", "164359.532000", "164359.535000", "164359.538000", "164359.541000", "164359.544000", "164359.548000", "164359.550000", "164359.553000", "164359.556000", "164359.560000", "164359.563000", "164359.565000", "164359.568000", "164359.572000", "164359.574000", "164359.577000", "164419.498000", "164419.501000", "164419.504000", "164419.507000", "164419.510000", "164419.513000", "164419.516000", "164419.519000", "164419.522000", "164419.525000", "164419.528000", "164419.531000", "164419.534000", "164459.498000", "164459.501000", "164459.504000", "164459.525000", "164459.528000", "164459.531000", "164459.534000", "164459.537000", "164459.540000", "164459.543000", "164459.546000", "164459.549000", "164459.552000", "164459.555000", "164459.558000", "164459.561000", "164459.564000", "164459.567000", "164459.570000", "164459.573000", "164459.576000", "164459.579000", "164459.582000", "164459.585000", "164459.588000", "164459.591000", "164459.594000", "164539.499000", "164539.502000", "164539.505000", "164539.508000", "164539.511000", "164539.514000", "164539.517000", "164539.521000", "164539.523000", "164539.526000", "164539.529000", "164539.532000", "164539.535000", "164539.538000", "164539.541000", "164539.544000", "164539.547000", "164539.550000", "164539.553000", "164539.556000", "164539.559000", "164539.562000", "164539.565000", "164539.568000", "164539.571000", "164539.574000", "164539.577000", "164619.499000", "164619.502000", "164619.505000", "164619.508000", "164619.511000", "164619.514000", "164619.518000", "164619.521000", "164619.524000", "164619.526000", "164619.530000", "164619.533000", "164619.535000", "164619.538000", "164619.542000", "164619.545000", "164619.547000", "164619.556000", "164619.566000", "164619.569000", "164619.572000", "164619.575000", "164619.578000", "164619.581000", "164619.584000", "164619.587000", "164619.590000", "164659.498000", "164659.501000", "164659.504000", "164659.507000", "164659.510000", "164659.513000", "164659.516000", "164659.519000", "164659.522000", "164659.525000", "164659.528000", "164659.531000", "164659.534000", "164659.537000", "164659.540000", "164659.543000", "164659.546000", "164659.549000", "164659.552000", "164659.555000", "164659.558000", "164659.561000", "164659.564000", "164659.567000", "164659.570000", "164659.573000", "164659.576000", "164739.498000", "164739.501000", "164739.504000", "164739.507000", "164739.510000", "164739.518000", "164739.521000", "164739.524000", "164739.527000", "164739.530000", "164739.533000", "164739.536000", "164739.539000", "164739.542000", "164739.545000", "164739.548000", "164739.551000", "164739.554000", "164739.557000", "164739.560000", "164739.563000", "164739.566000", "164739.569000", "164739.572000", "164739.575000", "164739.578000", "164739.581000", "164819.499000", "164819.503000", "164819.506000", "164819.509000", "164819.512000", "164819.515000", "164819.518000", "164819.520000", "164819.523000", "164819.527000", "164819.530000", "164819.533000", "164819.536000", "164819.539000", "164819.542000", "164819.545000", "164819.548000", "164819.551000", "164819.554000", "164819.557000", "164819.560000", "164819.564000", "164819.566000", "164819.569000", "164819.572000", "164819.576000", "164859.498000", "164859.501000", "164859.504000", "164859.507000", "164859.510000", "164859.513000", "164859.516000", "164859.519000", "164859.522000", "164859.526000", "164859.528000", "164859.531000", "164859.534000", "164859.538000", "164859.541000", "164859.544000", "164859.547000", "164859.550000", "164859.553000", "164859.563000", "164859.566000", "164859.569000", "164859.572000", "164859.575000", "164859.578000", "164859.592000", "164859.595000", "164901.394000", "164901.397000"],
