{
  "AcquisitionMatrixPE": 104,
  "AcquisitionNumber": 1,
  "AcquisitionTime": "11:51:6.937500",
  "BandwidthPerPixelPhaseEncode": 17.17,
  "BaseResolution": 104,
  "BodyPartExamined": "BRAIN",
  "CoilCombinationMethod": "Sum of Squares",
  "ConsistencyInfo": "N4_VE11C_LATEST_20160120",
  "ConversionSoftware": "dcm2niix",
  "ConversionSoftwareVersion": "v1.0.20230411",
  "DerivedVendorReportedEchoSpacing": 0.000560011,
  "DeviceSerialNumber": "167006",
  "DwellTime": 2.1e-06,
  "EchoTime": 0.037,
  "EchoTrainLength": 104,
  "EffectiveEchoSpacing": 0.000560011,
  "FlipAngle": 52,
  "HeudiconvVersion": "0.5.3.post861+ge7d3c7f",
  "ImageComments": "Unaliased MB4/PE3/LB",
  "ImageOrientationPatientDICOM": [0.990625, 0.132312, 0.0339823, -0.110591, 0.922794, -0.36908],
  "ImageOrientationText": "Tra>Cor(-21.3)>Sag(4.6)",
  "ImageType": [
    "ORIGINAL",
    "PRIMARY",
    "M",
    "MB",
    "ND",
    "MOSAIC"
],
  "ImagingFrequency": 123.24962,
  "InPlanePhaseEncodingDirectionDICOM": "COL",
  "InstitutionAddress": "Chemin Queen-Mary 4565,Montreal,District,CA,H3W 1W5",
  "InstitutionName": "IUGM",
  "InstitutionalDepartmentName": "Department",
  "MRAcquisitionType": "2D",
  "MagneticFieldStrength": 3,
  "Manufacturer": "Siemens",
  "ManufacturersModelName": "Prisma_fit",
  "MatrixCoilMode": "SENSE",
  "Modality": "MR",
  "MultibandAccelerationFactor": 4,
  "NonlinearGradientCorrection": false,
  "PartialFourier": 1,
  "PatientPosition": "HFS",
  "PercentPhaseFOV": 100,
  "PercentSampling": 100,
  "PhaseEncodingDirection": "j",
  "PhaseEncodingSteps": 104,
  "PhaseResolution": 1,
  "PixelBandwidth": 2290,
  "ProcedureStepDescription": "video^friends",
  "ProtocolName": "func_task-friends-s07e05a",
  "PulseSequenceDetails": "%CustomerSeq%\\cmrr_mbep2d_bold",
  "ReceiveCoilActiveElements": "HC1-7;NC1,2",
  "ReceiveCoilName": "HeadNeck_64",
  "ReconMatrixPE": 104,
  "RepetitionTime": 1.49,
  "SAR": 0.0652418,
  "ScanOptions": "FS",
  "ScanningSequence": "EP",
  "SequenceName": "epfid2d1_104",
  "SequenceVariant": "SK\\SS",
  "SeriesDescription": "func_task-friends-s07e05a",
  "SeriesNumber": 10,
  "ShimSetting": [624, -7222, -8818, 598, 161, -54, -84, 83],
  "SliceThickness": 2,
  "SliceTiming": [0, 0.785, 0.0975, 0.8825, 0.195, 0.98, 0.295, 1.0775, 0.3925, 1.175, 0.49, 1.275, 0.5875, 1.3725, 0.685, 0, 0.785, 0.0975, 0.8825, 0.195, 0.98, 0.295, 1.0775, 0.3925, 1.175, 0.49, 1.275, 0.5875, 1.3725, 0.685, 0, 0.785, 0.0975, 0.8825, 0.195, 0.98, 0.295, 1.0775, 0.3925, 1.175, 0.49, 1.275, 0.5875, 1.3725, 0.685, 0, 0.785, 0.0975, 0.8825, 0.195, 0.98, 0.295, 1.0775, 0.3925, 1.175, 0.49, 1.275, 0.5875, 1.3725, 0.685],
  "SoftwareVersions": "syngo MR E11",
  "SpacingBetweenSlices": 2,
  "StationName": "MRC35049",
  "TaskName": "s07e05a",
  "TotalReadoutTime": 0.0576811,
  "TxRefAmp": 274.907,
  "WipMemBlock": "de94e6c7-f8ae-47f6-8986-b6feacd09301||Sequence: R017 ve11c/master r/75a17815+; Jun 28 2022 16:32:11 by eja",
  "dcmmeta_affine": [
    [-1.9812508821487427, -0.22118255496025085, 0.1603846251964569, 109.53060150146484],
    [-0.26462382078170776, 1.8455889225006104, -0.7237235307693481, -53.93840789794922],
    [0.06796453893184662, 0.7381597757339478, 1.857552409172058, -64.22798919677734],
    [0.0, 0.0, 0.0, 1.0]
],
  "dcmmeta_reorient_transform": [
    [0.0, -1.0, 0.0, 103.0],
    [1.0, 0.0, 0.0, 0.0],
    [0.0, 0.0, 1.0, 0.0],
    [0.0, 0.0, 0.0, 1.0]
],
  "dcmmeta_shape": [104, 104, 60, 454],
  "dcmmeta_slice_dim": 2,
  "dcmmeta_version": 0.6,
  "global": {
    "const": {
      "AcquisitionMatrix": [104, 0, 0, 104],
      "AngioFlag": "N",
      "BitsAllocated": 16,
      "BitsStored": 16,
      "BodyPartExamined": "BRAIN",
      "Columns": 832,
      "EchoNumbers": 1,
      "EchoTime": 37.0,
      "EchoTrainLength": 104,
      "FlipAngle": 52.0,
      "HighBit": 15,
      "ImageOrientationPatient": [0.99062544000872, 0.13231191585211, 0.03398226789191, -0.1105912754596, 0.9227944561823, -0.3690798848914],
      "ImagePositionPatient": [-727.4136699038, -904.27468714054, 255.75353362774],
      "ImageType": [
        "ORIGINAL",
        "PRIMARY",
        "M",
        "MB",
        "ND",
        "MOSAIC"
],
      "ImagedNucleus": "1H",
      "ImagingFrequency": 123.24962,
      "InPlanePhaseEncodingDirection": "COL",
      "MRAcquisitionType": "2D",
      "MagneticFieldStrength": 3.0,
      "Manufacturer": "SIEMENS",
      "ManufacturerModelName": "Prisma_fit",
      "Modality": "MR",
      "NumberOfAverages": 1.0,
      "NumberOfPhaseEncodingSteps": 104,
      "PercentPhaseFieldOfView": 100.0,
      "PercentSampling": 100.0,
      "PerformedProcedureStepStartTime": "114622.139000",
      "PhotometricInterpretation": "MONOCHROME2",
      "PixelBandwidth": 2290.0,
      "PixelRepresentation": 0,
      "PixelSpacing": [2.0, 2.0],
      "ProtocolName": "func_task-friends-s07e05a",
      "RepetitionTime": 1490.0,
      "Rows": 832,
      "SAR": 0.06524178668652,
      "SamplesPerPixel": 1,
      "ScanOptions": "FS",
      "ScanningSequence": "EP",
      "SequenceName": "epfid2d1_104",
      "SequenceVariant": [
        "SK",
        "SS"
],
      "SeriesDescription": "func_task-friends-s07e05a",
      "SeriesNumber": 10,
      "SeriesTime": "115211.685000",
      "SliceLocation": -31.35166552561,
      "SliceThickness": 2.0,
      "SmallestImagePixelValue": 0,
      "SoftwareVersions": "syngo MR E11",
      "SpacingBetweenSlices": 1.9999999392779,
      "SpecificCharacterSet": "ISO_IR 100",
      "StudyID": "1",
      "StudyTime": "114622.069000",
      "TransmitCoilName": "Body",
      "VariableFlipAngleFlag": "N",
      "WindowCenterWidthExplanation": "Algo1",
      "dBdt": 0.0},
    "slices": {}
  },
  "time": {
    "samples": {
      "AcquisitionNumber": [1, 2, 3, 4, 5, 6, 7, 8, 9, 10, 11, 12, 13, 14, 15, 16, 17, 18, 19, 20, 21, 22, 23, 24, 25, 26, 27, 28, 29, 30, 31, 32, 33, 34, 35, 36, 37, 38, 39, 40, 41, 42, 43, 44, 45, 46, 47, 48, 49, 50, 51, 52, 53, 54, 55, 56, 57, 58, 59, 60, 61, 62, 63, 64, 65, 66, 67, 68, 69, 70, 71, 72, 73, 74, 75, 76, 77, 78, 79, 80, 81, 82, 83, 84, 85, 86, 87, 88, 89, 90, 91, 92, 93, 94, 95, 96, 97, 98, 99, 100, 101, 102, 103, 104, 105, 106, 107, 108, 109, 110, 111, 112, 113, 114, 115, 116, 117, 118, 119, 120, 121, 122, 123, 124, 125, 126, 127, 128, 129, 130, 131, 132, 133, 134, 135, 136, 137, 138, 139, 140, 141, 142, 143, 144, 145, 146, 147, 148, 149, 150, 151, 152, 153, 154, 155, 156, 157, 158, 159, 160, 161, 162, 163, 164, 165, 166, 167, 168, 169, 170, 171, 172, 173, 174, 175, 176, 177, 178, 179, 180, 181, 182, 183, 184, 185, 186, 187, 188, 189, 190, 191, 192, 193, 194, 195, 196, 197, 198, 199, 200, 201, 202, 203, 204, 205, 206, 207, 208, 209, 210, 211, 212, 213, 214, 215, 216, 217, 218, 219, 220, 221, 222, 223, 224, 225, 226, 227, 228, 229, 230, 231, 232, 233, 234, 235, 236, 237, 238, 239, 240, 241, 242, 243, 244, 245, 246, 247, 248, 249, 250, 251, 252, 253, 254, 255, 256, 257, 258, 259, 260, 261, 262, 263, 264, 265, 266, 267, 268, 269, 270, 271, 272, 273, 274, 275, 276, 277, 278, 279, 280, 281, 282, 283, 284, 285, 286, 287, 288, 289, 290, 291, 292, 293, 294, 295, 296, 297, 298, 299, 300, 301, 302, 303, 304, 305, 306, 307, 308, 309, 310, 311, 312, 313, 314, 315, 316, 317, 318, 319, 320, 321, 322, 323, 324, 325, 326, 327, 328, 329, 330, 331, 332, 333, 334, 335, 336, 337, 338, 339, 340, 341, 342, 343, 344, 345, 346, 347, 348, 349, 350, 351, 352, 353, 354, 355, 356, 357, 358, 359, 360, 361, 362, 363, 364, 365, 366, 367, 368, 369, 370, 371, 372, 373, 374, 375, 376, 377, 378, 379, 380, 381, 382, 383, 384, 385, 386, 387, 388, 389, 390, 391, 392, 393, 394, 395, 396, 397, 398, 399, 400, 401, 402, 403, 404, 405, 406, 407, 408, 409, 410, 411, 412, 413, 414, 415, 416, 417, 418, 419, 420, 421, 422, 423, 424, 425, 426, 427, 428, 429, 430, 431, 432, 433, 434, 435, 436, 437, 438, 439, 440, 441, 442, 443, 444, 445, 446, 447, 448, 449, 450, 451, 452, 453, 454],
      "AcquisitionTime": ["115106.937500", "115108.427500", "115109.917500", "115111.407500", "115112.897500", "115114.387500", "115115.877500", "115117.367500", "115118.857500", "115120.347500", "115121.837500", "115123.327500", "115124.817500", "115126.307500", "115127.797500", "115129.287500", "115130.777500", "115132.267500", "115133.757500", "115135.247500", "115136.737500", "115138.227500", "115139.717500", "115141.207500", "115142.697500", "115144.187500", "115145.677500", "115147.167500", "115148.657500", "115150.147500", "115151.637500", "115153.127500", "115154.617500", "115156.107500", "115157.597500", "115159.087500", "115200.577500", "115202.067500", "115203.557500", "115205.047500", "115206.537500", "115208.027500", "115209.517500", "115211.007500", "115212.497500", "115213.987500", "115215.477500", "115216.967500", "115218.457500", "115219.947500", "115221.437500", "115222.927500", "115224.417500", "115225.907500", "115227.397500", "115228.887500", "115230.377500", "115231.867500", "115233.357500", "115234.847500", "115236.337500", "115237.827500", "115239.317500", "115240.807500", "115242.297500", "115243.787500", "115245.277500", "115246.767500", "115248.257500", "115249.747500", "115251.237500", "115252.727500", "115254.217500", "115255.707500", "115257.197500", "115258.687500", "115300.177500", "115301.667500", "115303.157500", "115304.647500", "115306.137500", "115307.627500", "115309.117500", "115310.607500", "115312.097500", "115313.587500", "115315.077500", "115316.567500", "115318.057500", "115319.547500", "115321.037500", "115322.527500", "115324.017500", "115325.507500", "115326.997500", "115328.487500", "115329.977500", "115331.467500", "115332.957500", "115334.447500", "115335.937500", "115337.427500", "115338.917500", "115340.407500", "115341.897500", "115343.387500", "115344.877500", "115346.367500", "115347.857500", "115349.347500", "115350.837500", "115352.327500", "115353.817500", "115355.307500", "115356.797500", "115358.287500", "115359.777500", "115401.267500", "115402.757500", "115404.247500", "115405.737500", "115407.227500", "115408.717500", "115410.207500", "115411.697500", "115413.187500", "115414.677500", "115416.167500", "115417.657500", "115419.147500", "115420.637500", "115422.127500", "115423.617500", "115425.107500", "115426.597500", "115428.087500", "115429.577500", "115431.067500", "115432.557500", "115434.047500", "115435.537500", "115437.027500", "115438.517500", "115440.007500", "115441.497500", "115442.987500", "115444.477500", "115445.967500", "115447.457500", "115448.947500", "115450.437500", "115451.927500", "115453.417500", "115454.907500", "115456.397500", "115457.887500", "115459.377500", "115500.867500", "115502.357500", "115503.847500", "115505.337500", "115506.827500", "115508.317500", "115509.807500", "115511.297500", "115512.787500", "115514.277500", "115515.767500", "115517.257500", "115518.747500", "115520.237500", "115521.727500", "115523.217500", "115524.707500", "115526.197500", "115527.687500", "115529.177500", "115530.667500", "115532.157500", "115533.647500", "115535.137500", "115536.627500", "115538.117500", "115539.607500", "115541.097500", "115542.587500", "115544.077500", "115545.567500", "115547.057500", "115548.547500", "115550.037500", "115551.527500", "115553.017500", "115554.507500", "115555.997500", "115557.487500", "115558.977500", "115600.467500", "115601.957500", "115603.447500", "115604.937500", "115606.427500", "115607.917500", "115609.407500", "115610.897500", "115612.387500", "115613.877500", "115615.367500", "115616.857500", "115618.347500", "115619.837500", "115621.327500", "115622.817500", "115624.307500", "115625.797500", "115627.287500", "115628.777500", "115630.267500", "115631.757500", "115633.247500", "115634.737500", "115636.227500", "115637.717500", "115639.207500", "115640.697500", "115642.187500", "115643.677500", "115645.167500", "115646.657500", "115648.147500", "115649.637500", "115651.127500", "115652.617500", "115654.107500", "115655.597500", "115657.087500", "115658.577500", "115700.067500", "115701.557500", "115703.047500", "115704.537500", "115706.027500", "115707.517500", "115709.007500", "115710.497500", "115711.987500", "115713.477500", "115714.967500", "115716.457500", "115717.947500", "115719.437500", "115720.927500", "115722.417500", "115723.907500", "115725.397500", "115726.887500", "115728.377500", "115729.867500", "115731.357500", "115732.847500", "115734.337500", "115735.827500", "115737.317500", "115738.807500", "115740.297500", "115741.787500", "115743.277500", "115744.767500", "115746.257500", "115747.747500", "115749.237500", "115750.727500", "115752.217500", "115753.707500", "115755.197500", "115756.687500", "115758.177500", "115759.667500", "115801.157500", "115802.647500", "115804.137500", "115805.627500", "115807.117500", "115808.607500", "115810.097500", "115811.587500", "115813.077500", "115814.567500", "115816.057500", "115817.547500", "115819.037500", "115820.527500", "115822.017500", "115823.507500", "115824.997500", "115826.487500", "115827.977500", "115829.467500", "115830.957500", "115832.447500", "115833.937500", "115835.427500", "115836.917500", "115838.407500", "115839.897500", "115841.387500", "115842.877500", "115844.367500", "115845.857500", "115847.347500", "115848.837500", "115850.327500", "115851.817500", "115853.307500", "115854.797500", "115856.287500", "115857.777500", "115859.267500", "115900.757500", "115902.247500", "115903.737500", "115905.227500", "115906.717500", "115908.207500", "115909.697500", "115911.187500", "115912.677500", "115914.167500", "115915.657500", "115917.147500", "115918.637500", "115920.127500", "115921.617500", "115923.107500", "115924.597500", "115926.087500", "115927.577500", "115929.067500", "115930.557500", "115932.047500", "115933.537500", "115935.027500", "115936.517500", "115938.007500", "115939.497500", "115940.987500", "115942.477500", "115943.967500", "115945.457500", "115946.947500", "115948.437500", "115949.927500", "115951.417500", "115952.907500", "115954.397500", "115955.887500", "115957.377500", "115958.867500", "120000.357500", "120001.847500", "120003.337500", "120004.827500", "120006.317500", "120007.807500", "120009.297500", "120010.787500", "120012.277500", "120013.767500", "120015.257500", "120016.747500", "120018.237500", "120019.727500", "120021.217500", "120022.707500", "120024.197500", "120025.687500", "120027.177500", "120028.667500", "120030.157500", "120031.647500", "120033.137500", "120034.627500", "120036.117500", "120037.607500", "120039.097500", "120040.587500", "120042.077500", "120043.567500", "120045.057500", "120046.547500", "120048.037500", "120049.527500", "120051.017500", "120052.507500", "120053.997500", "120055.487500", "120056.977500", "120058.467500", "120059.957500", "120101.447500", "120102.937500", "120104.427500", "120105.917500", "120107.407500", "120108.897500", "120110.387500", "120111.877500", "120113.367500", "120114.857500", "120116.347500", "120117.837500", "120119.327500", "120120.817500", "120122.307500", "120123.797500", "120125.287500", "120126.777500", "120128.267500", "120129.757500", "120131.247500", "120132.737500", "120134.227500", "120135.717500", "120137.207500", "120138.697500", "120140.187500", "120141.677500", "120143.167500", "120144.657500", "120146.147500", "120147.637500", "120149.127500", "120150.617500", "120152.107500", "120153.597500", "120155.087500", "120156.577500", "120158.067500", "120159.557500", "120201.047500", "120202.537500", "120204.027500", "120205.517500", "120207.007500", "120208.497500", "120209.987500", "120211.477500", "120212.967500", "120214.457500", "120215.947500", "120217.437500", "120218.927500", "120220.417500", "120221.907500"],
      "ContentTime": ["115211.687000", "115211.690000", "115211.693000", "115211.696000", "115211.699000", "115211.702000", "115211.705000", "115211.708000", "115211.725000", "115211.728000", "115211.731000", "115211.734000", "115211.736000", "115211.739000", "115231.644000", "115231.647000", "115231.649000", "115231.652000", "115231.664000", "115231.667000", "115231.670000", "115231.673000", "115231.682000", "115231.699000", "115231.702000", "115231.705000", "115231.708000", "115231.711000", "115231.713000", "115231.716000", "115231.719000", "115231.722000", "115231.725000", "115231.728000", "115251.644000", "115251.647000", "115251.650000", "115251.652000", "115251.655000", "115251.658000", "115251.661000", "115251.664000", "115251.667000", "115251.670000", "115251.672000", "115251.675000", "115251.678000", "115251.681000", "115251.684000", "115251.687000", "115251.690000", "115251.692000", "115251.695000", "115251.698000", "115311.644000", "115311.649000", "115311.652000", "115311.655000", "115311.658000", "115311.661000", "115311.664000", "115311.667000", "115311.670000", "115311.672000", "115311.675000", "115311.688000", "115311.691000", "115311.693000", "115311.696000", "115311.699000", "115311.702000", "115311.704000", "115311.707000", "115311.710000", "115331.644000", "115331.656000", "115331.659000", "115331.662000", "115331.665000", "115331.668000", "115331.677000", "115331.680000", "115331.683000", "115331.686000", "115331.689000", "115331.692000", "115331.695000", "115331.698000", "115331.701000", "115331.704000", "115331.707000", "115331.710000", "115331.713000", "115331.715000", "115331.718000", "115411.644000", "115411.647000", "115411.650000", "115411.653000", "115411.655000", "115411.658000", "115411.661000", "115411.664000", "115411.667000", "115411.669000", "115411.672000", "115411.675000", "115411.678000", "115411.681000", "115411.684000", "115411.687000", "115411.690000", "115411.692000", "115411.695000", "115411.698000", "115411.701000", "115411.704000", "115411.707000", "115411.709000", "115411.712000", "115411.715000", "115411.718000", "115451.644000", "115451.647000", "115451.650000", "115451.653000", "115451.656000", "115451.659000", "115451.661000", "115451.664000", "115451.667000", "115451.670000", "115451.673000", "115451.676000", "115451.679000", "115451.681000", "115451.684000", "115451.687000", "115451.690000", "115451.693000", "115451.696000", "115451.699000", "115451.702000", "115451.704000", "115451.707000", "115451.710000", "115451.713000", "115451.716000", "115451.719000", "115531.644000", "115531.647000", "115531.650000", "115531.653000", "115531.655000", "115531.658000", "115531.661000", "115531.664000", "115531.667000", "115531.670000", "115531.672000", "115531.679000", "115531.682000", "115531.685000", "115531.688000", "115531.691000", "115531.694000", "115531.696000", "115531.699000", "115531.702000", "115531.705000", "115531.708000", "115531.711000", "115531.713000", "115531.716000", "115531.719000", "115531.722000", "115611.644000", "115611.647000", "115611.650000", "115611.653000", "115611.656000", "115611.659000", "115611.662000", "115611.664000", "115611.668000", "115611.670000", "115611.673000", "115611.676000", "115611.679000", "115611.684000", "115611.688000", "115611.691000", "115611.693000", "115611.696000", "115611.699000", "115611.702000", "115611.705000", "115611.708000", "115611.711000", "115611.714000", "115611.716000", "115611.719000", "115651.644000", "115651.647000", "115651.650000", "115651.653000", "115651.656000", "115651.658000", "115651.661000", "115651.664000", "115651.667000", "115651.670000", "115651.673000", "115651.675000", "115651.678000", "115651.681000", "115651.684000", "115651.687000", "115651.690000", "115651.692000", "115651.695000", "115651.698000", "115651.701000", "115651.704000", "115651.707000", "115651.710000", "115651.713000", "115651.716000", "115651.718000", "115731.644000", "115731.647000", "115731.650000", "115731.653000", "115731.656000", "115731.659000", "115731.661000", "115731.664000", "115731.667000", "115731.670000", "115731.673000", "115731.676000", "115731.679000", "115731.682000", "115731.684000", "115731.687000", "115731.690000", "115731.693000", "115731.696000", "115731.699000", "115731.702000", "115731.705000", "115731.708000", "115731.710000", "115731.713000", "115731.716000", "115731.719000", "115811.644000", "115811.647000", "115811.650000", "115811.653000", "115811.656000", "115811.658000", "115811.661000", "115811.664000", "115811.667000", "115811.670000", "115811.673000", "115811.686000", "115811.689000", "115811.692000", "115811.695000", "115811.697000", "115811.700000", "115811.703000", "115811.706000", "115811.709000", "115811.712000", "115811.714000", "115811.717000", "115811.720000", "115811.723000", "115811.726000", "115811.729000", "115851.644000", "115851.647000", "115851.650000", "115851.653000", "115851.656000", "115851.659000", "115851.662000", "115851.664000", "115851.667000", "115851.670000", "115851.673000", "115851.676000", "115851.679000", "115851.682000", "115851.685000", "115851.687000", "115851.690000", "115851.693000", "115851.696000", "115851.699000", "115851.702000", "115851.705000", "115851.708000", "115851.711000", "115851.713000", "115851.716000", "115851.719000", "115931.644000", "115931.647000", "115931.650000", "115931.653000", "115931.656000", "115931.658000", "115931.661000", "115931.664000", "115931.667000", "115931.670000", "115931.672000", "115931.675000", "115931.694000", "115931.696000", "115931.699000", "115931.702000", "115931.705000", "115931.708000", "115931.711000", "115931.714000", "115931.717000", "115931.719000", "115931.722000", "115931.725000", "115931.728000", "115931.731000", "115931.734000", "120011.644000", "120011.647000", "120011.650000", "120011.660000", "120011.663000", "120011.666000", "120011.669000", "120011.672000", "120011.675000", "120011.677000", "120011.680000", "120011.683000", "120011.686000", "120011.689000", "120011.692000", "120011.695000", "120011.698000", "120011.701000", "120011.704000", "120011.707000", "120011.710000", "120011.712000", "120011.715000", "120011.718000", "120011.721000", "120011.724000", "120011.727000", "120051.644000", "120051.647000", "120051.650000", "120051.653000", "120051.656000", "120051.659000", "120051.662000", "120051.665000", "120051.668000", "120051.671000", "120051.673000", "120051.676000", "120051.685000", "120051.688000", "120051.691000", "120051.694000", "120051.697000", "120051.701000", "120051.704000", "120051.707000", "120051.710000", "120051.713000", "120051.716000", "120051.719000", "120051.722000", "120051.725000", "120111.644000", "120111.647000", "120111.650000", "120111.653000", "120111.656000", "120111.659000", "120111.662000", "120111.664000", "120111.667000", "120111.670000", "120111.673000", "120111.676000", "120111.679000", "120111.682000", "120151.644000", "120151.649000", "120151.661000", "120151.670000", "120151.682000", "120151.685000", "120151.698000", "120151.711000", "120151.714000", "120151.717000", "120151.720000", "120151.723000", "120151.726000", "120151.729000", "120151.732000", "120151.743000", "120151.746000", "120151.748000", "120151.751000", "120151.754000", "120151.757000", "120151.760000", "120151.763000", "120151.766000", "120151.769000", "120151.772000", "120151.775000", "120225.859000", "120225.863000", "120225.866000", "120225.872000", "120225.882000", "120225.885000", "120225.888000", "120225.891000", "120225.894000", "120225.897000", "120225.901000", "120225.925000", "120225.928000", "120225.931000", "120225.934000", "120225.937000", "120225.940000", "120225.943000", "120225.946000", "120225.948000", "120225.951000", "120225.954000", "120225.961000"],
