{
  "AcquisitionMatrixPE": 104,
  "AcquisitionNumber": 1,
  "AcquisitionTime": "18:52:12.297500",
  "BandwidthPerPixelPhaseEncode": 17.17,
  "BaseResolution": 104,
  "BodyPartExamined": "BRAIN",
  "CoilCombinationMethod": "Sum of Squares",
  "ConsistencyInfo": "N4_VE11C_LATEST_20160120",
  "ConversionSoftware": "dcm2niix",
  "ConversionSoftwareVersion": "v1.0.20230411",
  "DerivedVendorReportedEchoSpacing": 0.000560011,
  "DeviceSerialNumber": "167006",
  "DwellTime": 2.1e-06,
  "EchoTime": 0.037,
  "EchoTrainLength": 104,
  "EffectiveEchoSpacing": 0.000560011,
  "FlipAngle": 52,
  "HeudiconvVersion": "0.5.3.post861+ge7d3c7f",
  "ImageComments": "Unaliased MB4/PE3/LB",
  "ImageOrientationPatientDICOM": [0.999596, -0.0223506, -0.0175421, 0.0141324, 0.926732, -0.375457],
  "ImageOrientationText": "Tra>Cor(-22.0)>Sag(-1.4)",
  "ImageType": [
    "ORIGINAL",
    "PRIMARY",
    "M",
    "MB",
    "ND",
    "MOSAIC"
],
  "ImagingFrequency": 123.249731,
  "InPlanePhaseEncodingDirectionDICOM": "COL",
  "InstitutionAddress": "Chemin Queen-Mary 4565,Montreal,District,CA,H3W 1W5",
  "InstitutionName": "IUGM",
  "InstitutionalDepartmentName": "Department",
  "MRAcquisitionType": "2D",
  "MagneticFieldStrength": 3,
  "Manufacturer": "Siemens",
  "ManufacturersModelName": "Prisma_fit",
  "MatrixCoilMode": "SENSE",
  "Modality": "MR",
  "MultibandAccelerationFactor": 4,
  "NonlinearGradientCorrection": false,
  "PartialFourier": 1,
  "PatientPosition": "HFS",
  "PercentPhaseFOV": 100,
  "PercentSampling": 100,
  "PhaseEncodingDirection": "j",
  "PhaseEncodingSteps": 104,
  "PhaseResolution": 1,
  "PixelBandwidth": 2290,
  "ProcedureStepDescription": "video^friends",
  "ProtocolName": "func_task-friends-s07e01b",
  "PulseSequenceDetails": "%CustomerSeq%\\cmrr_mbep2d_bold",
  "ReceiveCoilActiveElements": "HC1-7;NC1,2",
  "ReceiveCoilName": "HeadNeck_64",
  "ReconMatrixPE": 104,
  "RepetitionTime": 1.49,
  "SAR": 0.0631761,
  "ScanOptions": "FS",
  "ScanningSequence": "EP",
  "SequenceName": "epfid2d1_104",
  "SequenceVariant": "SK\\SS",
  "SeriesDescription": "func_task-friends-s07e01b",
  "SeriesNumber": 12,
  "ShimSetting": [584, -7277, -8822, 397, 0, -358, -39, 84],
  "SliceThickness": 2,
  "SliceTiming": [0, 0.785, 0.0975, 0.8825, 0.195, 0.98, 0.295, 1.0775, 0.3925, 1.175, 0.49, 1.275, 0.5875, 1.3725, 0.685, 0, 0.785, 0.0975, 0.8825, 0.195, 0.98, 0.295, 1.0775, 0.3925, 1.175, 0.49, 1.275, 0.5875, 1.3725, 0.685, 0, 0.785, 0.0975, 0.8825, 0.195, 0.98, 0.295, 1.0775, 0.3925, 1.175, 0.49, 1.275, 0.5875, 1.3725, 0.685, 0, 0.785, 0.0975, 0.8825, 0.195, 0.98, 0.295, 1.0775, 0.3925, 1.175, 0.49, 1.275, 0.5875, 1.3725, 0.685],
  "SoftwareVersions": "syngo MR E11",
  "SpacingBetweenSlices": 2,
  "StationName": "MRC35049",
  "TaskName": "s07e01b",
  "TotalReadoutTime": 0.0576811,
  "TxRefAmp": 280.368,
  "WipMemBlock": "1119e5a8-928f-47d1-ba6b-5fa6a4906840||Sequence: R017 ve11c/master r/75a17815+; Jun 28 2022 16:32:11 by eja",
  "dcmmeta_affine": [
    [-1.9991925954818726, 0.028264885768294334, -0.049297116696834564, 99.97076416015625],
    [0.04470127820968628, 1.853464126586914, -0.7501150965690613, -68.62274169921875],
    [-0.035084258764982224, 0.7509140968322754, 1.8533475399017334, -61.045989990234375],
    [0.0, 0.0, 0.0, 1.0]
],
  "dcmmeta_reorient_transform": [
    [0.0, -1.0, 0.0, 103.0],
    [1.0, 0.0, 0.0, 0.0],
    [0.0, 0.0, 1.0, 0.0],
    [0.0, 0.0, 0.0, 1.0]
],
  "dcmmeta_shape": [104, 104, 60, 494],
  "dcmmeta_slice_dim": 2,
  "dcmmeta_version": 0.6,
  "global": {
    "const": {
      "AcquisitionMatrix": [104, 0, 0, 104],
      "AngioFlag": "N",
      "BitsAllocated": 16,
      "BitsStored": 16,
      "BodyPartExamined": "BRAIN",
      "Columns": 832,
      "EchoNumbers": 1,
      "EchoTime": 37.0,
      "EchoTrainLength": 104,
      "FlipAngle": 52.0,
      "HighBit": 15,
      "ImageOrientationPatient": [0.99959627983516, -0.0223506383676, -0.0175421294112, 0.01413244247247, 0.92673204726432, -0.3754570370136],
      "ImagePositionPatient": [-840.87656064708, -780.67372766409, 302.40155310851],
      "ImageType": [
        "ORIGINAL",
        "PRIMARY",
        "M",
        "MB",
        "ND",
        "MOSAIC"
],
      "ImagedNucleus": "1H",
      "ImagingFrequency": 123.249731,
      "InPlanePhaseEncodingDirection": "COL",
      "MRAcquisitionType": "2D",
      "MagneticFieldStrength": 3.0,
      "Manufacturer": "SIEMENS",
      "ManufacturerModelName": "Prisma_fit",
      "Modality": "MR",
      "NumberOfAverages": 1.0,
      "NumberOfPhaseEncodingSteps": 104,
      "PercentPhaseFieldOfView": 100.0,
      "PercentSampling": 100.0,
      "PerformedProcedureStepStartTime": "183126.322000",
      "PhotometricInterpretation": "MONOCHROME2",
      "PixelBandwidth": 2290.0,
      "PixelRepresentation": 0,
      "PixelSpacing": [2.0, 2.0],
      "ProtocolName": "func_task-friends-s07e01b",
      "RepetitionTime": 1490.0,
      "Rows": 832,
      "SAR": 0.06317607727929,
      "SamplesPerPixel": 1,
      "ScanOptions": "FS",
      "ScanningSequence": "EP",
      "SequenceName": "epfid2d1_104",
      "SequenceVariant": [
        "SK",
        "SS"
],
      "SeriesDescription": "func_task-friends-s07e01b",
      "SeriesNumber": 12,
      "SeriesTime": "185339.530000",
      "SliceLocation": -33.296376765309,
      "SliceThickness": 2.0,
      "SmallestImagePixelValue": 0,
      "SoftwareVersions": "syngo MR E11",
      "SpacingBetweenSlices": 1.9999999686863,
      "SpecificCharacterSet": "ISO_IR 100",
      "StudyID": "1",
      "StudyTime": "183126.246000",
      "TransmitCoilName": "Body",
      "VariableFlipAngleFlag": "N",
      "WindowCenterWidthExplanation": "Algo1",
      "dBdt": 0.0},
    "slices": {}
  },
  "time": {
    "samples": {
      "AcquisitionNumber": [1, 2, 3, 4, 5, 6, 7, 8, 9, 10, 11, 12, 13, 14, 15, 16, 17, 18, 19, 20, 21, 22, 23, 24, 25, 26, 27, 28, 29, 30, 31, 32, 33, 34, 35, 36, 37, 38, 39, 40, 41, 42, 43, 44, 45, 46, 47, 48, 49, 50, 51, 52, 53, 54, 55, 56, 57, 58, 59, 60, 61, 62, 63, 64, 65, 66, 67, 68, 69, 70, 71, 72, 73, 74, 75, 76, 77, 78, 79, 80, 81, 82, 83, 84, 85, 86, 87, 88, 89, 90, 91, 92, 93, 94, 95, 96, 97, 98, 99, 100, 101, 102, 103, 104, 105, 106, 107, 108, 109, 110, 111, 112, 113, 114, 115, 116, 117, 118, 119, 120, 121, 122, 123, 124, 125, 126, 127, 128, 129, 130, 131, 132, 133, 134, 135, 136, 137, 138, 139, 140, 141, 142, 143, 144, 145, 146, 147, 148, 149, 150, 151, 152, 153, 154, 155, 156, 157, 158, 159, 160, 161, 162, 163, 164, 165, 166, 167, 168, 169, 170, 171, 172, 173, 174, 175, 176, 177, 178, 179, 180, 181, 182, 183, 184, 185, 186, 187, 188, 189, 190, 191, 192, 193, 194, 195, 196, 197, 198, 199, 200, 201, 202, 203, 204, 205, 206, 207, 208, 209, 210, 211, 212, 213, 214, 215, 216, 217, 218, 219, 220, 221, 222, 223, 224, 225, 226, 227, 228, 229, 230, 231, 232, 233, 234, 235, 236, 237, 238, 239, 240, 241, 242, 243, 244, 245, 246, 247, 248, 249, 250, 251, 252, 253, 254, 255, 256, 257, 258, 259, 260, 261, 262, 263, 264, 265, 266, 267, 268, 269, 270, 271, 272, 273, 274, 275, 276, 277, 278, 279, 280, 281, 282, 283, 284, 285, 286, 287, 288, 289, 290, 291, 292, 293, 294, 295, 296, 297, 298, 299, 300, 301, 302, 303, 304, 305, 306, 307, 308, 309, 310, 311, 312, 313, 314, 315, 316, 317, 318, 319, 320, 321, 322, 323, 324, 325, 326, 327, 328, 329, 330, 331, 332, 333, 334, 335, 336, 337, 338, 339, 340, 341, 342, 343, 344, 345, 346, 347, 348, 349, 350, 351, 352, 353, 354, 355, 356, 357, 358, 359, 360, 361, 362, 363, 364, 365, 366, 367, 368, 369, 370, 371, 372, 373, 374, 375, 376, 377, 378, 379, 380, 381, 382, 383, 384, 385, 386, 387, 388, 389, 390, 391, 392, 393, 394, 395, 396, 397, 398, 399, 400, 401, 402, 403, 404, 405, 406, 407, 408, 409, 410, 411, 412, 413, 414, 415, 416, 417, 418, 419, 420, 421, 422, 423, 424, 425, 426, 427, 428, 429, 430, 431, 432, 433, 434, 435, 436, 437, 438, 439, 440, 441, 442, 443, 444, 445, 446, 447, 448, 449, 450, 451, 452, 453, 454, 455, 456, 457, 458, 459, 460, 461, 462, 463, 464, 465, 466, 467, 468, 469, 470, 471, 472, 473, 474, 475, 476, 477, 478, 479, 480, 481, 482, 483, 484, 485, 486, 487, 488, 489, 490, 491, 492, 493, 494],
      "AcquisitionTime": ["185212.297500", "185213.787500", "185215.277500", "185216.767500", "185218.257500", "185219.747500", "185221.237500", "185222.727500", "185224.217500", "185225.707500", "185227.197500", "185228.687500", "185230.177500", "185231.667500", "185233.157500", "185234.647500", "185236.137500", "185237.627500", "185239.117500", "185240.607500", "185242.097500", "185243.587500", "185245.077500", "185246.567500", "185248.057500", "185249.547500", "185251.037500", "185252.527500", "185254.017500", "185255.507500", "185256.997500", "185258.487500", "185259.977500", "185301.467500", "185302.957500", "185304.447500", "185305.937500", "185307.427500", "185308.917500", "185310.407500", "185311.897500", "185313.387500", "185314.877500", "185316.367500", "185317.857500", "185319.347500", "185320.837500", "185322.327500", "185323.817500", "185325.307500", "185326.797500", "185328.287500", "185329.777500", "185331.267500", "185332.757500", "185334.247500", "185335.737500", "185337.227500", "185338.717500", "185340.207500", "185341.697500", "185343.187500", "185344.677500", "185346.167500", "185347.657500", "185349.147500", "185350.637500", "185352.127500", "185353.617500", "185355.107500", "185356.597500", "185358.087500", "185359.577500", "185401.067500", "185402.557500", "185404.047500", "185405.537500", "185407.027500", "185408.517500", "185410.007500", "185411.497500", "185412.987500", "185414.477500", "185415.967500", "185417.457500", "185418.947500", "185420.437500", "185421.927500", "185423.417500", "185424.907500", "185426.397500", "185427.887500", "185429.377500", "185430.867500", "185432.357500", "185433.847500", "185435.337500", "185436.827500", "185438.317500", "185439.807500", "185441.297500", "185442.787500", "185444.277500", "185445.767500", "185447.257500", "185448.747500", "185450.237500", "185451.727500", "185453.217500", "185454.707500", "185456.197500", "185457.687500", "185459.177500", "185500.667500", "185502.157500", "185503.647500", "185505.137500", "185506.627500", "185508.117500", "185509.607500", "185511.097500", "185512.587500", "185514.077500", "185515.567500", "185517.057500", "185518.547500", "185520.037500", "185521.527500", "185523.017500", "185524.507500", "185525.997500", "185527.487500", "185528.977500", "185530.467500", "185531.957500", "185533.447500", "185534.937500", "185536.427500", "185537.917500", "185539.407500", "185540.897500", "185542.387500", "185543.877500", "185545.367500", "185546.857500", "185548.347500", "185549.837500", "185551.327500", "185552.817500", "185554.307500", "185555.797500", "185557.287500", "185558.777500", "185600.267500", "185601.757500", "185603.247500", "185604.737500", "185606.227500", "185607.717500", "185609.207500", "185610.697500", "185612.187500", "185613.677500", "185615.167500", "185616.657500", "185618.147500", "185619.637500", "185621.127500", "185622.617500", "185624.107500", "185625.597500", "185627.087500", "185628.577500", "185630.067500", "185631.557500", "185633.047500", "185634.537500", "185636.027500", "185637.517500", "185639.007500", "185640.497500", "185641.987500", "185643.477500", "185644.967500", "185646.457500", "185647.947500", "185649.437500", "185650.927500", "185652.417500", "185653.907500", "185655.397500", "185656.887500", "185658.377500", "185659.867500", "185701.357500", "185702.847500", "185704.337500", "185705.827500", "185707.317500", "185708.807500", "185710.297500", "185711.787500", "185713.277500", "185714.767500", "185716.257500", "185717.747500", "185719.237500", "185720.727500", "185722.217500", "185723.707500", "185725.197500", "185726.687500", "185728.177500", "185729.667500", "185731.157500", "185732.647500", "185734.137500", "185735.627500", "185737.117500", "185738.607500", "185740.097500", "185741.587500", "185743.077500", "185744.567500", "185746.057500", "185747.547500", "185749.037500", "185750.527500", "185752.017500", "185753.507500", "185754.997500", "185756.487500", "185757.977500", "185759.467500", "185800.957500", "185802.447500", "185803.937500", "185805.427500", "185806.917500", "185808.407500", "185809.897500", "185811.387500", "185812.877500", "185814.367500", "185815.857500", "185817.347500", "185818.837500", "185820.327500", "185821.817500", "185823.307500", "185824.797500", "185826.287500", "185827.777500", "185829.267500", "185830.757500", "185832.247500", "185833.737500", "185835.227500", "185836.717500", "185838.207500", "185839.697500", "185841.187500", "185842.677500", "185844.167500", "185845.657500", "185847.147500", "185848.637500", "185850.127500", "185851.617500", "185853.107500", "185854.597500", "185856.087500", "185857.577500", "185859.067500", "185900.557500", "185902.047500", "185903.537500", "185905.027500", "185906.517500", "185908.007500", "185909.497500", "185910.987500", "185912.477500", "185913.967500", "185915.457500", "185916.947500", "185918.437500", "185919.927500", "185921.417500", "185922.907500", "185924.397500", "185925.887500", "185927.377500", "185928.867500", "185930.357500", "185931.847500", "185933.337500", "185934.827500", "185936.317500", "185937.807500", "185939.297500", "185940.787500", "185942.277500", "185943.767500", "185945.257500", "185946.747500", "185948.237500", "185949.727500", "185951.217500", "185952.707500", "185954.197500", "185955.687500", "185957.177500", "185958.667500", "190000.157500", "190001.647500", "190003.137500", "190004.627500", "190006.117500", "190007.607500", "190009.097500", "190010.587500", "190012.077500", "190013.567500", "190015.057500", "190016.547500", "190018.037500", "190019.527500", "190021.017500", "190022.507500", "190023.997500", "190025.487500", "190026.977500", "190028.467500", "190029.957500", "190031.447500", "190032.937500", "190034.427500", "190035.917500", "190037.407500", "190038.897500", "190040.387500", "190041.877500", "190043.367500", "190044.857500", "190046.347500", "190047.837500", "190049.327500", "190050.817500", "190052.307500", "190053.797500", "190055.287500", "190056.777500", "190058.267500", "190059.757500", "190101.247500", "190102.737500", "190104.227500", "190105.717500", "190107.207500", "190108.697500", "190110.187500", "190111.677500", "190113.167500", "190114.657500", "190116.147500", "190117.637500", "190119.127500", "190120.617500", "190122.107500", "190123.597500", "190125.087500", "190126.577500", "190128.067500", "190129.557500", "190131.047500", "190132.537500", "190134.027500", "190135.517500", "190137.007500", "190138.497500", "190139.987500", "190141.477500", "190142.967500", "190144.457500", "190145.947500", "190147.437500", "190148.927500", "190150.417500", "190151.907500", "190153.397500", "190154.887500", "190156.377500", "190157.867500", "190159.357500", "190200.847500", "190202.337500", "190203.827500", "190205.317500", "190206.807500", "190208.297500", "190209.787500", "190211.277500", "190212.767500", "190214.257500", "190215.747500", "190217.237500", "190218.727500", "190220.217500", "190221.707500", "190223.197500", "190224.687500", "190226.177500", "190227.667500", "190229.157500", "190230.647500", "190232.137500", "190233.627500", "190235.117500", "190236.607500", "190238.097500", "190239.587500", "190241.077500", "190242.567500", "190244.057500", "190245.547500", "190247.037500", "190248.527500", "190250.017500", "190251.507500", "190252.997500", "190254.487500", "190255.977500", "190257.467500", "190258.957500", "190300.447500", "190301.937500", "190303.427500", "190304.917500", "190306.407500", "190307.897500", "190309.387500", "190310.877500", "190312.367500", "190313.857500", "190315.347500", "190316.837500", "190318.327500", "190319.817500", "190321.307500", "190322.797500", "190324.287500", "190325.777500", "190327.267500", "190328.757500", "190330.247500", "190331.737500", "190333.227500", "190334.717500", "190336.207500", "190337.697500", "190339.187500", "190340.677500", "190342.167500", "190343.657500", "190345.147500", "190346.637500", "190348.127500", "190349.617500", "190351.107500", "190352.597500", "190354.087500", "190355.577500", "190357.067500", "190358.557500", "190400.047500", "190401.537500", "190403.027500", "190404.517500", "190406.007500", "190407.497500", "190408.987500", "190410.477500", "190411.967500", "190413.457500", "190414.947500", "190416.437500", "190417.927500", "190419.417500", "190420.907500", "190422.397500", "190423.887500", "190425.377500", "190426.867500"],
      "ContentTime": ["185339.533000", "185339.536000", "185339.539000", "185339.542000", "185339.545000", "185339.548000", "185339.551000", "185339.554000", "185339.557000", "185339.560000", "185339.563000", "185339.578000", "185339.581000", "185339.584000", "185339.587000", "185339.589000", "185339.593000", "185339.596000", "185339.598000", "185339.607000", "185339.617000", "185339.620000", "185339.622000", "185339.625000", "185339.628000", "185339.631000", "185339.634000", "185339.637000", "185339.640000", "185339.643000", "185339.646000", "185339.649000", "185339.652000", "185339.655000", "185339.658000", "185339.661000", "185339.664000", "185339.667000", "185339.670000", "185359.498000", "185359.501000", "185359.504000", "185359.507000", "185359.510000", "185359.513000", "185359.516000", "185359.523000", "185359.526000", "185359.529000", "185359.531000", "185359.534000", "185359.537000", "185359.540000", "185359.543000", "185359.546000", "185359.549000", "185359.552000", "185359.555000", "185359.558000", "185359.561000", "185419.498000", "185419.501000", "185419.504000", "185419.507000", "185419.510000", "185419.513000", "185419.516000", "185419.519000", "185419.522000", "185419.525000", "185419.528000", "185419.531000", "185419.534000", "185419.537000", "185419.540000", "185419.542000", "185419.545000", "185419.548000", "185419.551000", "185419.554000", "185459.498000", "185459.501000", "185459.504000", "185459.507000", "185459.510000", "185459.513000", "185459.516000", "185459.519000", "185459.522000", "185459.525000", "185459.528000", "185459.530000", "185459.533000", "185459.536000", "185459.539000", "185459.542000", "185459.545000", "185459.548000", "185459.551000", "185459.554000", "185459.557000", "185459.560000", "185459.563000", "185459.566000", "185459.569000", "185459.578000", "185459.581000", "185459.584000", "185459.587000", "185459.590000", "185459.593000", "185459.595000", "185539.499000", "185539.502000", "185539.505000", "185539.509000", "185539.512000", "185539.515000", "185539.518000", "185539.521000", "185539.524000", "185539.527000", "185539.538000", "185539.540000", "185539.543000", "185539.546000", "185539.549000", "185539.552000", "185539.555000", "185539.558000", "185539.561000", "185539.564000", "185539.567000", "185539.570000", "185539.573000", "185539.576000", "185539.579000", "185539.582000", "185619.498000", "185619.501000", "185619.504000", "185619.507000", "185619.510000", "185619.513000", "185619.516000", "185619.519000", "185619.522000", "185619.525000", "185619.528000", "185619.531000", "185619.534000", "185619.536000", "185619.539000", "185619.542000", "185619.545000", "185619.548000", "185619.551000", "185619.554000", "185619.557000", "185619.560000", "185619.563000", "185619.566000", "185619.569000", "185619.572000", "185619.575000", "185659.498000", "185659.501000", "185659.504000", "185659.507000", "185659.510000", "185659.513000", "185659.516000", "185659.519000", "185659.522000", "185659.525000", "185659.528000", "185659.531000", "185659.534000", "185659.537000", "185659.540000", "185659.543000", "185659.546000", "185659.549000", "185659.561000", "185659.564000", "185659.567000", "185659.570000", "185659.573000", "185659.576000", "185659.579000", "185659.582000", "185659.585000", "185739.499000", "185739.502000", "185739.505000", "185739.508000", "185739.511000", "185739.514000", "185739.517000", "185739.520000", "185739.523000", "185739.526000", "185739.529000", "185739.532000", "185739.535000", "185739.538000", "185739.541000", "185739.544000", "185739.557000", "185739.560000", "185739.563000", "185739.566000", "185739.569000", "185739.572000", "185739.575000", "185739.578000", "185739.581000", "185739.584000", "185739.587000", "185819.499000", "185819.502000", "185819.505000", "185819.508000", "185819.511000", "185819.514000", "185819.517000", "185819.520000", "185819.523000", "185819.526000", "185819.529000", "185819.532000", "185819.535000", "185819.538000", "185819.541000", "185819.544000", "185819.547000", "185819.550000", "185819.553000", "185819.556000", "185819.559000", "185819.561000", "185819.564000", "185819.567000", "185819.570000", "185819.573000", "185819.576000", "185859.498000", "185859.501000", "185859.504000", "185859.507000", "185859.510000", "185859.513000", "185859.516000", "185859.519000", "185859.522000", "185859.525000", "185859.528000", "185859.531000", "185859.534000", "185859.537000", "185859.540000", "185859.543000", "185859.546000", "185859.549000", "185859.552000", "185859.554000", "185859.557000", "185859.561000", "185859.564000", "185859.567000", "185859.570000", "185859.572000", "185859.575000", "185939.498000", "185939.501000", "185939.504000", "185939.507000", "185939.510000", "185939.514000", "185939.517000", "185939.520000", "185939.523000", "185939.526000", "185939.529000", "185939.532000", "185939.535000", "185939.538000", "185939.541000", "185939.544000", "185939.547000", "185939.550000", "185939.553000", "185939.556000", "185939.559000", "185939.561000", "185939.564000", "185939.567000", "185939.570000", "185939.573000", "190019.499000", "190019.502000", "190019.505000", "190019.508000", "190019.511000", "190019.514000", "190019.517000", "190019.520000", "190019.523000", "190019.526000", "190019.529000", "190019.532000", "190019.535000", "190019.538000", "190019.541000", "190019.544000", "190019.547000", "190019.550000", "190019.553000", "190019.556000", "190019.559000", "190019.562000", "190019.565000", "190019.568000", "190019.571000", "190019.574000", "190019.577000", "190059.498000", "190059.501000", "190059.504000", "190059.507000", "190059.510000", "190059.513000", "190059.516000", "190059.519000", "190059.522000", "190059.525000", "190059.528000", "190059.531000", "190059.534000", "190059.537000", "190059.540000", "190059.543000", "190059.546000", "190059.549000", "190059.552000", "190059.555000", "190059.558000", "190059.561000", "190059.564000", "190059.567000", "190059.569000", "190059.572000", "190059.576000", "190139.498000", "190139.501000", "190139.504000", "190139.507000", "190139.510000", "190139.513000", "190139.516000", "190139.519000", "190139.522000", "190139.525000", "190139.528000", "190139.531000", "190139.534000", "190139.537000", "190139.540000", "190139.543000", "190139.546000", "190139.549000", "190139.552000", "190139.555000", "190139.558000", "190139.561000", "190139.564000", "190139.567000", "190139.570000", "190139.573000", "190139.576000", "190219.499000", "190219.502000", "190219.505000", "190219.508000", "190219.511000", "190219.514000", "190219.517000", "190219.520000", "190219.523000", "190219.526000", "190219.529000", "190219.532000", "190219.543000", "190219.546000", "190219.549000", "190219.552000", "190219.555000", "190219.558000", "190219.561000", "190219.564000", "190219.567000", "190219.570000", "190219.573000", "190219.576000", "190219.579000", "190219.582000", "190219.585000", "190259.499000", "190259.502000", "190259.505000", "190259.508000", "190259.511000", "190259.514000", "190259.517000", "190259.520000", "190259.523000", "190259.526000", "190259.529000", "190259.532000", "190259.535000", "190259.538000", "190259.541000", "190259.543000", "190259.546000", "190259.549000", "190259.552000", "190259.555000", "190259.558000", "190259.561000", "190259.564000", "190259.567000", "190259.570000", "190259.573000", "190259.576000", "190339.498000", "190339.501000", "190339.504000", "190339.507000", "190339.510000", "190339.513000", "190339.516000", "190339.519000", "190339.522000", "190339.525000", "190339.528000", "190339.531000", "190339.534000", "190339.537000", "190339.540000", "190339.543000", "190339.545000", "190339.549000", "190339.551000", "190339.554000", "190339.557000", "190339.560000", "190339.563000", "190339.566000", "190339.569000", "190339.572000", "190339.575000", "190419.498000", "190419.501000", "190419.504000", "190419.508000", "190419.511000", "190419.514000", "190419.517000", "190419.520000", "190419.523000", "190419.526000", "190419.529000", "190419.532000", "190419.535000", "190419.538000", "190419.541000", "190419.544000", "190419.547000", "190419.550000", "190419.553000", "190419.556000", "190419.559000", "190419.562000", "190419.565000", "190419.568000", "190419.571000", "190419.574000", "190428.638000", "190428.641000", "190428.644000", "190428.647000", "190428.650000", "190428.653000", "190428.656000"],
