{
  "AcquisitionMatrixPE": 104,
  "AcquisitionNumber": 1,
  "AcquisitionTime": "19:06:36.085000",
  "BandwidthPerPixelPhaseEncode": 17.17,
  "BaseResolution": 104,
  "BodyPartExamined": "BRAIN",
  "CoilCombinationMethod": "Sum of Squares",
  "ConsistencyInfo": "N4_VE11C_LATEST_20160120",
  "ConversionSoftware": "dcm2niix",
  "ConversionSoftwareVersion": "v1.0.20230411",
  "DerivedVendorReportedEchoSpacing": 0.000560011,
  "DeviceSerialNumber": "167006",
  "DwellTime": 2.1e-06,
  "EchoTime": 0.037,
  "EchoTrainLength": 104,
  "EffectiveEchoSpacing": 0.000560011,
  "FlipAngle": 52,
  "HeudiconvVersion": "0.5.3.post861+ge7d3c7f",
  "ImageComments": "Unaliased MB4/PE3/LB",
  "ImageOrientationPatientDICOM": [0.999596, -0.0223506, -0.0175421, 0.0141324, 0.926732, -0.375457],
  "ImageOrientationText": "Tra>Cor(-22.0)>Sag(-1.4)",
  "ImageType": [
    "ORIGINAL",
    "PRIMARY",
    "M",
    "MB",
    "ND",
    "MOSAIC"
],
  "ImagingFrequency": 123.249736,
  "InPlanePhaseEncodingDirectionDICOM": "COL",
  "InstitutionAddress": "Chemin Queen-Mary 4565,Montreal,District,CA,H3W 1W5",
  "InstitutionName": "IUGM",
  "InstitutionalDepartmentName": "Department",
  "MRAcquisitionType": "2D",
  "MagneticFieldStrength": 3,
  "Manufacturer": "Siemens",
  "ManufacturersModelName": "Prisma_fit",
  "MatrixCoilMode": "SENSE",
  "Modality": "MR",
  "MultibandAccelerationFactor": 4,
  "NonlinearGradientCorrection": false,
  "PartialFourier": 1,
  "PatientPosition": "HFS",
  "PercentPhaseFOV": 100,
  "PercentSampling": 100,
  "PhaseEncodingDirection": "j",
  "PhaseEncodingSteps": 104,
  "PhaseResolution": 1,
  "PixelBandwidth": 2290,
  "ProcedureStepDescription": "video^friends",
  "ProtocolName": "func_task-friends-s07e02a",
  "PulseSequenceDetails": "%CustomerSeq%\\cmrr_mbep2d_bold",
  "ReceiveCoilActiveElements": "HC1-7;NC1,2",
  "ReceiveCoilName": "HeadNeck_64",
  "ReconMatrixPE": 104,
  "RepetitionTime": 1.49,
  "SAR": 0.0631761,
  "ScanOptions": "FS",
  "ScanningSequence": "EP",
  "SequenceName": "epfid2d1_104",
  "SequenceVariant": "SK\\SS",
  "SeriesDescription": "func_task-friends-s07e02a",
  "SeriesNumber": 14,
  "ShimSetting": [584, -7277, -8822, 397, 0, -358, -39, 84],
  "SliceThickness": 2,
  "SliceTiming": [0, 0.7825, 0.0975, 0.88, 0.195, 0.9775, 0.2925, 1.0775, 0.39, 1.175, 0.4875, 1.2725, 0.5875, 1.37, 0.685, 0, 0.7825, 0.0975, 0.88, 0.195, 0.9775, 0.2925, 1.0775, 0.39, 1.175, 0.4875, 1.2725, 0.5875, 1.37, 0.685, 0, 0.7825, 0.0975, 0.88, 0.195, 0.9775, 0.2925, 1.0775, 0.39, 1.175, 0.4875, 1.2725, 0.5875, 1.37, 0.685, 0, 0.7825, 0.0975, 0.88, 0.195, 0.9775, 0.2925, 1.0775, 0.39, 1.175, 0.4875, 1.2725, 0.5875, 1.37, 0.685],
  "SoftwareVersions": "syngo MR E11",
  "SpacingBetweenSlices": 2,
  "StationName": "MRC35049",
  "TaskName": "s07e02a",
  "TotalReadoutTime": 0.0576811,
  "TxRefAmp": 280.368,
  "WipMemBlock": "deadf54d-56d9-49ad-99d2-d3b9fbf8d326||Sequence: R017 ve11c/master r/75a17815+; Jun 28 2022 16:32:11 by eja",
  "dcmmeta_affine": [
    [-1.9991925954818726, 0.028264885768294334, -0.049297116696834564, 99.97076416015625],
    [0.04470127820968628, 1.853464126586914, -0.7501150965690613, -68.62274169921875],
    [-0.035084258764982224, 0.7509140968322754, 1.8533475399017334, -61.045989990234375],
    [0.0, 0.0, 0.0, 1.0]
],
  "dcmmeta_reorient_transform": [
    [0.0, -1.0, 0.0, 103.0],
    [1.0, 0.0, 0.0, 0.0],
    [0.0, 0.0, 1.0, 0.0],
    [0.0, 0.0, 0.0, 1.0]
],
  "dcmmeta_shape": [104, 104, 60, 492],
  "dcmmeta_slice_dim": 2,
  "dcmmeta_version": 0.6,
  "global": {
    "const": {
      "AcquisitionMatrix": [104, 0, 0, 104],
      "AngioFlag": "N",
      "BitsAllocated": 16,
      "BitsStored": 16,
      "BodyPartExamined": "BRAIN",
      "Columns": 832,
      "EchoNumbers": 1,
      "EchoTime": 37.0,
      "EchoTrainLength": 104,
      "FlipAngle": 52.0,
      "HighBit": 15,
      "ImageOrientationPatient": [0.99959627983516, -0.0223506383676, -0.0175421294112, 0.01413244247247, 0.92673204726432, -0.3754570370136],
      "ImagePositionPatient": [-840.87656064708, -780.67372766409, 302.40155310851],
      "ImageType": [
        "ORIGINAL",
        "PRIMARY",
        "M",
        "MB",
        "ND",
        "MOSAIC"
],
      "ImagedNucleus": "1H",
      "ImagingFrequency": 123.249736,
      "InPlanePhaseEncodingDirection": "COL",
      "MRAcquisitionType": "2D",
      "MagneticFieldStrength": 3.0,
      "Manufacturer": "SIEMENS",
      "ManufacturerModelName": "Prisma_fit",
      "Modality": "MR",
      "NumberOfAverages": 1.0,
      "NumberOfPhaseEncodingSteps": 104,
      "PercentPhaseFieldOfView": 100.0,
      "PercentSampling": 100.0,
      "PerformedProcedureStepStartTime": "183126.322000",
      "PhotometricInterpretation": "MONOCHROME2",
      "PixelBandwidth": 2290.0,
      "PixelRepresentation": 0,
      "PixelSpacing": [2.0, 2.0],
      "ProtocolName": "func_task-friends-s07e02a",
      "RepetitionTime": 1490.0,
      "Rows": 832,
      "SAR": 0.06317608172085,
      "SamplesPerPixel": 1,
      "ScanOptions": "FS",
      "ScanningSequence": "EP",
      "SequenceName": "epfid2d1_104",
      "SequenceVariant": [
        "SK",
        "SS"
],
      "SeriesDescription": "func_task-friends-s07e02a",
      "SeriesNumber": 14,
      "SeriesTime": "190751.189000",
      "SliceLocation": -33.296376765309,
      "SliceThickness": 2.0,
      "SmallestImagePixelValue": 0,
      "SoftwareVersions": "syngo MR E11",
      "SpacingBetweenSlices": 1.9999999686863,
      "SpecificCharacterSet": "ISO_IR 100",
      "StudyID": "1",
      "StudyTime": "183126.246000",
      "TransmitCoilName": "Body",
      "VariableFlipAngleFlag": "N",
      "WindowCenterWidthExplanation": "Algo1",
      "dBdt": 0.0},
    "slices": {}
  },
  "time": {
    "samples": {
      "AcquisitionNumber": [1, 2, 3, 4, 5, 6, 7, 8, 9, 10, 11, 12, 13, 14, 15, 16, 17, 18, 19, 20, 21, 22, 23, 24, 25, 26, 27, 28, 29, 30, 31, 32, 33, 34, 35, 36, 37, 38, 39, 40, 41, 42, 43, 44, 45, 46, 47, 48, 49, 50, 51, 52, 53, 54, 55, 56, 57, 58, 59, 60, 61, 62, 63, 64, 65, 66, 67, 68, 69, 70, 71, 72, 73, 74, 75, 76, 77, 78, 79, 80, 81, 82, 83, 84, 85, 86, 87, 88, 89, 90, 91, 92, 93, 94, 95, 96, 97, 98, 99, 100, 101, 102, 103, 104, 105, 106, 107, 108, 109, 110, 111, 112, 113, 114, 115, 116, 117, 118, 119, 120, 121, 122, 123, 124, 125, 126, 127, 128, 129, 130, 131, 132, 133, 134, 135, 136, 137, 138, 139, 140, 141, 142, 143, 144, 145, 146, 147, 148, 149, 150, 151, 152, 153, 154, 155, 156, 157, 158, 159, 160, 161, 162, 163, 164, 165, 166, 167, 168, 169, 170, 171, 172, 173, 174, 175, 176, 177, 178, 179, 180, 181, 182, 183, 184, 185, 186, 187, 188, 189, 190, 191, 192, 193, 194, 195, 196, 197, 198, 199, 200, 201, 202, 203, 204, 205, 206, 207, 208, 209, 210, 211, 212, 213, 214, 215, 216, 217, 218, 219, 220, 221, 222, 223, 224, 225, 226, 227, 228, 229, 230, 231, 232, 233, 234, 235, 236, 237, 238, 239, 240, 241, 242, 243, 244, 245, 246, 247, 248, 249, 250, 251, 252, 253, 254, 255, 256, 257, 258, 259, 260, 261, 262, 263, 264, 265, 266, 267, 268, 269, 270, 271, 272, 273, 274, 275, 276, 277, 278, 279, 280, 281, 282, 283, 284, 285, 286, 287, 288, 289, 290, 291, 292, 293, 294, 295, 296, 297, 298, 299, 300, 301, 302, 303, 304, 305, 306, 307, 308, 309, 310, 311, 312, 313, 314, 315, 316, 317, 318, 319, 320, 321, 322, 323, 324, 325, 326, 327, 328, 329, 330, 331, 332, 333, 334, 335, 336, 337, 338, 339, 340, 341, 342, 343, 344, 345, 346, 347, 348, 349, 350, 351, 352, 353, 354, 355, 356, 357, 358, 359, 360, 361, 362, 363, 364, 365, 366, 367, 368, 369, 370, 371, 372, 373, 374, 375, 376, 377, 378, 379, 380, 381, 382, 383, 384, 385, 386, 387, 388, 389, 390, 391, 392, 393, 394, 395, 396, 397, 398, 399, 400, 401, 402, 403, 404, 405, 406, 407, 408, 409, 410, 411, 412, 413, 414, 415, 416, 417, 418, 419, 420, 421, 422, 423, 424, 425, 426, 427, 428, 429, 430, 431, 432, 433, 434, 435, 436, 437, 438, 439, 440, 441, 442, 443, 444, 445, 446, 447, 448, 449, 450, 451, 452, 453, 454, 455, 456, 457, 458, 459, 460, 461, 462, 463, 464, 465, 466, 467, 468, 469, 470, 471, 472, 473, 474, 475, 476, 477, 478, 479, 480, 481, 482, 483, 484, 485, 486, 487, 488, 489, 490, 491, 492],
      "AcquisitionTime": ["190636.085000", "190637.575000", "190639.065000", "190640.555000", "190642.045000", "190643.535000", "190645.025000", "190646.515000", "190648.005000", "190649.495000", "190650.985000", "190652.475000", "190653.965000", "190655.455000", "190656.945000", "190658.435000", "190659.925000", "190701.415000", "190702.905000", "190704.395000", "190705.885000", "190707.375000", "190708.865000", "190710.355000", "190711.845000", "190713.335000", "190714.825000", "190716.315000", "190717.805000", "190719.295000", "190720.785000", "190722.275000", "190723.765000", "190725.255000", "190726.745000", "190728.235000", "190729.725000", "190731.215000", "190732.705000", "190734.195000", "190735.685000", "190737.175000", "190738.665000", "190740.155000", "190741.645000", "190743.135000", "190744.625000", "190746.115000", "190747.605000", "190749.095000", "190750.585000", "190752.075000", "190753.565000", "190755.055000", "190756.545000", "190758.035000", "190759.525000", "190801.015000", "190802.505000", "190803.995000", "190805.485000", "190806.975000", "190808.465000", "190809.955000", "190811.445000", "190812.935000", "190814.425000", "190815.915000", "190817.405000", "190818.895000", "190820.385000", "190821.875000", "190823.365000", "190824.855000", "190826.345000", "190827.835000", "190829.325000", "190830.815000", "190832.305000", "190833.795000", "190835.285000", "190836.775000", "190838.265000", "190839.755000", "190841.245000", "190842.735000", "190844.225000", "190845.715000", "190847.205000", "190848.695000", "190850.185000", "190851.675000", "190853.165000", "190854.655000", "190856.145000", "190857.635000", "190859.125000", "190900.615000", "190902.105000", "190903.595000", "190905.085000", "190906.575000", "190908.065000", "190909.555000", "190911.045000", "190912.535000", "190914.025000", "190915.515000", "190917.005000", "190918.495000", "190919.985000", "190921.475000", "190922.965000", "190924.455000", "190925.945000", "190927.435000", "190928.925000", "190930.415000", "190931.905000", "190933.395000", "190934.885000", "190936.375000", "190937.865000", "190939.355000", "190940.845000", "190942.335000", "190943.825000", "190945.315000", "190946.805000", "190948.295000", "190949.785000", "190951.275000", "190952.765000", "190954.255000", "190955.745000", "190957.235000", "190958.725000", "191000.215000", "191001.705000", "191003.195000", "191004.685000", "191006.175000", "191007.665000", "191009.155000", "191010.645000", "191012.135000", "191013.625000", "191015.115000", "191016.605000", "191018.095000", "191019.585000", "191021.075000", "191022.565000", "191024.055000", "191025.545000", "191027.035000", "191028.525000", "191030.015000", "191031.505000", "191032.995000", "191034.485000", "191035.975000", "191037.465000", "191038.955000", "191040.445000", "191041.935000", "191043.425000", "191044.915000", "191046.405000", "191047.895000", "191049.385000", "191050.875000", "191052.365000", "191053.855000", "191055.345000", "191056.835000", "191058.325000", "191059.815000", "191101.305000", "191102.795000", "191104.285000", "191105.775000", "191107.265000", "191108.755000", "191110.245000", "191111.735000", "191113.225000", "191114.715000", "191116.205000", "191117.695000", "191119.185000", "191120.675000", "191122.165000", "191123.655000", "191125.145000", "191126.635000", "191128.125000", "191129.615000", "191131.105000", "191132.595000", "191134.085000", "191135.575000", "191137.065000", "191138.555000", "191140.045000", "191141.535000", "191143.025000", "191144.515000", "191146.005000", "191147.495000", "191148.985000", "191150.475000", "191151.965000", "191153.455000", "191154.945000", "191156.435000", "191157.925000", "191159.415000", "191200.905000", "191202.395000", "191203.885000", "191205.375000", "191206.865000", "191208.355000", "191209.845000", "191211.335000", "191212.825000", "191214.315000", "191215.805000", "191217.295000", "191218.785000", "191220.275000", "191221.765000", "191223.255000", "191224.745000", "191226.235000", "191227.725000", "191229.215000", "191230.705000", "191232.195000", "191233.685000", "191235.175000", "191236.665000", "191238.155000", "191239.645000", "191241.135000", "191242.625000", "191244.115000", "191245.605000", "191247.095000", "191248.585000", "191250.075000", "191251.565000", "191253.055000", "191254.545000", "191256.035000", "191257.525000", "191259.015000", "191300.505000", "191301.995000", "191303.485000", "191304.975000", "191306.465000", "191307.955000", "191309.445000", "191310.935000", "191312.425000", "191313.915000", "191315.405000", "191316.895000", "191318.385000", "191319.875000", "191321.365000", "191322.855000", "191324.345000", "191325.835000", "191327.325000", "191328.815000", "191330.305000", "191331.795000", "191333.285000", "191334.775000", "191336.265000", "191337.755000", "191339.245000", "191340.735000", "191342.225000", "191343.715000", "191345.205000", "191346.695000", "191348.185000", "191349.675000", "191351.165000", "191352.655000", "191354.145000", "191355.635000", "191357.125000", "191358.615000", "191400.105000", "191401.595000", "191403.085000", "191404.575000", "191406.065000", "191407.555000", "191409.045000", "191410.535000", "191412.025000", "191413.515000", "191415.005000", "191416.495000", "191417.985000", "191419.475000", "191420.965000", "191422.455000", "191423.945000", "191425.435000", "191426.925000", "191428.415000", "191429.905000", "191431.395000", "191432.885000", "191434.375000", "191435.865000", "191437.355000", "191438.845000", "191440.335000", "191441.825000", "191443.315000", "191444.805000", "191446.295000", "191447.785000", "191449.275000", "191450.765000", "191452.255000", "191453.745000", "191455.235000", "191456.725000", "191458.215000", "191459.705000", "191501.195000", "191502.685000", "191504.175000", "191505.665000", "191507.155000", "191508.645000", "191510.135000", "191511.625000", "191513.115000", "191514.605000", "191516.095000", "191517.585000", "191519.075000", "191520.565000", "191522.055000", "191523.545000", "191525.035000", "191526.525000", "191528.015000", "191529.505000", "191530.995000", "191532.485000", "191533.975000", "191535.465000", "191536.955000", "191538.445000", "191539.935000", "191541.425000", "191542.915000", "191544.405000", "191545.895000", "191547.385000", "191548.875000", "191550.365000", "191551.855000", "191553.345000", "191554.835000", "191556.325000", "191557.815000", "191559.305000", "191600.795000", "191602.285000", "191603.775000", "191605.265000", "191606.755000", "191608.245000", "191609.735000", "191611.225000", "191612.715000", "191614.205000", "191615.695000", "191617.185000", "191618.675000", "191620.165000", "191621.655000", "191623.145000", "191624.635000", "191626.125000", "191627.615000", "191629.105000", "191630.595000", "191632.085000", "191633.575000", "191635.065000", "191636.555000", "191638.045000", "191639.535000", "191641.025000", "191642.515000", "191644.005000", "191645.495000", "191646.985000", "191648.475000", "191649.965000", "191651.455000", "191652.945000", "191654.435000", "191655.925000", "191657.415000", "191658.905000", "191700.395000", "191701.885000", "191703.375000", "191704.865000", "191706.355000", "191707.845000", "191709.335000", "191710.825000", "191712.315000", "191713.805000", "191715.295000", "191716.785000", "191718.275000", "191719.765000", "191721.255000", "191722.745000", "191724.235000", "191725.725000", "191727.215000", "191728.705000", "191730.195000", "191731.685000", "191733.175000", "191734.665000", "191736.155000", "191737.645000", "191739.135000", "191740.625000", "191742.115000", "191743.605000", "191745.095000", "191746.585000", "191748.075000", "191749.565000", "191751.055000", "191752.545000", "191754.035000", "191755.525000", "191757.015000", "191758.505000", "191759.995000", "191801.485000", "191802.975000", "191804.465000", "191805.955000", "191807.445000", "191808.935000", "191810.425000", "191811.915000", "191813.405000", "191814.895000", "191816.385000", "191817.875000", "191819.365000", "191820.855000", "191822.345000", "191823.835000", "191825.325000", "191826.815000", "191828.305000", "191829.795000", "191831.285000", "191832.775000", "191834.265000", "191835.755000", "191837.245000", "191838.735000", "191840.225000", "191841.715000", "191843.205000", "191844.695000", "191846.185000", "191847.675000"],
      "ContentTime": ["190751.192000", "190751.196000", "190751.199000", "190751.201000", "190751.211000", "190751.223000", "190751.226000", "190751.229000", "190751.232000", "190751.235000", "190751.238000", "190751.241000", "190751.244000", "190751.247000", "190751.250000", "190751.253000", "190751.255000", "190751.258000", "190751.261000", "190751.264000", "190751.267000", "190751.270000", "190751.273000", "190751.276000", "190751.279000", "190751.282000", "190811.164000", "190811.167000", "190811.170000", "190811.173000", "190811.176000", "190811.179000", "190811.182000", "190811.185000", "190811.188000", "190811.191000", "190811.194000", "190811.197000", "190811.200000", "190811.203000", "190811.206000", "190811.208000", "190811.211000", "190811.214000", "190811.217000", "190811.232000", "190831.163000", "190831.166000", "190831.169000", "190831.172000", "190831.175000", "190831.178000", "190831.181000", "190831.184000", "190831.187000", "190831.190000", "190831.193000", "190831.195000", "190831.198000", "190831.209000", "190831.211000", "190831.215000", "190831.218000", "190831.221000", "190831.238000", "190831.241000", "190851.163000", "190851.166000", "190851.169000", "190851.172000", "190851.175000", "190851.178000", "190851.181000", "190851.187000", "190851.190000", "190851.193000", "190851.196000", "190851.199000", "190851.202000", "190851.205000", "190851.208000", "190851.211000", "190851.213000", "190851.216000", "190851.219000", "190851.222000", "190851.225000", "190931.163000", "190931.166000", "190931.169000", "190931.172000", "190931.175000", "190931.178000", "190931.181000", "190931.184000", "190931.187000", "190931.190000", "190931.193000", "190931.196000", "190931.199000", "190931.202000", "190931.205000", "190931.208000", "190931.211000", "190931.213000", "190931.216000", "190931.219000", "190931.222000", "190931.225000", "190931.228000", "190931.231000", "190931.234000", "190931.237000", "190931.240000", "190931.243000", "190931.246000", "190931.249000", "191011.164000", "191011.167000", "191011.170000", "191011.173000", "191011.176000", "191011.179000", "191011.182000", "191011.185000", "191011.188000", "191011.191000", "191011.194000", "191011.197000", "191011.200000", "191011.203000", "191011.206000", "191011.209000", "191011.212000", "191011.215000", "191011.218000", "191011.221000", "191011.224000", "191011.227000", "191011.230000", "191011.232000", "191011.235000", "191011.238000", "191011.241000", "191051.163000", "191051.166000", "191051.169000", "191051.172000", "191051.175000", "191051.178000", "191051.181000", "191051.184000", "191051.187000", "191051.190000", "191051.193000", "191051.196000", "191051.199000", "191051.212000", "191051.215000", "191051.218000", "191051.221000", "191051.224000", "191051.226000", "191051.229000", "191051.232000", "191051.235000", "191051.238000", "191051.241000", "191051.244000", "191051.247000", "191051.250000", "191131.163000", "191131.258000", "191131.261000", "191131.264000", "191131.267000", "191131.270000", "191131.273000", "191131.276000", "191131.279000", "191131.282000", "191131.285000", "191131.288000", "191131.291000", "191131.294000", "191131.297000", "191131.300000", "191131.303000", "191131.306000", "191131.309000", "191131.312000", "191131.315000", "191131.318000", "191131.321000", "191131.323000", "191131.326000", "191131.329000", "191211.163000", "191211.166000", "191211.169000", "191211.172000", "191211.175000", "191211.178000", "191211.181000", "191211.184000", "191211.187000", "191211.190000", "191211.193000", "191211.196000", "191211.199000", "191211.202000", "191211.205000", "191211.208000", "191211.211000", "191211.214000", "191211.217000", "191211.220000", "191211.223000", "191211.226000", "191211.229000", "191211.232000", "191211.235000", "191211.237000", "191211.240000", "191251.164000", "191251.167000", "191251.170000", "191251.173000", "191251.176000", "191251.180000", "191251.183000", "191251.186000", "191251.189000", "191251.192000", "191251.195000", "191251.198000", "191251.200000", "191251.203000", "191251.206000", "191251.209000", "191251.212000", "191251.215000", "191251.218000", "191251.221000", "191251.224000", "191251.227000", "191251.230000", "191251.233000", "191251.236000", "191251.239000", "191251.242000", "191331.163000", "191331.166000", "191331.169000", "191331.172000", "191331.175000", "191331.178000", "191331.181000", "191331.184000", "191331.187000", "191331.200000", "191331.203000", "191331.206000", "191331.209000", "191331.212000", "191331.215000", "191331.218000", "191331.221000", "191331.224000", "191331.227000", "191331.230000", "191331.233000", "191331.236000", "191331.239000", "191331.242000", "191331.245000", "191331.248000", "191331.251000", "191411.163000", "191411.166000", "191411.169000", "191411.172000", "191411.175000", "191411.178000", "191411.181000", "191411.184000", "191411.187000", "191411.190000", "191411.193000", "191411.196000", "191411.199000", "191411.202000", "191411.205000", "191411.208000", "191411.211000", "191411.214000", "191411.217000", "191411.220000", "191411.223000", "191411.226000", "191411.229000", "191411.232000", "191411.235000", "191411.238000", "191411.241000", "191451.164000", "191451.167000", "191451.170000", "191451.173000", "191451.176000", "191451.179000", "191451.182000", "191451.194000", "191451.198000", "191451.200000", "191451.203000", "191451.206000", "191451.209000", "191451.212000", "191451.215000", "191451.218000", "191451.221000", "191451.224000", "191451.227000", "191451.230000", "191451.233000", "191451.236000", "191451.239000", "191451.242000", "191451.245000", "191451.248000", "191451.251000", "191531.163000", "191531.172000", "191531.175000", "191531.178000", "191531.181000", "191531.184000", "191531.187000", "191531.190000", "191531.193000", "191531.196000", "191531.199000", "191531.202000", "191531.205000", "191531.208000", "191531.211000", "191531.214000", "191531.217000", "191531.220000", "191531.223000", "191531.226000", "191531.229000", "191531.232000", "191531.235000", "191531.238000", "191531.241000", "191531.244000", "191611.163000", "191611.166000", "191611.169000", "191611.172000", "191611.175000", "191611.178000", "191611.181000", "191611.184000", "191611.187000", "191611.190000", "191611.193000", "191611.196000", "191611.199000", "191611.202000", "191611.205000", "191611.208000", "191611.211000", "191611.214000", "191611.217000", "191611.220000", "191611.223000", "191611.226000", "191611.229000", "191611.232000", "191611.235000", "191611.238000", "191611.240000", "191651.163000", "191651.166000", "191651.169000", "191651.172000", "191651.175000", "191651.178000", "191651.181000", "191651.184000", "191651.187000", "191651.190000", "191651.193000", "191651.196000", "191651.199000", "191651.202000", "191651.205000", "191651.208000", "191651.211000", "191651.214000", "191651.217000", "191651.220000", "191651.223000", "191651.226000", "191651.229000", "191651.232000", "191651.235000", "191651.238000", "191651.247000", "191731.164000", "191731.167000", "191731.170000", "191731.173000", "191731.176000", "191731.179000", "191731.182000", "191731.185000", "191731.188000", "191731.191000", "191731.197000", "191731.200000", "191731.203000", "191731.206000", "191731.209000", "191731.212000", "191731.215000", "191731.218000", "191731.221000", "191731.224000", "191731.227000", "191731.230000", "191731.233000", "191731.236000", "191731.239000", "191731.242000", "191731.245000", "191811.163000", "191811.166000", "191811.169000", "191811.172000", "191811.175000", "191811.189000", "191811.192000", "191811.195000", "191811.198000", "191811.201000", "191811.204000", "191811.216000", "191811.219000", "191811.222000", "191811.225000", "191811.228000", "191811.231000", "191811.234000", "191811.237000", "191811.240000", "191811.243000", "191811.246000", "191811.249000", "191811.252000", "191811.255000", "191811.258000", "191811.261000", "191849.385000", "191849.388000", "191849.391000", "191849.394000", "191849.397000", "191849.400000", "191849.403000", "191849.406000", "191849.409000", "191849.412000", "191849.415000", "191849.418000", "191849.421000", "191849.424000", "191849.427000", "191849.430000", "191849.433000", "191849.436000", "191849.439000", "191849.442000", "191849.445000", "191849.448000", "191849.451000", "191849.454000", "191849.457000", "191849.460000"],
