{
  "AcquisitionMatrixPE": 104,
  "AcquisitionNumber": 1,
  "AcquisitionTime": "19:36:1.152500",
  "BandwidthPerPixelPhaseEncode": 17.17,
  "BaseResolution": 104,
  "BodyPartExamined": "BRAIN",
  "CoilCombinationMethod": "Sum of Squares",
  "ConsistencyInfo": "N4_VE11C_LATEST_20160120",
  "ConversionSoftware": "dcm2niix",
  "ConversionSoftwareVersion": "v1.0.20230411",
  "DerivedVendorReportedEchoSpacing": 0.000560011,
  "DeviceSerialNumber": "167006",
  "DwellTime": 2.1e-06,
  "EchoTime": 0.037,
  "EchoTrainLength": 104,
  "EffectiveEchoSpacing": 0.000560011,
  "FlipAngle": 52,
  "HeudiconvVersion": "0.5.3.post861+ge7d3c7f",
  "ImageComments": "Unaliased MB4/PE3/LB",
  "ImageOrientationPatientDICOM": [0.999596, -0.0223506, -0.0175421, 0.0141324, 0.926732, -0.375457],
  "ImageOrientationText": "Tra>Cor(-22.0)>Sag(-1.4)",
  "ImageType": [
    "ORIGINAL",
    "PRIMARY",
    "M",
    "MB",
    "ND",
    "MOSAIC"
],
  "ImagingFrequency": 123.249745,
  "InPlanePhaseEncodingDirectionDICOM": "COL",
  "InstitutionAddress": "Chemin Queen-Mary 4565,Montreal,District,CA,H3W 1W5",
  "InstitutionName": "IUGM",
  "InstitutionalDepartmentName": "Department",
  "MRAcquisitionType": "2D",
  "MagneticFieldStrength": 3,
  "Manufacturer": "Siemens",
  "ManufacturersModelName": "Prisma_fit",
  "MatrixCoilMode": "SENSE",
  "Modality": "MR",
  "MultibandAccelerationFactor": 4,
  "NonlinearGradientCorrection": false,
  "PartialFourier": 1,
  "PatientPosition": "HFS",
  "PercentPhaseFOV": 100,
  "PercentSampling": 100,
  "PhaseEncodingDirection": "j",
  "PhaseEncodingSteps": 104,
  "PhaseResolution": 1,
  "PixelBandwidth": 2290,
  "ProcedureStepDescription": "video^friends",
  "ProtocolName": "func_task-friends-s07e03a",
  "PulseSequenceDetails": "%CustomerSeq%\\cmrr_mbep2d_bold",
  "ReceiveCoilActiveElements": "HC1-7;NC1,2",
  "ReceiveCoilName": "HeadNeck_64",
  "ReconMatrixPE": 104,
  "RepetitionTime": 1.49,
  "SAR": 0.0631761,
  "ScanOptions": "FS",
  "ScanningSequence": "EP",
  "SequenceName": "epfid2d1_104",
  "SequenceVariant": "SK\\SS",
  "SeriesDescription": "func_task-friends-s07e03a",
  "SeriesNumber": 18,
  "ShimSetting": [584, -7277, -8822, 397, 0, -358, -39, 84],
  "SliceThickness": 2,
  "SliceTiming": [0, 0.785, 0.0975, 0.8825, 0.1975, 0.98, 0.295, 1.0775, 0.3925, 1.1775, 0.49, 1.275, 0.5875, 1.3725, 0.6875, 0, 0.785, 0.0975, 0.8825, 0.1975, 0.98, 0.295, 1.0775, 0.3925, 1.1775, 0.49, 1.275, 0.5875, 1.3725, 0.6875, 0, 0.785, 0.0975, 0.8825, 0.1975, 0.98, 0.295, 1.0775, 0.3925, 1.1775, 0.49, 1.275, 0.5875, 1.3725, 0.6875, 0, 0.785, 0.0975, 0.8825, 0.1975, 0.98, 0.295, 1.0775, 0.3925, 1.1775, 0.49, 1.275, 0.5875, 1.3725, 0.6875],
  "SoftwareVersions": "syngo MR E11",
  "SpacingBetweenSlices": 2,
  "StationName": "MRC35049",
  "TaskName": "s07e03a",
  "TotalReadoutTime": 0.0576811,
  "TxRefAmp": 280.368,
  "WipMemBlock": "68f1df0d-28f4-4baa-8848-0a624e21cc35||Sequence: R017 ve11c/master r/75a17815+; Jun 28 2022 16:32:11 by eja",
  "dcmmeta_affine": [
    [-1.9991925954818726, 0.028264885768294334, -0.049297116696834564, 99.97076416015625],
    [0.04470127820968628, 1.853464126586914, -0.7501150965690613, -68.62274169921875],
    [-0.035084258764982224, 0.7509140968322754, 1.8533475399017334, -61.045989990234375],
    [0.0, 0.0, 0.0, 1.0]
],
  "dcmmeta_reorient_transform": [
    [0.0, -1.0, 0.0, 103.0],
    [1.0, 0.0, 0.0, 0.0],
    [0.0, 0.0, 1.0, 0.0],
    [0.0, 0.0, 0.0, 1.0]
],
  "dcmmeta_shape": [104, 104, 60, 417],
  "dcmmeta_slice_dim": 2,
  "dcmmeta_version": 0.6,
  "global": {
    "const": {
      "AcquisitionMatrix": [104, 0, 0, 104],
      "AngioFlag": "N",
      "BitsAllocated": 16,
      "BitsStored": 16,
      "BodyPartExamined": "BRAIN",
      "Columns": 832,
      "EchoNumbers": 1,
      "EchoTime": 37.0,
      "EchoTrainLength": 104,
      "FlipAngle": 52.0,
      "HighBit": 15,
      "ImageOrientationPatient": [0.99959627983516, -0.0223506383676, -0.0175421294112, 0.01413244247247, 0.92673204726432, -0.3754570370136],
      "ImagePositionPatient": [-840.87656064708, -780.67372766409, 302.40155310851],
      "ImageType": [
        "ORIGINAL",
        "PRIMARY",
        "M",
        "MB",
        "ND",
        "MOSAIC"
],
      "ImagedNucleus": "1H",
      "ImagingFrequency": 123.249745,
      "InPlanePhaseEncodingDirection": "COL",
      "MRAcquisitionType": "2D",
      "MagneticFieldStrength": 3.0,
      "Manufacturer": "SIEMENS",
      "ManufacturerModelName": "Prisma_fit",
      "Modality": "MR",
      "NumberOfAverages": 1.0,
      "NumberOfPhaseEncodingSteps": 104,
      "PercentPhaseFieldOfView": 100.0,
      "PercentSampling": 100.0,
      "PerformedProcedureStepStartTime": "183126.322000",
      "PhotometricInterpretation": "MONOCHROME2",
      "PixelBandwidth": 2290.0,
      "PixelRepresentation": 0,
      "PixelSpacing": [2.0, 2.0],
      "ProtocolName": "func_task-friends-s07e03a",
      "RepetitionTime": 1490.0,
      "Rows": 832,
      "SAR": 0.06317607743731,
      "SamplesPerPixel": 1,
      "ScanOptions": "FS",
      "ScanningSequence": "EP",
      "SequenceName": "epfid2d1_104",
      "SequenceVariant": [
        "SK",
        "SS"
],
      "SeriesDescription": "func_task-friends-s07e03a",
      "SeriesNumber": 18,
      "SeriesTime": "193659.532000",
      "SliceLocation": -33.296376765309,
      "SliceThickness": 2.0,
      "SmallestImagePixelValue": 0,
      "SoftwareVersions": "syngo MR E11",
      "SpacingBetweenSlices": 1.9999999686863,
      "SpecificCharacterSet": "ISO_IR 100",
      "StudyID": "1",
      "StudyTime": "183126.246000",
      "TransmitCoilName": "Body",
      "VariableFlipAngleFlag": "N",
      "WindowCenterWidthExplanation": "Algo1",
      "dBdt": 0.0},
    "slices": {}
  },
  "time": {
    "samples": {
      "AcquisitionNumber": [1, 2, 3, 4, 5, 6, 7, 8, 9, 10, 11, 12, 13, 14, 15, 16, 17, 18, 19, 20, 21, 22, 23, 24, 25, 26, 27, 28, 29, 30, 31, 32, 33, 34, 35, 36, 37, 38, 39, 40, 41, 42, 43, 44, 45, 46, 47, 48, 49, 50, 51, 52, 53, 54, 55, 56, 57, 58, 59, 60, 61, 62, 63, 64, 65, 66, 67, 68, 69, 70, 71, 72, 73, 74, 75, 76, 77, 78, 79, 80, 81, 82, 83, 84, 85, 86, 87, 88, 89, 90, 91, 92, 93, 94, 95, 96, 97, 98, 99, 100, 101, 102, 103, 104, 105, 106, 107, 108, 109, 110, 111, 112, 113, 114, 115, 116, 117, 118, 119, 120, 121, 122, 123, 124, 125, 126, 127, 128, 129, 130, 131, 132, 133, 134, 135, 136, 137, 138, 139, 140, 141, 142, 143, 144, 145, 146, 147, 148, 149, 150, 151, 152, 153, 154, 155, 156, 157, 158, 159, 160, 161, 162, 163, 164, 165, 166, 167, 168, 169, 170, 171, 172, 173, 174, 175, 176, 177, 178, 179, 180, 181, 182, 183, 184, 185, 186, 187, 188, 189, 190, 191, 192, 193, 194, 195, 196, 197, 198, 199, 200, 201, 202, 203, 204, 205, 206, 207, 208, 209, 210, 211, 212, 213, 214, 215, 216, 217, 218, 219, 220, 221, 222, 223, 224, 225, 226, 227, 228, 229, 230, 231, 232, 233, 234, 235, 236, 237, 238, 239, 240, 241, 242, 243, 244, 245, 246, 247, 248, 249, 250, 251, 252, 253, 254, 255, 256, 257, 258, 259, 260, 261, 262, 263, 264, 265, 266, 267, 268, 269, 270, 271, 272, 273, 274, 275, 276, 277, 278, 279, 280, 281, 282, 283, 284, 285, 286, 287, 288, 289, 290, 291, 292, 293, 294, 295, 296, 297, 298, 299, 300, 301, 302, 303, 304, 305, 306, 307, 308, 309, 310, 311, 312, 313, 314, 315, 316, 317, 318, 319, 320, 321, 322, 323, 324, 325, 326, 327, 328, 329, 330, 331, 332, 333, 334, 335, 336, 337, 338, 339, 340, 341, 342, 343, 344, 345, 346, 347, 348, 349, 350, 351, 352, 353, 354, 355, 356, 357, 358, 359, 360, 361, 362, 363, 364, 365, 366, 367, 368, 369, 370, 371, 372, 373, 374, 375, 376, 377, 378, 379, 380, 381, 382, 383, 384, 385, 386, 387, 388, 389, 390, 391, 392, 393, 394, 395, 396, 397, 398, 399, 400, 401, 402, 403, 404, 405, 406, 407, 408, 409, 410, 411, 412, 413, 414, 415, 416, 417],
      "AcquisitionTime": ["193601.152500", "193602.642500", "193604.132500", "193605.622500", "193607.112500", "193608.602500", "193610.092500", "193611.582500", "193613.072500", "193614.562500", "193616.052500", "193617.542500", "193619.032500", "193620.522500", "193622.012500", "193623.502500", "193624.992500", "193626.482500", "193627.972500", "193629.462500", "193630.952500", "193632.442500", "193633.932500", "193635.422500", "193636.912500", "193638.402500", "193639.892500", "193641.382500", "193642.872500", "193644.362500", "193645.852500", "193647.342500", "193648.832500", "193650.322500", "193651.812500", "193653.302500", "193654.792500", "193656.282500", "193657.772500", "193659.262500", "193700.752500", "193702.242500", "193703.732500", "193705.222500", "193706.712500", "193708.202500", "193709.692500", "193711.182500", "193712.672500", "193714.162500", "193715.652500", "193717.142500", "193718.632500", "193720.122500", "193721.612500", "193723.102500", "193724.592500", "193726.082500", "193727.572500", "193729.062500", "193730.552500", "193732.042500", "193733.532500", "193735.022500", "193736.512500", "193738.002500", "193739.492500", "193740.982500", "193742.472500", "193743.962500", "193745.452500", "193746.942500", "193748.432500", "193749.922500", "193751.412500", "193752.902500", "193754.392500", "193755.882500", "193757.372500", "193758.862500", "193800.352500", "193801.842500", "193803.332500", "193804.822500", "193806.312500", "193807.802500", "193809.292500", "193810.782500", "193812.272500", "193813.762500", "193815.252500", "193816.742500", "193818.232500", "193819.722500", "193821.212500", "193822.702500", "193824.192500", "193825.682500", "193827.172500", "193828.662500", "193830.152500", "193831.642500", "193833.132500", "193834.622500", "193836.112500", "193837.602500", "193839.092500", "193840.582500", "193842.072500", "193843.562500", "193845.052500", "193846.542500", "193848.032500", "193849.522500", "193851.012500", "193852.502500", "193853.992500", "193855.482500", "193856.972500", "193858.462500", "193859.952500", "193901.442500", "193902.932500", "193904.422500", "193905.912500", "193907.402500", "193908.892500", "193910.382500", "193911.872500", "193913.362500", "193914.852500", "193916.342500", "193917.832500", "193919.322500", "193920.812500", "193922.302500", "193923.792500", "193925.282500", "193926.772500", "193928.262500", "193929.752500", "193931.242500", "193932.732500", "193934.222500", "193935.712500", "193937.202500", "193938.692500", "193940.182500", "193941.672500", "193943.162500", "193944.652500", "193946.142500", "193947.632500", "193949.122500", "193950.612500", "193952.102500", "193953.592500", "193955.082500", "193956.572500", "193958.062500", "193959.552500", "194001.042500", "194002.532500", "194004.022500", "194005.512500", "194007.002500", "194008.492500", "194009.982500", "194011.472500", "194012.962500", "194014.452500", "194015.942500", "194017.432500", "194018.922500", "194020.412500", "194021.902500", "194023.392500", "194024.882500", "194026.372500", "194027.862500", "194029.352500", "194030.842500", "194032.332500", "194033.822500", "194035.312500", "194036.802500", "194038.292500", "194039.782500", "194041.272500", "194042.762500", "194044.252500", "194045.742500", "194047.232500", "194048.722500", "194050.212500", "194051.702500", "194053.192500", "194054.682500", "194056.172500", "194057.662500", "194059.152500", "194100.642500", "194102.132500", "194103.622500", "194105.112500", "194106.602500", "194108.092500", "194109.582500", "194111.072500", "194112.562500", "194114.052500", "194115.542500", "194117.032500", "194118.522500", "194120.012500", "194121.502500", "194122.992500", "194124.482500", "194125.972500", "194127.462500", "194128.952500", "194130.442500", "194131.932500", "194133.422500", "194134.912500", "194136.402500", "194137.892500", "194139.382500", "194140.872500", "194142.362500", "194143.852500", "194145.342500", "194146.832500", "194148.322500", "194149.812500", "194151.302500", "194152.792500", "194154.282500", "194155.772500", "194157.262500", "194158.752500", "194200.242500", "194201.732500", "194203.222500", "194204.712500", "194206.202500", "194207.692500", "194209.182500", "194210.672500", "194212.162500", "194213.652500", "194215.142500", "194216.632500", "194218.122500", "194219.612500", "194221.102500", "194222.592500", "194224.082500", "194225.572500", "194227.062500", "194228.552500", "194230.042500", "194231.532500", "194233.022500", "194234.512500", "194236.002500", "194237.492500", "194238.982500", "194240.472500", "194241.962500", "194243.452500", "194244.942500", "194246.432500", "194247.922500", "194249.412500", "194250.902500", "194252.392500", "194253.882500", "194255.372500", "194256.862500", "194258.352500", "194259.842500", "194301.332500", "194302.822500", "194304.312500", "194305.802500", "194307.292500", "194308.782500", "194310.272500", "194311.762500", "194313.252500", "194314.742500", "194316.232500", "194317.722500", "194319.212500", "194320.702500", "194322.192500", "194323.682500", "194325.172500", "194326.662500", "194328.152500", "194329.642500", "194331.132500", "194332.622500", "194334.112500", "194335.602500", "194337.092500", "194338.582500", "194340.072500", "194341.562500", "194343.052500", "194344.542500", "194346.032500", "194347.522500", "194349.012500", "194350.502500", "194351.992500", "194353.482500", "194354.972500", "194356.462500", "194357.952500", "194359.442500", "194400.932500", "194402.422500", "194403.912500", "194405.402500", "194406.892500", "194408.382500", "194409.872500", "194411.362500", "194412.852500", "194414.342500", "194415.832500", "194417.322500", "194418.812500", "194420.302500", "194421.792500", "194423.282500", "194424.772500", "194426.262500", "194427.752500", "194429.242500", "194430.732500", "194432.222500", "194433.712500", "194435.202500", "194436.692500", "194438.182500", "194439.672500", "194441.162500", "194442.652500", "194444.142500", "194445.632500", "194447.122500", "194448.612500", "194450.102500", "194451.592500", "194453.082500", "194454.572500", "194456.062500", "194457.552500", "194459.042500", "194500.532500", "194502.022500", "194503.512500", "194505.002500", "194506.492500", "194507.982500", "194509.472500", "194510.962500", "194512.452500", "194513.942500", "194515.432500", "194516.922500", "194518.412500", "194519.902500", "194521.392500", "194522.882500", "194524.372500", "194525.862500", "194527.352500", "194528.842500", "194530.332500", "194531.822500", "194533.312500", "194534.802500", "194536.292500", "194537.782500", "194539.272500", "194540.762500", "194542.252500", "194543.742500", "194545.232500", "194546.722500", "194548.212500", "194549.702500", "194551.192500", "194552.682500", "194554.172500", "194555.662500", "194557.152500", "194558.642500", "194600.132500", "194601.622500", "194603.112500", "194604.602500", "194606.092500", "194607.582500", "194609.072500", "194610.562500", "194612.052500", "194613.542500", "194615.032500", "194616.522500", "194618.012500", "194619.502500", "194620.992500"],
      "ContentTime": ["193659.534000", "193659.538000", "193659.541000", "193659.544000", "193659.547000", "193659.555000", "193659.558000", "193659.561000", "193659.564000", "193659.567000", "193659.570000", "193719.499000", "193719.502000", "193719.505000", "193719.508000", "193719.511000", "193719.514000", "193719.517000", "193719.520000", "193719.523000", "193719.526000", "193719.529000", "193719.531000", "193719.534000", "193719.537000", "193719.540000", "193719.543000", "193719.552000", "193719.555000", "193719.558000", "193719.561000", "193739.499000", "193739.502000", "193739.505000", "193739.508000", "193739.511000", "193739.514000", "193739.517000", "193739.520000", "193739.523000", "193739.526000", "193739.529000", "193739.532000", "193739.535000", "193739.538000", "193739.541000", "193739.544000", "193739.547000", "193739.549000", "193739.552000", "193739.555000", "193759.498000", "193759.501000", "193759.504000", "193759.507000", "193759.510000", "193759.513000", "193759.516000", "193759.519000", "193759.522000", "193759.525000", "193759.528000", "193759.531000", "193759.534000", "193759.537000", "193759.540000", "193759.543000", "193759.546000", "193759.549000", "193759.551000", "193759.554000", "193819.498000", "193819.501000", "193819.504000", "193819.507000", "193819.510000", "193819.513000", "193819.516000", "193819.519000", "193819.522000", "193819.525000", "193819.528000", "193819.531000", "193819.534000", "193819.542000", "193819.545000", "193819.548000", "193819.551000", "193819.554000", "193819.557000", "193819.560000", "193859.498000", "193859.501000", "193859.504000", "193859.507000", "193859.510000", "193859.513000", "193859.516000", "193859.519000", "193859.522000", "193859.525000", "193859.528000", "193859.531000", "193859.534000", "193859.537000", "193859.540000", "193859.543000", "193859.546000", "193859.548000", "193859.551000", "193859.554000", "193859.557000", "193859.560000", "193859.563000", "193859.566000", "193859.569000", "193859.572000", "193859.575000", "193859.578000", "193939.499000", "193939.502000", "193939.505000", "193939.508000", "193939.511000", "193939.514000", "193939.517000", "193939.520000", "193939.523000", "193939.526000", "193939.529000", "193939.532000", "193939.535000", "193939.538000", "193939.541000", "193939.544000", "193939.547000", "193939.549000", "193939.552000", "193939.555000", "193939.558000", "193939.561000", "193939.564000", "193939.578000", "193939.581000", "193939.584000", "193939.587000", "194019.498000", "194019.501000", "194019.504000", "194019.507000", "194019.510000", "194019.513000", "194019.516000", "194019.519000", "194019.522000", "194019.525000", "194019.528000", "194019.531000", "194019.534000", "194019.537000", "194019.540000", "194019.543000", "194019.546000", "194019.549000", "194019.552000", "194019.555000", "194019.558000", "194019.561000", "194019.563000", "194019.566000", "194019.569000", "194019.572000", "194019.575000", "194059.498000", "194059.501000", "194059.504000", "194059.507000", "194059.510000", "194059.513000", "194059.516000", "194059.519000", "194059.522000", "194059.525000", "194059.528000", "194059.531000", "194059.534000", "194059.537000", "194059.540000", "194059.543000", "194059.546000", "194059.549000", "194059.552000", "194059.555000", "194059.557000", "194059.560000", "194059.563000", "194059.567000", "194059.570000", "194059.573000", "194139.499000", "194139.502000", "194139.505000", "194139.508000", "194139.511000", "194139.514000", "194139.517000", "194139.520000", "194139.523000", "194139.526000", "194139.529000", "194139.532000", "194139.535000", "194139.538000", "194139.541000", "194139.544000", "194139.547000", "194139.550000", "194139.553000", "194139.556000", "194139.559000", "194139.562000", "194139.565000", "194139.568000", "194139.571000", "194139.574000", "194139.577000", "194219.499000", "194219.502000", "194219.505000", "194219.508000", "194219.511000", "194219.514000", "194219.517000", "194219.520000", "194219.523000", "194219.526000", "194219.529000", "194219.532000", "194219.535000", "194219.538000", "194219.541000", "194219.544000", "194219.547000", "194219.550000", "194219.553000", "194219.556000", "194219.559000", "194219.562000", "194219.565000", "194219.568000", "194219.583000", "194219.586000", "194219.589000", "194259.498000", "194259.501000", "194259.504000", "194259.507000", "194259.510000", "194259.513000", "194259.516000", "194259.519000", "194259.522000", "194259.525000", "194259.528000", "194259.531000", "194259.534000", "194259.537000", "194259.540000", "194259.543000", "194259.546000", "194259.549000", "194259.552000", "194259.555000", "194259.558000", "194259.561000", "194259.564000", "194259.567000", "194259.570000", "194259.573000", "194259.575000", "194339.498000", "194339.501000", "194339.504000", "194339.507000", "194339.510000", "194339.513000", "194339.516000", "194339.519000", "194339.522000", "194339.525000", "194339.528000", "194339.531000", "194339.534000", "194339.537000", "194339.540000", "194339.543000", "194339.546000", "194339.549000", "194339.552000", "194339.555000", "194339.558000", "194339.561000", "194339.564000", "194339.567000", "194339.570000", "194339.573000", "194339.576000", "194419.499000", "194419.502000", "194419.505000", "194419.508000", "194419.511000", "194419.514000", "194419.517000", "194419.520000", "194419.523000", "194419.526000", "194419.529000", "194419.532000", "194419.535000", "194419.538000", "194419.546000", "194419.549000", "194419.551000", "194419.554000", "194419.557000", "194419.561000", "194419.564000", "194419.566000", "194419.569000", "194419.572000", "194419.575000", "194419.578000", "194419.581000", "194459.498000", "194459.501000", "194459.504000", "194459.507000", "194459.510000", "194459.514000", "194459.516000", "194459.519000", "194459.522000", "194459.525000", "194459.528000", "194459.531000", "194459.534000", "194459.537000", "194459.540000", "194459.543000", "194459.546000", "194459.549000", "194459.552000", "194459.555000", "194459.558000", "194459.561000", "194459.564000", "194459.567000", "194459.571000", "194459.575000", "194539.498000", "194539.501000", "194539.504000", "194539.507000", "194539.510000", "194539.513000", "194539.516000", "194539.519000", "194539.522000", "194539.525000", "194539.528000", "194539.531000", "194539.534000", "194539.537000", "194539.540000", "194539.543000", "194539.545000", "194539.548000", "194539.551000", "194539.554000", "194539.557000", "194539.560000", "194539.563000", "194539.566000", "194539.569000", "194539.572000", "194539.575000", "194619.499000", "194619.502000", "194619.505000", "194619.508000", "194619.511000", "194619.514000", "194619.517000", "194619.520000", "194619.523000", "194619.526000", "194619.529000", "194619.532000", "194619.535000", "194619.538000", "194619.541000", "194619.544000", "194619.547000", "194619.550000", "194619.553000", "194619.556000", "194619.559000", "194619.562000", "194619.565000", "194619.568000", "194619.571000", "194619.574000", "194619.577000", "194623.080000", "194623.083000", "194623.086000"],
      "InstanceCreationTime": ["193659.534000", "193659.538000", "193659.541000", "193659.544000", "193659.547000", "193659.555000", "193659.558000", "193659.561000", "193659.564000", "193659.567000", "193659.570000", "193719.499000", "193719.502000", "193719.505000", "193719.508000", "193719.511000", "193719.514000", "193719.517000", "193719.520000", "193719.523000", "193719.526000", "193719.529000", "193719.531000", "193719.534000", "193719.537000", "193719.540000", "193719.543000", "193719.552000", "193719.555000", "193719.558000", "193719.561000", "193739.499000", "193739.502000", "193739.505000", "193739.508000", "193739.511000", "193739.514000", "193739.517000", "193739.520000", "193739.523000", "193739.526000", "193739.529000", "193739.532000", "193739.535000", "193739.538000", "193739.541000", "193739.544000", "193739.547000", "193739.549000", "193739.552000", "193739.555000", "193759.498000", "193759.501000", "193759.504000", "193759.507000", "193759.510000", "193759.513000", "193759.516000", "193759.519000", "193759.522000", "193759.525000", "193759.528000", "193759.531000", "193759.534000", "193759.537000", "193759.540000", "193759.543000", "193759.546000", "193759.549000", "193759.551000", "193759.554000", "193819.498000", "193819.501000", "193819.504000", "193819.507000", "193819.510000", "193819.513000", "193819.516000", "193819.519000", "193819.522000", "193819.525000", "193819.528000", "193819.531000", "193819.534000", "193819.542000", "193819.545000", "193819.548000", "193819.551000", "193819.554000", "193819.557000", "193819.560000", "193859.498000", "193859.501000", "193859.504000", "193859.507000", "193859.510000", "193859.513000", "193859.516000", "193859.519000", "193859.522000", "193859.525000", "193859.528000", "193859.531000", "193859.534000", "193859.537000", "193859.540000", "193859.543000", "193859.546000", "193859.548000", "193859.551000", "193859.554000", "193859.557000", "193859.560000", "193859.563000", "193859.566000", "193859.569000", "193859.572000", "193859.575000", "193859.578000", "193939.499000", "193939.502000", "193939.505000", "193939.508000", "193939.511000", "193939.514000", "193939.517000", "193939.520000", "193939.523000", "193939.526000", "193939.529000", "193939.532000", "193939.535000", "193939.538000", "193939.541000", "193939.544000", "193939.547000", "193939.549000", "193939.552000", "193939.555000", "193939.558000", "193939.561000", "193939.564000", "193939.578000", "193939.581000", "193939.584000", "193939.587000", "194019.498000", "194019.501000", "194019.504000", "194019.507000", "194019.510000", "194019.513000", "194019.516000", "194019.519000", "194019.522000", "194019.525000", "194019.528000", "194019.531000", "194019.534000", "194019.537000", "194019.540000", "194019.543000", "194019.546000", "194019.549000", "194019.552000", "194019.555000", "194019.558000", "194019.561000", "194019.563000", "194019.566000", "194019.569000", "194019.572000", "194019.575000", "194059.498000", "194059.501000", "194059.504000", "194059.507000", "194059.510000", "194059.513000", "194059.516000", "194059.519000", "194059.522000", "194059.525000", "194059.528000", "194059.531000", "194059.534000", "194059.537000", "194059.540000", "194059.543000", "194059.546000", "194059.549000", "194059.552000", "194059.555000", "194059.557000", "194059.560000", "194059.563000", "194059.567000", "194059.570000", "194059.573000", "194139.499000", "194139.502000", "194139.505000", "194139.508000", "194139.511000", "194139.514000", "194139.517000", "194139.520000", "194139.523000", "194139.526000", "194139.529000", "194139.532000", "194139.535000", "194139.538000", "194139.541000", "194139.544000", "194139.547000", "194139.550000", "194139.553000", "194139.556000", "194139.559000", "194139.562000", "194139.565000", "194139.568000", "194139.571000", "194139.574000", "194139.577000", "194219.499000", "194219.502000", "194219.505000", "194219.508000", "194219.511000", "194219.514000", "194219.517000", "194219.520000", "194219.523000", "194219.526000", "194219.529000", "194219.532000", "194219.535000", "194219.538000", "194219.541000", "194219.544000", "194219.547000", "194219.550000", "194219.553000", "194219.556000", "194219.559000", "194219.562000", "194219.565000", "194219.568000", "194219.583000", "194219.586000", "194219.589000", "194259.498000", "194259.501000", "194259.504000", "194259.507000", "194259.510000", "194259.513000", "194259.516000", "194259.519000", "194259.522000", "194259.525000", "194259.528000", "194259.531000", "194259.534000", "194259.537000", "194259.540000", "194259.543000", "194259.546000", "194259.549000", "194259.552000", "194259.555000", "194259.558000", "194259.561000", "194259.564000", "194259.567000", "194259.570000", "194259.573000", "194259.575000", "194339.498000", "194339.501000", "194339.504000", "194339.507000", "194339.510000", "194339.513000", "194339.516000", "194339.519000", "194339.522000", "194339.525000", "194339.528000", "194339.531000", "194339.534000", "194339.537000", "194339.540000", "194339.543000", "194339.546000", "194339.549000", "194339.552000", "194339.555000", "194339.558000", "194339.561000", "194339.564000", "194339.567000", "194339.570000", "194339.573000", "194339.576000", "194419.499000", "194419.502000", "194419.505000", "194419.508000", "194419.511000", "194419.514000", "194419.517000", "194419.520000", "194419.523000", "194419.526000", "194419.529000", "194419.532000", "194419.535000", "194419.538000", "194419.546000", "194419.549000", "194419.551000", "194419.554000", "194419.557000", "194419.561000", "194419.564000", "194419.566000", "194419.569000", "194419.572000", "194419.575000", "194419.578000", "194419.581000", "194459.498000", "194459.501000", "194459.504000", "194459.507000", "194459.510000", "194459.514000", "194459.516000", "194459.519000", "194459.522000", "194459.525000", "194459.528000", "194459.531000", "194459.534000", "194459.537000", "194459.540000", "194459.543000", "194459.546000", "194459.549000", "194459.552000", "194459.555000", "194459.558000", "194459.561000", "194459.564000", "194459.567000", "194459.571000", "194459.575000", "194539.498000", "194539.501000", "194539.504000", "194539.507000", "194539.510000", "194539.513000", "194539.516000", "194539.519000", "194539.522000", "194539.525000", "194539.528000", "194539.531000", "194539.534000", "194539.537000", "194539.540000", "194539.543000", "194539.545000", "194539.548000", "194539.551000", "194539.554000", "194539.557000", "194539.560000", "194539.563000", "194539.566000", "194539.569000", "194539.572000", "194539.575000", "194619.499000", "194619.502000", "194619.505000", "194619.508000", "194619.511000", "194619.514000", "194619.517000", "194619.520000", "194619.523000", "194619.526000", "194619.529000", "194619.532000", "194619.535000", "194619.538000", "194619.541000", "194619.544000", "194619.547000", "194619.550000", "194619.553000", "194619.556000", "194619.559000", "194619.562000", "194619.565000", "194619.568000", "194619.571000", "194619.574000", "194619.577000", "194623.080000", "194623.083000", "194623.086000"],
