{
  "AcquisitionMatrixPE": 104,
  "AcquisitionNumber": 1,
  "AcquisitionTime": "14:13:38.415000",
  "BandwidthPerPixelPhaseEncode": 17.17,
  "BaseResolution": 104,
  "BodyPartExamined": "BRAIN",
  "CoilString": "HC1-7;NC1_2",
  "ConsistencyInfo": "N4_VE11C_LATEST_20160120",
  "ConversionSoftware": "dcm2niix",
  "ConversionSoftwareVersion": "v1.0.20190902",
  "DerivedVendorReportedEchoSpacing": 0.000560011,
  "DeviceSerialNumber": "167006",
  "DwellTime": 2.1e-06,
  "EchoTime": 0.037,
  "EchoTrainLength": 104,
  "EffectiveEchoSpacing": 0.000560011,
  "FlipAngle": 52,
  "ImageComments": "Unaliased_MB4_PE3_LB",
  "ImageOrientationPatientDICOM": [0.997973, -0.013202, -0.062249, -0.00243852, 0.969589, -0.244728],
  "ImageType": [
    "ORIGINAL",
    "PRIMARY",
    "M",
    "MB",
    "ND",
    "MOSAIC"
],
  "ImagingFrequency": 123.259,
  "InPlanePhaseEncodingDirectionDICOM": "COL",
  "InstitutionAddress": "Chemin_Queen-Mary_4565_Montreal_District_CA_H3W_1W5",
  "InstitutionName": "IUGM",
  "InstitutionalDepartmentName": "Department",
  "MRAcquisitionType": "2D",
  "MagneticFieldStrength": 3,
  "Manufacturer": "Siemens",
  "ManufacturersModelName": "Prisma_fit",
  "Modality": "MR",
  "MultibandAccelerationFactor": 4,
  "PartialFourier": 1,
  "PatientPosition": "HFS",
  "PercentPhaseFOV": 100,
  "PhaseEncodingDirection": "j",
  "PhaseEncodingSteps": 104,
  "PhaseResolution": 1,
  "PixelBandwidth": 2290,
  "ProcedureStepDescription": "video_friends",
  "ProtocolName": "func_task-friends-s03e19b",
  "PulseSequenceDetails": "%CustomerSeq%_cmrr_mbep2d_bold",
  "ReceiveCoilActiveElements": "HC1-7;NC1,2",
  "ReceiveCoilName": "HeadNeck_64",
  "ReconMatrixPE": 104,
  "RepetitionTime": 1.49,
  "SAR": 0.0292031,
  "ScanOptions": "FS",
  "ScanningSequence": "EP",
  "SequenceName": "epfid2d1_104",
  "SequenceVariant": "SK_SS",
  "SeriesDescription": "func_task-friends-s03e19b",
  "SeriesNumber": 19,
  "ShimSetting": [604, -7256, -8829, 593, -29, -291, 2, 38],
  "SliceThickness": 2,
  "SliceTiming": [0, 0.7825, 0.0975, 0.88, 0.195, 0.98, 0.2925, 1.0775, 0.39, 1.175, 0.49, 1.2725, 0.5875, 1.37, 0.685, 0, 0.7825, 0.0975, 0.88, 0.195, 0.98, 0.2925, 1.0775, 0.39, 1.175, 0.49, 1.2725, 0.5875, 1.37, 0.685, 0, 0.7825, 0.0975, 0.88, 0.195, 0.98, 0.2925, 1.0775, 0.39, 1.175, 0.49, 1.2725, 0.5875, 1.37, 0.685, 0, 0.7825, 0.0975, 0.88, 0.195, 0.98, 0.2925, 1.0775, 0.39, 1.175, 0.49, 1.2725, 0.5875, 1.37, 0.685],
  "SoftwareVersions": "syngo_MR_E11",
  "SpacingBetweenSlices": 2,
  "StationName": "MRC35049",
  "TaskName": "s03e19b",
  "TotalReadoutTime": 0.0576811,
  "TxRefAmp": 216.293,
  "WipMemBlock": "3f9b4da2-a3ac-429c-9469-a53f2e59556b||Sequence: R016 ve11c/master r/e634e98; Dec 19 2017 11:00:25 by eja",
  "dcmmeta_affine": [
    [-1.9959466457366943, -0.004877033177763224, -0.12717373669147491, 101.3214340209961],
    [0.026403993368148804, 1.939177393913269, -0.4887675344944, -83.8389663696289],
    [-0.12449809163808823, 0.489455908536911, 1.935183048248291, -49.232810974121094],
    [0.0, 0.0, 0.0, 1.0]
],
  "dcmmeta_reorient_transform": [
    [0.0, -1.0, 0.0, 103.0],
    [1.0, 0.0, 0.0, 0.0],
    [0.0, 0.0, 1.0, 0.0],
    [0.0, 0.0, 0.0, 1.0]
],
  "dcmmeta_shape": [104, 104, 60, 468],
  "dcmmeta_slice_dim": 2,
  "dcmmeta_version": 0.6,
  "global": {
    "const": {
      "AcquisitionMatrix": [104, 0, 0, 104],
      "AngioFlag": "N",
      "BitsAllocated": 16,
      "BitsStored": 16,
      "BodyPartExamined": "BRAIN",
      "Columns": 832,
      "EchoNumbers": 1,
      "EchoTime": 37.0,
      "EchoTrainLength": 104,
      "FlipAngle": 52.0,
      "HighBit": 15,
      "ImageOrientationPatient": [0.99797332818971, -0.0132019967027, -0.0622490442097, -0.0024385165386, 0.96958871690739, -0.2447279585233],
      "ImagePositionPatient": [-825.56844250742, -812.1458419696, 224.66040521426],
      "ImageType": [
        "ORIGINAL",
        "PRIMARY",
        "M",
        "MB",
        "ND",
        "MOSAIC"
],
      "ImagedNucleus": "1H",
      "ImagingFrequency": 123.25905,
      "InPlanePhaseEncodingDirection": "COL",
      "MRAcquisitionType": "2D",
      "MagneticFieldStrength": 3.0,
      "Manufacturer": "SIEMENS",
      "ManufacturerModelName": "Prisma_fit",
      "Modality": "MR",
      "NumberOfAverages": 1.0,
      "NumberOfPhaseEncodingSteps": 104,
      "PercentPhaseFieldOfView": 100.0,
      "PercentSampling": 100.0,
      "PerformedProcedureStepStartTime": "125526.232000",
      "PhotometricInterpretation": "MONOCHROME2",
      "PixelBandwidth": 2290.0,
      "PixelRepresentation": 0,
      "PixelSpacing": [2.0, 2.0],
      "ProtocolName": "func_task-friends-s03e19b",
      "RepetitionTime": 1490.0,
      "Rows": 832,
      "SAR": 0.02920312395935,
      "SamplesPerPixel": 1,
      "ScanOptions": "FS",
      "ScanningSequence": "EP",
      "SequenceName": "epfid2d1_104",
      "SequenceVariant": [
        "SK",
        "SS"
],
      "SeriesDescription": "func_task-friends-s03e19b",
      "SeriesNumber": 19,
      "SeriesTime": "141443.942000",
      "SliceLocation": -33.591079995692,
      "SliceThickness": 2.0,
      "SmallestImagePixelValue": 0,
      "SoftwareVersions": "syngo MR E11",
      "SpacingBetweenSlices": 2.0000000205795,
      "SpecificCharacterSet": "ISO_IR 100",
      "StudyID": "1",
      "StudyTime": "125526.110000",
      "TransmitCoilName": "Body",
      "VariableFlipAngleFlag": "N",
      "WindowCenterWidthExplanation": "Algo1",
      "dBdt": 0.0},
    "slices": {}
  },
  "time": {
    "samples": {
      "AcquisitionNumber": [1, 2, 3, 4, 5, 6, 7, 8, 9, 10, 11, 12, 13, 14, 15, 16, 17, 18, 19, 20, 21, 22, 23, 24, 25, 26, 27, 28, 29, 30, 31, 32, 33, 34, 35, 36, 37, 38, 39, 40, 41, 42, 43, 44, 45, 46, 47, 48, 49, 50, 51, 52, 53, 54, 55, 56, 57, 58, 59, 60, 61, 62, 63, 64, 65, 66, 67, 68, 69, 70, 71, 72, 73, 74, 75, 76, 77, 78, 79, 80, 81, 82, 83, 84, 85, 86, 87, 88, 89, 90, 91, 92, 93, 94, 95, 96, 97, 98, 99, 100, 101, 102, 103, 104, 105, 106, 107, 108, 109, 110, 111, 112, 113, 114, 115, 116, 117, 118, 119, 120, 121, 122, 123, 124, 125, 126, 127, 128, 129, 130, 131, 132, 133, 134, 135, 136, 137, 138, 139, 140, 141, 142, 143, 144, 145, 146, 147, 148, 149, 150, 151, 152, 153, 154, 155, 156, 157, 158, 159, 160, 161, 162, 163, 164, 165, 166, 167, 168, 169, 170, 171, 172, 173, 174, 175, 176, 177, 178, 179, 180, 181, 182, 183, 184, 185, 186, 187, 188, 189, 190, 191, 192, 193, 194, 195, 196, 197, 198, 199, 200, 201, 202, 203, 204, 205, 206, 207, 208, 209, 210, 211, 212, 213, 214, 215, 216, 217, 218, 219, 220, 221, 222, 223, 224, 225, 226, 227, 228, 229, 230, 231, 232, 233, 234, 235, 236, 237, 238, 239, 240, 241, 242, 243, 244, 245, 246, 247, 248, 249, 250, 251, 252, 253, 254, 255, 256, 257, 258, 259, 260, 261, 262, 263, 264, 265, 266, 267, 268, 269, 270, 271, 272, 273, 274, 275, 276, 277, 278, 279, 280, 281, 282, 283, 284, 285, 286, 287, 288, 289, 290, 291, 292, 293, 294, 295, 296, 297, 298, 299, 300, 301, 302, 303, 304, 305, 306, 307, 308, 309, 310, 311, 312, 313, 314, 315, 316, 317, 318, 319, 320, 321, 322, 323, 324, 325, 326, 327, 328, 329, 330, 331, 332, 333, 334, 335, 336, 337, 338, 339, 340, 341, 342, 343, 344, 345, 346, 347, 348, 349, 350, 351, 352, 353, 354, 355, 356, 357, 358, 359, 360, 361, 362, 363, 364, 365, 366, 367, 368, 369, 370, 371, 372, 373, 374, 375, 376, 377, 378, 379, 380, 381, 382, 383, 384, 385, 386, 387, 388, 389, 390, 391, 392, 393, 394, 395, 396, 397, 398, 399, 400, 401, 402, 403, 404, 405, 406, 407, 408, 409, 410, 411, 412, 413, 414, 415, 416, 417, 418, 419, 420, 421, 422, 423, 424, 425, 426, 427, 428, 429, 430, 431, 432, 433, 434, 435, 436, 437, 438, 439, 440, 441, 442, 443, 444, 445, 446, 447, 448, 449, 450, 451, 452, 453, 454, 455, 456, 457, 458, 459, 460, 461, 462, 463, 464, 465, 466, 467, 468],
      "AcquisitionTime": ["141338.415000", "141339.905000", "141341.395000", "141342.885000", "141344.375000", "141345.865000", "141347.355000", "141348.845000", "141350.335000", "141351.825000", "141353.315000", "141354.805000", "141356.295000", "141357.785000", "141359.275000", "141400.765000", "141402.255000", "141403.745000", "141405.235000", "141406.725000", "141408.215000", "141409.705000", "141411.195000", "141412.685000", "141414.175000", "141415.665000", "141417.155000", "141418.645000", "141420.135000", "141421.625000", "141423.115000", "141424.605000", "141426.095000", "141427.585000", "141429.075000", "141430.565000", "141432.055000", "141433.545000", "141435.035000", "141436.525000", "141438.015000", "141439.505000", "141440.995000", "141442.485000", "141443.975000", "141445.465000", "141446.955000", "141448.445000", "141449.935000", "141451.425000", "141452.915000", "141454.405000", "141455.895000", "141457.385000", "141458.875000", "141500.365000", "141501.855000", "141503.345000", "141504.835000", "141506.325000", "141507.815000", "141509.305000", "141510.795000", "141512.285000", "141513.775000", "141515.265000", "141516.755000", "141518.245000", "141519.735000", "141521.225000", "141522.715000", "141524.205000", "141525.695000", "141527.185000", "141528.675000", "141530.165000", "141531.655000", "141533.145000", "141534.635000", "141536.125000", "141537.615000", "141539.105000", "141540.595000", "141542.085000", "141543.575000", "141545.065000", "141546.555000", "141548.045000", "141549.535000", "141551.025000", "141552.515000", "141554.005000", "141555.495000", "141556.985000", "141558.475000", "141559.965000", "141601.455000", "141602.945000", "141604.435000", "141605.925000", "141607.415000", "141608.905000", "141610.395000", "141611.885000", "141613.375000", "141614.865000", "141616.355000", "141617.845000", "141619.335000", "141620.825000", "141622.315000", "141623.805000", "141625.295000", "141626.785000", "141628.275000", "141629.765000", "141631.255000", "141632.745000", "141634.235000", "141635.725000", "141637.215000", "141638.705000", "141640.195000", "141641.685000", "141643.175000", "141644.665000", "141646.155000", "141647.645000", "141649.135000", "141650.625000", "141652.115000", "141653.605000", "141655.095000", "141656.585000", "141658.075000", "141659.565000", "141701.055000", "141702.545000", "141704.035000", "141705.525000", "141707.015000", "141708.505000", "141709.995000", "141711.485000", "141712.975000", "141714.465000", "141715.955000", "141717.445000", "141718.935000", "141720.425000", "141721.915000", "141723.405000", "141724.895000", "141726.385000", "141727.875000", "141729.365000", "141730.855000", "141732.345000", "141733.835000", "141735.325000", "141736.815000", "141738.305000", "141739.795000", "141741.285000", "141742.775000", "141744.265000", "141745.755000", "141747.245000", "141748.735000", "141750.225000", "141751.715000", "141753.205000", "141754.695000", "141756.185000", "141757.675000", "141759.165000", "141800.655000", "141802.145000", "141803.635000", "141805.125000", "141806.615000", "141808.105000", "141809.595000", "141811.085000", "141812.575000", "141814.065000", "141815.555000", "141817.045000", "141818.535000", "141820.025000", "141821.515000", "141823.005000", "141824.495000", "141825.985000", "141827.475000", "141828.965000", "141830.455000", "141831.945000", "141833.435000", "141834.925000", "141836.415000", "141837.905000", "141839.395000", "141840.885000", "141842.375000", "141843.865000", "141845.355000", "141846.845000", "141848.335000", "141849.825000", "141851.315000", "141852.805000", "141854.295000", "141855.785000", "141857.275000", "141858.765000", "141900.255000", "141901.745000", "141903.235000", "141904.725000", "141906.215000", "141907.705000", "141909.195000", "141910.685000", "141912.175000", "141913.665000", "141915.155000", "141916.645000", "141918.135000", "141919.625000", "141921.115000", "141922.605000", "141924.095000", "141925.585000", "141927.075000", "141928.565000", "141930.055000", "141931.545000", "141933.035000", "141934.525000", "141936.015000", "141937.505000", "141938.995000", "141940.485000", "141941.975000", "141943.465000", "141944.955000", "141946.445000", "141947.935000", "141949.425000", "141950.915000", "141952.405000", "141953.895000", "141955.385000", "141956.875000", "141958.365000", "141959.855000", "142001.345000", "142002.835000", "142004.325000", "142005.815000", "142007.305000", "142008.795000", "142010.285000", "142011.775000", "142013.265000", "142014.755000", "142016.245000", "142017.735000", "142019.225000", "142020.715000", "142022.205000", "142023.695000", "142025.185000", "142026.675000", "142028.165000", "142029.655000", "142031.145000", "142032.635000", "142034.125000", "142035.615000", "142037.105000", "142038.595000", "142040.085000", "142041.575000", "142043.065000", "142044.555000", "142046.045000", "142047.535000", "142049.025000", "142050.515000", "142052.005000", "142053.495000", "142054.985000", "142056.475000", "142057.965000", "142059.455000", "142100.945000", "142102.435000", "142103.925000", "142105.415000", "142106.905000", "142108.395000", "142109.885000", "142111.375000", "142112.865000", "142114.355000", "142115.845000", "142117.335000", "142118.825000", "142120.315000", "142121.805000", "142123.295000", "142124.785000", "142126.275000", "142127.765000", "142129.255000", "142130.745000", "142132.235000", "142133.725000", "142135.215000", "142136.705000", "142138.195000", "142139.685000", "142141.175000", "142142.665000", "142144.155000", "142145.645000", "142147.135000", "142148.625000", "142150.115000", "142151.605000", "142153.095000", "142154.585000", "142156.075000", "142157.565000", "142159.055000", "142200.545000", "142202.035000", "142203.525000", "142205.015000", "142206.505000", "142207.995000", "142209.485000", "142210.975000", "142212.465000", "142213.955000", "142215.445000", "142216.935000", "142218.425000", "142219.915000", "142221.405000", "142222.895000", "142224.385000", "142225.875000", "142227.365000", "142228.855000", "142230.345000", "142231.835000", "142233.325000", "142234.815000", "142236.305000", "142237.795000", "142239.285000", "142240.775000", "142242.265000", "142243.755000", "142245.245000", "142246.735000", "142248.225000", "142249.715000", "142251.205000", "142252.695000", "142254.185000", "142255.675000", "142257.165000", "142258.655000", "142300.145000", "142301.635000", "142303.125000", "142304.615000", "142306.105000", "142307.595000", "142309.085000", "142310.575000", "142312.065000", "142313.555000", "142315.045000", "142316.535000", "142318.025000", "142319.515000", "142321.005000", "142322.495000", "142323.985000", "142325.475000", "142326.965000", "142328.455000", "142329.945000", "142331.435000", "142332.925000", "142334.415000", "142335.905000", "142337.395000", "142338.885000", "142340.375000", "142341.865000", "142343.355000", "142344.845000", "142346.335000", "142347.825000", "142349.315000", "142350.805000", "142352.295000", "142353.785000", "142355.275000", "142356.765000", "142358.255000", "142359.745000", "142401.235000", "142402.725000", "142404.215000", "142405.705000", "142407.195000", "142408.685000", "142410.175000", "142411.665000", "142413.155000", "142414.645000", "142416.135000", "142417.625000", "142419.115000", "142420.605000", "142422.095000", "142423.585000", "142425.075000", "142426.565000", "142428.055000", "142429.545000", "142431.035000", "142432.525000", "142434.015000", "142435.505000", "142436.995000", "142438.485000", "142439.975000", "142441.465000", "142442.955000", "142444.445000", "142445.935000", "142447.425000", "142448.915000", "142450.405000", "142451.895000", "142453.385000", "142454.875000", "142456.365000", "142457.855000", "142459.345000", "142500.835000", "142502.325000", "142503.815000", "142505.305000", "142506.795000", "142508.285000", "142509.775000", "142511.265000", "142512.755000", "142514.245000"],
      "ContentTime": ["141443.945000", "141443.948000", "141443.951000", "141443.954000", "141443.967000", "141443.970000", "141443.973000", "141443.976000", "141443.979000", "141443.982000", "141443.985000", "141443.988000", "141503.915000", "141503.918000", "141503.921000", "141503.924000", "141503.927000", "141503.930000", "141503.933000", "141503.936000", "141503.939000", "141503.942000", "141503.945000", "141503.948000", "141503.950000", "141503.953000", "141503.956000", "141503.959000", "141503.962000", "141503.965000", "141503.968000", "141503.976000", "141523.916000", "141523.919000", "141523.922000", "141523.925000", "141523.928000", "141523.931000", "141523.934000", "141523.936000", "141523.939000", "141523.942000", "141523.945000", "141523.948000", "141523.951000", "141523.954000", "141523.957000", "141523.960000", "141523.963000", "141523.966000", "141523.969000", "141523.972000", "141543.915000", "141543.918000", "141543.921000", "141543.924000", "141543.942000", "141543.946000", "141543.949000", "141543.952000", "141543.955000", "141543.957000", "141543.960000", "141543.963000", "141543.977000", "141543.980000", "141543.983000", "141543.986000", "141543.989000", "141543.992000", "141543.995000", "141543.998000", "141544.002000", "141603.915000", "141603.918000", "141603.921000", "141603.924000", "141603.927000", "141603.930000", "141603.933000", "141603.936000", "141603.939000", "141603.942000", "141603.944000", "141603.947000", "141603.950000", "141603.953000", "141603.956000", "141603.959000", "141603.962000", "141603.965000", "141603.968000", "141603.971000", "141643.915000", "141643.918000", "141643.921000", "141643.924000", "141643.927000", "141643.930000", "141643.933000", "141643.936000", "141643.939000", "141643.942000", "141643.944000", "141643.947000", "141643.950000", "141643.953000", "141643.956000", "141643.959000", "141643.962000", "141643.965000", "141643.968000", "141643.971000", "141643.974000", "141643.977000", "141643.980000", "141643.983000", "141643.986000", "141643.989000", "141643.991000", "141643.994000", "141643.997000", "141644.000000", "141644.003000", "141723.915000", "141723.918000", "141723.921000", "141723.924000", "141723.927000", "141723.931000", "141723.934000", "141723.936000", "141723.939000", "141723.942000", "141723.945000", "141723.948000", "141723.951000", "141723.954000", "141723.957000", "141723.960000", "141723.963000", "141723.966000", "141723.969000", "141723.972000", "141723.975000", "141723.978000", "141723.980000", "141723.983000", "141723.986000", "141723.989000", "141803.915000", "141803.918000", "141803.921000", "141803.924000", "141803.927000", "141803.930000", "141803.933000", "141803.936000", "141803.943000", "141803.946000", "141803.949000", "141803.952000", "141803.955000", "141803.958000", "141803.961000", "141803.964000", "141803.967000", "141803.970000", "141803.973000", "141803.976000", "141803.979000", "141803.982000", "141803.985000", "141803.988000", "141803.991000", "141803.994000", "141803.997000", "141843.915000", "141843.918000", "141843.921000", "141843.924000", "141843.927000", "141843.930000", "141843.933000", "141843.936000", "141843.939000", "141843.942000", "141843.945000", "141843.948000", "141843.951000", "141843.953000", "141843.956000", "141843.959000", "141843.962000", "141843.965000", "141843.968000", "141843.971000", "141843.974000", "141843.977000", "141843.980000", "141843.983000", "141843.986000", "141843.989000", "141843.992000", "141923.915000", "141923.918000", "141923.921000", "141923.924000", "141923.927000", "141923.930000", "141923.933000", "141923.936000", "141923.939000", "141923.942000", "141923.945000", "141923.948000", "141923.963000", "141923.966000", "141923.969000", "141923.972000", "141923.975000", "141923.978000", "141923.981000", "141923.984000", "141923.986000", "141923.989000", "141923.992000", "141923.995000", "141923.998000", "141924.002000", "141924.005000", "142003.916000", "142003.919000", "142003.922000", "142003.925000", "142003.928000", "142003.931000", "142003.934000", "142003.937000", "142003.940000", "142003.943000", "142003.946000", "142003.949000", "142003.951000", "142003.954000", "142003.957000", "142003.960000", "142003.963000", "142003.966000", "142003.969000", "142003.972000", "142003.975000", "142003.978000", "142003.981000", "142003.984000", "142003.987000", "142003.990000", "142003.992000", "142043.915000", "142043.918000", "142043.933000", "142043.936000", "142043.939000", "142043.942000", "142043.945000", "142043.948000", "142043.951000", "142043.954000", "142043.957000", "142043.960000", "142043.963000", "142043.966000", "142043.968000", "142043.971000", "142043.974000", "142043.977000", "142043.980000", "142043.983000", "142043.986000", "142043.989000", "142043.992000", "142043.995000", "142043.998000", "142044.002000", "142044.005000", "142123.915000", "142123.918000", "142123.921000", "142123.924000", "142123.927000", "142123.930000", "142123.933000", "142123.936000", "142123.939000", "142123.942000", "142123.945000", "142123.948000", "142123.951000", "142123.954000", "142123.956000", "142123.959000", "142123.962000", "142123.965000", "142123.968000", "142123.971000", "142123.974000", "142123.977000", "142123.980000", "142123.983000", "142123.986000", "142123.989000", "142123.992000", "142203.916000", "142203.919000", "142203.922000", "142203.925000", "142203.928000", "142203.931000", "142203.934000", "142203.937000", "142203.940000", "142203.943000", "142203.946000", "142203.949000", "142203.952000", "142203.955000", "142203.958000", "142203.961000", "142203.964000", "142203.967000", "142203.970000", "142203.978000", "142203.981000", "142203.984000", "142203.987000", "142203.990000", "142203.993000", "142203.996000", "142243.915000", "142243.918000", "142243.921000", "142243.924000", "142243.927000", "142243.930000", "142243.933000", "142243.936000", "142243.940000", "142243.944000", "142243.947000", "142243.951000", "142243.955000", "142243.958000", "142243.961000", "142243.964000", "142243.967000", "142243.970000", "142243.991000", "142243.994000", "142243.997000", "142244.001000", "142244.004000", "142244.007000", "142244.010000", "142244.013000", "142244.016000", "142323.915000", "142323.918000", "142323.921000", "142323.924000", "142323.927000", "142323.930000", "142323.933000", "142323.936000", "142323.939000", "142323.942000", "142323.945000", "142323.948000", "142323.951000", "142323.954000", "142323.957000", "142323.960000", "142323.963000", "142323.966000", "142323.969000", "142323.971000", "142323.974000", "142323.977000", "142323.980000", "142323.983000", "142323.986000", "142323.989000", "142323.992000", "142403.915000", "142403.918000", "142403.921000", "142403.924000", "142403.927000", "142403.930000", "142403.933000", "142403.936000", "142403.939000", "142403.942000", "142403.945000", "142403.948000", "142403.951000", "142403.954000", "142403.957000", "142403.960000", "142403.963000", "142403.966000", "142403.969000", "142403.971000", "142403.974000", "142403.977000", "142403.980000", "142403.983000", "142403.986000", "142403.989000", "142404.003000", "142443.915000", "142443.918000", "142443.921000", "142443.924000", "142443.927000", "142443.930000", "142443.933000", "142443.936000", "142443.939000", "142443.942000", "142443.945000", "142443.948000", "142443.951000", "142443.954000", "142443.957000", "142443.960000", "142443.963000", "142443.966000", "142443.969000", "142443.971000", "142443.974000", "142443.977000", "142443.980000", "142443.983000", "142443.986000", "142443.989000", "142443.992000", "142516.285000", "142516.288000", "142516.291000", "142516.294000", "142516.297000", "142516.300000", "142516.303000", "142516.306000", "142516.309000", "142516.311000", "142516.314000", "142516.317000", "142516.320000", "142516.323000", "142516.326000", "142516.329000", "142516.332000", "142516.335000", "142516.338000", "142516.341000", "142516.344000", "142516.347000"],
