{
  "AcquisitionMatrixPE": 104,
  "AcquisitionNumber": 1,
  "AcquisitionTime": "13:09:25.440000",
  "BandwidthPerPixelPhaseEncode": 17.17,
  "BaseResolution": 104,
  "BodyPartExamined": "BRAIN",
  "CoilString": "HC1-7;NC1_2",
  "ConsistencyInfo": "N4_VE11C_LATEST_20160120",
  "ConversionSoftware": "dcm2niix",
  "ConversionSoftwareVersion": "v1.0.20190902",
  "DerivedVendorReportedEchoSpacing": 0.000560011,
  "DeviceSerialNumber": "167006",
  "DwellTime": 2.1e-06,
  "EchoTime": 0.037,
  "EchoTrainLength": 104,
  "EffectiveEchoSpacing": 0.000560011,
  "FlipAngle": 52,
  "ImageComments": "Unaliased_MB4_PE3_LB",
  "ImageOrientationPatientDICOM": [0.997973, -0.013202, -0.062249, -0.00243852, 0.969589, -0.244728],
  "ImageType": [
    "ORIGINAL",
    "PRIMARY",
    "M",
    "MB",
    "ND",
    "MOSAIC"
],
  "ImagingFrequency": 123.259,
  "InPlanePhaseEncodingDirectionDICOM": "COL",
  "InstitutionAddress": "Chemin_Queen-Mary_4565_Montreal_District_CA_H3W_1W5",
  "InstitutionName": "IUGM",
  "InstitutionalDepartmentName": "Department",
  "MRAcquisitionType": "2D",
  "MagneticFieldStrength": 3,
  "Manufacturer": "Siemens",
  "ManufacturersModelName": "Prisma_fit",
  "Modality": "MR",
  "MultibandAccelerationFactor": 4,
  "PartialFourier": 1,
  "PatientPosition": "HFS",
  "PercentPhaseFOV": 100,
  "PhaseEncodingDirection": "j",
  "PhaseEncodingSteps": 104,
  "PhaseResolution": 1,
  "PixelBandwidth": 2290,
  "ProcedureStepDescription": "video_friends",
  "ProtocolName": "func_task-friends-s03e17a",
  "PulseSequenceDetails": "%CustomerSeq%_cmrr_mbep2d_bold",
  "ReceiveCoilActiveElements": "HC1-7;NC1,2",
  "ReceiveCoilName": "HeadNeck_64",
  "ReconMatrixPE": 104,
  "RepetitionTime": 1.49,
  "SAR": 0.0291993,
  "ScanOptions": "FS",
  "ScanningSequence": "EP",
  "SequenceName": "epfid2d1_104",
  "SequenceVariant": "SK_SS",
  "SeriesDescription": "func_task-friends-s03e17a",
  "SeriesNumber": 9,
  "ShimSetting": [604, -7256, -8829, 593, -29, -291, 2, 38],
  "SliceThickness": 2,
  "SliceTiming": [0, 0.785, 0.0975, 0.8825, 0.195, 0.98, 0.295, 1.0775, 0.3925, 1.175, 0.49, 1.2725, 0.5875, 1.3725, 0.685, 0, 0.785, 0.0975, 0.8825, 0.195, 0.98, 0.295, 1.0775, 0.3925, 1.175, 0.49, 1.2725, 0.5875, 1.3725, 0.685, 0, 0.785, 0.0975, 0.8825, 0.195, 0.98, 0.295, 1.0775, 0.3925, 1.175, 0.49, 1.2725, 0.5875, 1.3725, 0.685, 0, 0.785, 0.0975, 0.8825, 0.195, 0.98, 0.295, 1.0775, 0.3925, 1.175, 0.49, 1.2725, 0.5875, 1.3725, 0.685],
  "SoftwareVersions": "syngo_MR_E11",
  "SpacingBetweenSlices": 2,
  "StationName": "MRC35049",
  "TaskName": "s03e17a",
  "TotalReadoutTime": 0.0576811,
  "TxRefAmp": 216.293,
  "WipMemBlock": "996cb181-b22e-46ad-8b35-c3aa9448ca57||Sequence: R016 ve11c/master r/e634e98; Dec 19 2017 11:00:25 by eja",
  "dcmmeta_affine": [
    [-1.9959466457366943, -0.004877033177763224, -0.12717373669147491, 101.3214340209961],
    [0.026403993368148804, 1.939177393913269, -0.4887675344944, -83.8389663696289],
    [-0.12449809163808823, 0.489455908536911, 1.935183048248291, -49.232810974121094],
    [0.0, 0.0, 0.0, 1.0]
],
  "dcmmeta_reorient_transform": [
    [0.0, -1.0, 0.0, 103.0],
    [1.0, 0.0, 0.0, 0.0],
    [0.0, 0.0, 1.0, 0.0],
    [0.0, 0.0, 0.0, 1.0]
],
  "dcmmeta_shape": [104, 104, 60, 454],
  "dcmmeta_slice_dim": 2,
  "dcmmeta_version": 0.6,
  "global": {
    "const": {
      "AcquisitionMatrix": [104, 0, 0, 104],
      "AngioFlag": "N",
      "BitsAllocated": 16,
      "BitsStored": 16,
      "BodyPartExamined": "BRAIN",
      "Columns": 832,
      "EchoNumbers": 1,
      "EchoTime": 37.0,
      "EchoTrainLength": 104,
      "FlipAngle": 52.0,
      "HighBit": 15,
      "ImageOrientationPatient": [0.99797332818971, -0.0132019967027, -0.0622490442097, -0.0024385165386, 0.96958871690739, -0.2447279585233],
      "ImagePositionPatient": [-825.56844250742, -812.1458419696, 224.66040521426],
      "ImageType": [
        "ORIGINAL",
        "PRIMARY",
        "M",
        "MB",
        "ND",
        "MOSAIC"
],
      "ImagedNucleus": "1H",
      "ImagingFrequency": 123.259029,
      "InPlanePhaseEncodingDirection": "COL",
      "MRAcquisitionType": "2D",
      "MagneticFieldStrength": 3.0,
      "Manufacturer": "SIEMENS",
      "ManufacturerModelName": "Prisma_fit",
      "Modality": "MR",
      "NumberOfAverages": 1.0,
      "NumberOfPhaseEncodingSteps": 104,
      "PercentPhaseFieldOfView": 100.0,
      "PercentSampling": 100.0,
      "PerformedProcedureStepStartTime": "125526.232000",
      "PhotometricInterpretation": "MONOCHROME2",
      "PixelBandwidth": 2290.0,
      "PixelRepresentation": 0,
      "PixelSpacing": [2.0, 2.0],
      "ProtocolName": "func_task-friends-s03e17a",
      "RepetitionTime": 1490.0,
      "Rows": 832,
      "SAR": 0.0291993250342,
      "SamplesPerPixel": 1,
      "ScanOptions": "FS",
      "ScanningSequence": "EP",
      "SequenceName": "epfid2d1_104",
      "SequenceVariant": [
        "SK",
        "SS"
],
      "SeriesDescription": "func_task-friends-s03e17a",
      "SeriesNumber": 9,
      "SeriesTime": "131059.824000",
      "SliceLocation": -33.591079995692,
      "SliceThickness": 2.0,
      "SmallestImagePixelValue": 0,
      "SoftwareVersions": "syngo MR E11",
      "SpacingBetweenSlices": 2.0000000205795,
      "SpecificCharacterSet": "ISO_IR 100",
      "StudyID": "1",
      "StudyTime": "125526.110000",
      "TransmitCoilName": "Body",
      "VariableFlipAngleFlag": "N",
      "WindowCenterWidthExplanation": "Algo1",
      "dBdt": 0.0},
    "slices": {}
  },
  "time": {
    "samples": {
      "AcquisitionNumber": [1, 2, 3, 4, 5, 6, 7, 8, 9, 10, 11, 12, 13, 14, 15, 16, 17, 18, 19, 20, 21, 22, 23, 24, 25, 26, 27, 28, 29, 30, 31, 32, 33, 34, 35, 36, 37, 38, 39, 40, 41, 42, 43, 44, 45, 46, 47, 48, 49, 50, 51, 52, 53, 54, 55, 56, 57, 58, 59, 60, 61, 62, 63, 64, 65, 66, 67, 68, 69, 70, 71, 72, 73, 74, 75, 76, 77, 78, 79, 80, 81, 82, 83, 84, 85, 86, 87, 88, 89, 90, 91, 92, 93, 94, 95, 96, 97, 98, 99, 100, 101, 102, 103, 104, 105, 106, 107, 108, 109, 110, 111, 112, 113, 114, 115, 116, 117, 118, 119, 120, 121, 122, 123, 124, 125, 126, 127, 128, 129, 130, 131, 132, 133, 134, 135, 136, 137, 138, 139, 140, 141, 142, 143, 144, 145, 146, 147, 148, 149, 150, 151, 152, 153, 154, 155, 156, 157, 158, 159, 160, 161, 162, 163, 164, 165, 166, 167, 168, 169, 170, 171, 172, 173, 174, 175, 176, 177, 178, 179, 180, 181, 182, 183, 184, 185, 186, 187, 188, 189, 190, 191, 192, 193, 194, 195, 196, 197, 198, 199, 200, 201, 202, 203, 204, 205, 206, 207, 208, 209, 210, 211, 212, 213, 214, 215, 216, 217, 218, 219, 220, 221, 222, 223, 224, 225, 226, 227, 228, 229, 230, 231, 232, 233, 234, 235, 236, 237, 238, 239, 240, 241, 242, 243, 244, 245, 246, 247, 248, 249, 250, 251, 252, 253, 254, 255, 256, 257, 258, 259, 260, 261, 262, 263, 264, 265, 266, 267, 268, 269, 270, 271, 272, 273, 274, 275, 276, 277, 278, 279, 280, 281, 282, 283, 284, 285, 286, 287, 288, 289, 290, 291, 292, 293, 294, 295, 296, 297, 298, 299, 300, 301, 302, 303, 304, 305, 306, 307, 308, 309, 310, 311, 312, 313, 314, 315, 316, 317, 318, 319, 320, 321, 322, 323, 324, 325, 326, 327, 328, 329, 330, 331, 332, 333, 334, 335, 336, 337, 338, 339, 340, 341, 342, 343, 344, 345, 346, 347, 348, 349, 350, 351, 352, 353, 354, 355, 356, 357, 358, 359, 360, 361, 362, 363, 364, 365, 366, 367, 368, 369, 370, 371, 372, 373, 374, 375, 376, 377, 378, 379, 380, 381, 382, 383, 384, 385, 386, 387, 388, 389, 390, 391, 392, 393, 394, 395, 396, 397, 398, 399, 400, 401, 402, 403, 404, 405, 406, 407, 408, 409, 410, 411, 412, 413, 414, 415, 416, 417, 418, 419, 420, 421, 422, 423, 424, 425, 426, 427, 428, 429, 430, 431, 432, 433, 434, 435, 436, 437, 438, 439, 440, 441, 442, 443, 444, 445, 446, 447, 448, 449, 450, 451, 452, 453, 454],
      "AcquisitionTime": ["130925.440000", "130926.930000", "130928.420000", "130929.910000", "130931.400000", "130932.890000", "130934.380000", "130935.870000", "130937.360000", "130938.850000", "130940.340000", "130941.830000", "130943.320000", "130944.810000", "130946.300000", "130947.790000", "130949.280000", "130950.770000", "130952.260000", "130953.750000", "130955.240000", "130956.730000", "130958.220000", "130959.710000", "131001.200000", "131002.690000", "131004.180000", "131005.670000", "131007.160000", "131008.650000", "131010.140000", "131011.630000", "131013.120000", "131014.610000", "131016.100000", "131017.590000", "131019.080000", "131020.570000", "131022.060000", "131023.550000", "131025.040000", "131026.530000", "131028.020000", "131029.510000", "131031.000000", "131032.490000", "131033.980000", "131035.470000", "131036.960000", "131038.450000", "131039.940000", "131041.430000", "131042.920000", "131044.410000", "131045.900000", "131047.390000", "131048.880000", "131050.370000", "131051.860000", "131053.350000", "131054.840000", "131056.330000", "131057.820000", "131059.310000", "131100.800000", "131102.290000", "131103.780000", "131105.270000", "131106.760000", "131108.250000", "131109.740000", "131111.230000", "131112.720000", "131114.210000", "131115.700000", "131117.190000", "131118.680000", "131120.170000", "131121.660000", "131123.150000", "131124.640000", "131126.130000", "131127.620000", "131129.110000", "131130.600000", "131132.090000", "131133.580000", "131135.070000", "131136.560000", "131138.050000", "131139.540000", "131141.030000", "131142.520000", "131144.010000", "131145.500000", "131146.990000", "131148.480000", "131149.970000", "131151.460000", "131152.950000", "131154.440000", "131155.930000", "131157.420000", "131158.910000", "131200.400000", "131201.890000", "131203.380000", "131204.870000", "131206.360000", "131207.850000", "131209.340000", "131210.830000", "131212.320000", "131213.810000", "131215.300000", "131216.790000", "131218.280000", "131219.770000", "131221.260000", "131222.750000", "131224.240000", "131225.730000", "131227.220000", "131228.710000", "131230.200000", "131231.690000", "131233.180000", "131234.670000", "131236.160000", "131237.650000", "131239.140000", "131240.630000", "131242.120000", "131243.610000", "131245.100000", "131246.590000", "131248.080000", "131249.570000", "131251.060000", "131252.550000", "131254.040000", "131255.530000", "131257.020000", "131258.510000", "131300.000000", "131301.490000", "131302.980000", "131304.470000", "131305.960000", "131307.450000", "131308.940000", "131310.430000", "131311.920000", "131313.410000", "131314.900000", "131316.390000", "131317.880000", "131319.370000", "131320.860000", "131322.350000", "131323.840000", "131325.330000", "131326.820000", "131328.310000", "131329.800000", "131331.290000", "131332.780000", "131334.270000", "131335.760000", "131337.250000", "131338.740000", "131340.230000", "131341.720000", "131343.210000", "131344.700000", "131346.190000", "131347.680000", "131349.170000", "131350.660000", "131352.150000", "131353.640000", "131355.130000", "131356.620000", "131358.110000", "131359.600000", "131401.090000", "131402.580000", "131404.070000", "131405.560000", "131407.050000", "131408.540000", "131410.030000", "131411.520000", "131413.010000", "131414.500000", "131415.990000", "131417.480000", "131418.970000", "131420.460000", "131421.950000", "131423.440000", "131424.930000", "131426.420000", "131427.910000", "131429.400000", "131430.890000", "131432.380000", "131433.870000", "131435.360000", "131436.850000", "131438.340000", "131439.830000", "131441.320000", "131442.810000", "131444.300000", "131445.790000", "131447.280000", "131448.770000", "131450.260000", "131451.750000", "131453.240000", "131454.730000", "131456.220000", "131457.710000", "131459.200000", "131500.690000", "131502.180000", "131503.670000", "131505.160000", "131506.650000", "131508.140000", "131509.630000", "131511.120000", "131512.610000", "131514.100000", "131515.590000", "131517.080000", "131518.570000", "131520.060000", "131521.550000", "131523.040000", "131524.530000", "131526.020000", "131527.510000", "131529.000000", "131530.490000", "131531.980000", "131533.470000", "131534.960000", "131536.450000", "131537.940000", "131539.430000", "131540.920000", "131542.410000", "131543.900000", "131545.390000", "131546.880000", "131548.370000", "131549.860000", "131551.350000", "131552.840000", "131554.330000", "131555.820000", "131557.310000", "131558.800000", "131600.290000", "131601.780000", "131603.270000", "131604.760000", "131606.250000", "131607.740000", "131609.230000", "131610.720000", "131612.210000", "131613.700000", "131615.190000", "131616.680000", "131618.170000", "131619.660000", "131621.150000", "131622.640000", "131624.130000", "131625.620000", "131627.110000", "131628.600000", "131630.090000", "131631.580000", "131633.070000", "131634.560000", "131636.050000", "131637.540000", "131639.030000", "131640.520000", "131642.010000", "131643.500000", "131644.990000", "131646.480000", "131647.970000", "131649.460000", "131650.950000", "131652.440000", "131653.930000", "131655.420000", "131656.910000", "131658.400000", "131659.890000", "131701.380000", "131702.870000", "131704.360000", "131705.850000", "131707.340000", "131708.830000", "131710.320000", "131711.810000", "131713.300000", "131714.790000", "131716.280000", "131717.770000", "131719.260000", "131720.750000", "131722.240000", "131723.730000", "131725.220000", "131726.710000", "131728.200000", "131729.690000", "131731.180000", "131732.670000", "131734.160000", "131735.650000", "131737.140000", "131738.630000", "131740.120000", "131741.610000", "131743.100000", "131744.590000", "131746.080000", "131747.570000", "131749.060000", "131750.550000", "131752.040000", "131753.530000", "131755.020000", "131756.510000", "131758.000000", "131759.490000", "131800.980000", "131802.470000", "131803.960000", "131805.450000", "131806.940000", "131808.430000", "131809.920000", "131811.410000", "131812.900000", "131814.390000", "131815.880000", "131817.370000", "131818.860000", "131820.350000", "131821.840000", "131823.330000", "131824.820000", "131826.310000", "131827.800000", "131829.290000", "131830.780000", "131832.270000", "131833.760000", "131835.250000", "131836.740000", "131838.230000", "131839.720000", "131841.210000", "131842.700000", "131844.190000", "131845.680000", "131847.170000", "131848.660000", "131850.150000", "131851.640000", "131853.130000", "131854.620000", "131856.110000", "131857.600000", "131859.090000", "131900.580000", "131902.070000", "131903.560000", "131905.050000", "131906.540000", "131908.030000", "131909.520000", "131911.010000", "131912.500000", "131913.990000", "131915.480000", "131916.970000", "131918.460000", "131919.950000", "131921.440000", "131922.930000", "131924.420000", "131925.910000", "131927.400000", "131928.890000", "131930.380000", "131931.870000", "131933.360000", "131934.850000", "131936.340000", "131937.830000", "131939.320000", "131940.810000", "131942.300000", "131943.790000", "131945.280000", "131946.770000", "131948.260000", "131949.750000", "131951.240000", "131952.730000", "131954.220000", "131955.710000", "131957.200000", "131958.690000", "132000.180000", "132001.670000", "132003.160000", "132004.650000", "132006.140000", "132007.630000", "132009.120000", "132010.610000", "132012.100000", "132013.590000", "132015.080000", "132016.570000", "132018.060000", "132019.550000", "132021.040000", "132022.530000", "132024.020000", "132025.510000", "132027.000000", "132028.490000", "132029.980000", "132031.470000", "132032.960000", "132034.450000", "132035.940000", "132037.430000", "132038.920000", "132040.410000"],
      "ContentTime": ["131059.827000", "131059.830000", "131059.833000", "131059.836000", "131059.839000", "131059.842000", "131059.845000", "131059.848000", "131059.851000", "131059.854000", "131059.857000", "131059.860000", "131059.863000", "131059.866000", "131059.869000", "131059.872000", "131059.875000", "131059.878000", "131059.891000", "131059.894000", "131059.897000", "131059.900000", "131059.903000", "131059.906000", "131059.909000", "131059.912000", "131119.797000", "131119.800000", "131119.803000", "131119.806000", "131119.809000", "131119.812000", "131119.815000", "131119.818000", "131119.821000", "131119.824000", "131119.836000", "131119.839000", "131119.842000", "131119.845000", "131119.848000", "131119.851000", "131119.854000", "131119.857000", "131119.860000", "131119.863000", "131139.797000", "131139.800000", "131139.803000", "131139.806000", "131139.809000", "131139.812000", "131139.815000", "131139.818000", "131139.821000", "131139.824000", "131139.827000", "131139.830000", "131139.833000", "131139.835000", "131139.839000", "131139.841000", "131139.844000", "131139.847000", "131139.856000", "131139.867000", "131159.797000", "131159.800000", "131159.811000", "131159.814000", "131159.817000", "131159.820000", "131159.823000", "131159.826000", "131159.828000", "131159.831000", "131159.834000", "131159.837000", "131159.840000", "131159.843000", "131159.846000", "131159.849000", "131159.852000", "131159.855000", "131159.858000", "131159.860000", "131219.797000", "131219.800000", "131219.803000", "131219.806000", "131219.809000", "131219.812000", "131219.815000", "131219.818000", "131219.821000", "131219.823000", "131219.826000", "131219.829000", "131219.832000", "131219.835000", "131219.838000", "131219.841000", "131219.844000", "131219.847000", "131219.850000", "131219.853000", "131239.796000", "131239.799000", "131239.802000", "131239.805000", "131239.808000", "131239.811000", "131239.814000", "131239.817000", "131239.820000", "131239.823000", "131239.826000", "131239.829000", "131239.832000", "131239.835000", "131239.839000", "131239.842000", "131239.845000", "131239.848000", "131239.851000", "131239.854000", "131239.857000", "131319.797000", "131319.800000", "131319.803000", "131319.806000", "131319.809000", "131319.812000", "131319.815000", "131319.818000", "131319.821000", "131319.824000", "131319.827000", "131319.830000", "131319.833000", "131319.836000", "131319.839000", "131319.842000", "131319.845000", "131319.848000", "131319.851000", "131319.854000", "131319.857000", "131319.860000", "131319.863000", "131319.866000", "131319.869000", "131319.872000", "131319.875000", "131319.878000", "131319.881000", "131359.797000", "131359.806000", "131359.809000", "131359.812000", "131359.815000", "131359.818000", "131359.821000", "131359.824000", "131359.836000", "131359.839000", "131359.842000", "131359.845000", "131359.848000", "131359.851000", "131359.854000", "131359.857000", "131359.860000", "131359.863000", "131359.866000", "131359.869000", "131359.872000", "131359.875000", "131359.878000", "131359.881000", "131359.883000", "131359.887000", "131359.890000", "131439.797000", "131439.800000", "131439.804000", "131439.807000", "131439.810000", "131439.813000", "131439.816000", "131439.819000", "131439.822000", "131439.825000", "131439.828000", "131439.830000", "131439.834000", "131439.836000", "131439.839000", "131439.842000", "131439.845000", "131439.848000", "131439.851000", "131439.854000", "131439.857000", "131439.860000", "131439.863000", "131439.866000", "131439.869000", "131439.872000", "131439.875000", "131519.796000", "131519.799000", "131519.802000", "131519.805000", "131519.808000", "131519.811000", "131519.814000", "131519.817000", "131519.820000", "131519.823000", "131519.826000", "131519.829000", "131519.832000", "131519.835000", "131519.838000", "131519.841000", "131519.844000", "131519.847000", "131519.850000", "131519.853000", "131519.856000", "131519.858000", "131519.861000", "131519.865000", "131519.868000", "131519.870000", "131519.873000", "131559.797000", "131559.800000", "131559.803000", "131559.806000", "131559.809000", "131559.812000", "131559.815000", "131559.818000", "131559.821000", "131559.824000", "131559.827000", "131559.830000", "131559.833000", "131559.836000", "131559.839000", "131559.842000", "131559.849000", "131559.852000", "131559.855000", "131559.858000", "131559.861000", "131559.864000", "131559.867000", "131559.881000", "131559.884000", "131559.887000", "131559.894000", "131639.797000", "131639.800000", "131639.803000", "131639.806000", "131639.809000", "131639.812000", "131639.815000", "131639.818000", "131639.821000", "131639.824000", "131639.827000", "131639.830000", "131639.833000", "131639.836000", "131639.839000", "131639.842000", "131639.845000", "131639.848000", "131639.851000", "131639.854000", "131639.857000", "131639.860000", "131639.863000", "131639.866000", "131639.869000", "131639.872000", "131639.875000", "131719.797000", "131719.800000", "131719.804000", "131719.807000", "131719.810000", "131719.813000", "131719.816000", "131719.819000", "131719.823000", "131719.826000", "131719.829000", "131719.831000", "131719.834000", "131719.837000", "131719.840000", "131719.843000", "131719.846000", "131719.849000", "131719.852000", "131719.855000", "131719.858000", "131719.861000", "131719.864000", "131719.867000", "131719.870000", "131719.873000", "131759.797000", "131759.800000", "131759.804000", "131759.807000", "131759.810000", "131759.813000", "131759.816000", "131759.819000", "131759.822000", "131759.825000", "131759.828000", "131759.831000", "131759.834000", "131759.837000", "131759.840000", "131759.843000", "131759.846000", "131759.848000", "131759.851000", "131759.854000", "131759.857000", "131759.860000", "131759.864000", "131759.866000", "131759.869000", "131759.872000", "131759.875000", "131839.797000", "131839.800000", "131839.803000", "131839.806000", "131839.809000", "131839.812000", "131839.815000", "131839.818000", "131839.821000", "131839.824000", "131839.827000", "131839.830000", "131839.833000", "131839.836000", "131839.839000", "131839.842000", "131839.845000", "131839.848000", "131839.851000", "131839.854000", "131839.857000", "131839.860000", "131839.863000", "131839.866000", "131839.869000", "131839.872000", "131839.875000", "131919.797000", "131919.800000", "131919.803000", "131919.806000", "131919.809000", "131919.812000", "131919.815000", "131919.818000", "131919.821000", "131919.824000", "131919.827000", "131919.830000", "131919.833000", "131919.836000", "131919.839000", "131919.842000", "131919.845000", "131919.848000", "131919.850000", "131919.853000", "131919.856000", "131919.859000", "131919.862000", "131919.865000", "131919.868000", "131919.871000", "131919.874000", "131959.796000", "131959.799000", "131959.802000", "131959.805000", "131959.808000", "131959.811000", "131959.814000", "131959.817000", "131959.820000", "131959.823000", "131959.826000", "131959.828000", "131959.832000", "131959.835000", "131959.838000", "131959.841000", "131959.844000", "131959.848000", "131959.851000", "131959.854000", "131959.857000", "131959.860000", "131959.863000", "131959.866000", "131959.868000", "131959.871000", "131959.874000", "132039.797000", "132039.800000", "132039.803000", "132039.806000", "132039.809000", "132039.812000", "132039.815000", "132039.818000", "132039.821000", "132039.824000", "132039.827000", "132039.830000", "132039.833000", "132039.836000", "132039.839000", "132039.841000", "132039.844000", "132039.847000", "132039.850000", "132039.876000", "132039.879000", "132039.882000", "132039.885000", "132039.888000", "132039.891000", "132039.894000", "132039.897000", "132042.476000", "132042.479000"],
