{
  "AcquisitionMatrixPE": 104,
  "AcquisitionNumber": 1,
  "AcquisitionTime": "13:21:9.317500",
  "BandwidthPerPixelPhaseEncode": 17.17,
  "BaseResolution": 104,
  "BodyPartExamined": "BRAIN",
  "CoilString": "HC1-7;NC1_2",
  "ConsistencyInfo": "N4_VE11C_LATEST_20160120",
  "ConversionSoftware": "dcm2niix",
  "ConversionSoftwareVersion": "v1.0.20190902",
  "DerivedVendorReportedEchoSpacing": 0.000560011,
  "DeviceSerialNumber": "167006",
  "DwellTime": 2.1e-06,
  "EchoTime": 0.037,
  "EchoTrainLength": 104,
  "EffectiveEchoSpacing": 0.000560011,
  "FlipAngle": 52,
  "ImageComments": "Unaliased_MB4_PE3_LB",
  "ImageOrientationPatientDICOM": [0.997973, -0.013202, -0.062249, -0.00243852, 0.969589, -0.244728],
  "ImageType": [
    "ORIGINAL",
    "PRIMARY",
    "M",
    "MB",
    "ND",
    "MOSAIC"
],
  "ImagingFrequency": 123.259,
  "InPlanePhaseEncodingDirectionDICOM": "COL",
  "InstitutionAddress": "Chemin_Queen-Mary_4565_Montreal_District_CA_H3W_1W5",
  "InstitutionName": "IUGM",
  "InstitutionalDepartmentName": "Department",
  "MRAcquisitionType": "2D",
  "MagneticFieldStrength": 3,
  "Manufacturer": "Siemens",
  "ManufacturersModelName": "Prisma_fit",
  "Modality": "MR",
  "MultibandAccelerationFactor": 4,
  "PartialFourier": 1,
  "PatientPosition": "HFS",
  "PercentPhaseFOV": 100,
  "PhaseEncodingDirection": "j",
  "PhaseEncodingSteps": 104,
  "PhaseResolution": 1,
  "PixelBandwidth": 2290,
  "ProcedureStepDescription": "video_friends",
  "ProtocolName": "func_task-friends-s03e17b",
  "PulseSequenceDetails": "%CustomerSeq%_cmrr_mbep2d_bold",
  "ReceiveCoilActiveElements": "HC1-7;NC1,2",
  "ReceiveCoilName": "HeadNeck_64",
  "ReconMatrixPE": 104,
  "RepetitionTime": 1.49,
  "SAR": 0.029199,
  "ScanOptions": "FS",
  "ScanningSequence": "EP",
  "SequenceName": "epfid2d1_104",
  "SequenceVariant": "SK_SS",
  "SeriesDescription": "func_task-friends-s03e17b",
  "SeriesNumber": 11,
  "ShimSetting": [604, -7256, -8829, 593, -29, -291, 2, 38],
  "SliceThickness": 2,
  "SliceTiming": [0, 0.785, 0.0975, 0.8825, 0.195, 0.98, 0.295, 1.0775, 0.3925, 1.175, 0.49, 1.275, 0.5875, 1.3725, 0.685, 0, 0.785, 0.0975, 0.8825, 0.195, 0.98, 0.295, 1.0775, 0.3925, 1.175, 0.49, 1.275, 0.5875, 1.3725, 0.685, 0, 0.785, 0.0975, 0.8825, 0.195, 0.98, 0.295, 1.0775, 0.3925, 1.175, 0.49, 1.275, 0.5875, 1.3725, 0.685, 0, 0.785, 0.0975, 0.8825, 0.195, 0.98, 0.295, 1.0775, 0.3925, 1.175, 0.49, 1.275, 0.5875, 1.3725, 0.685],
  "SoftwareVersions": "syngo_MR_E11",
  "SpacingBetweenSlices": 2,
  "StationName": "MRC35049",
  "TaskName": "s03e17b",
  "TotalReadoutTime": 0.0576811,
  "TxRefAmp": 216.293,
  "WipMemBlock": "30b67a54-c0bf-406f-a8db-fceb67d40c64||Sequence: R016 ve11c/master r/e634e98; Dec 19 2017 11:00:25 by eja",
  "dcmmeta_affine": [
    [-1.9959466457366943, -0.004877033177763224, -0.12717373669147491, 101.3214340209961],
    [0.026403993368148804, 1.939177393913269, -0.4887675344944, -83.8389663696289],
    [-0.12449809163808823, 0.489455908536911, 1.935183048248291, -49.232810974121094],
    [0.0, 0.0, 0.0, 1.0]
],
  "dcmmeta_reorient_transform": [
    [0.0, -1.0, 0.0, 103.0],
    [1.0, 0.0, 0.0, 0.0],
    [0.0, 0.0, 1.0, 0.0],
    [0.0, 0.0, 0.0, 1.0]
],
  "dcmmeta_shape": [104, 104, 60, 453],
  "dcmmeta_slice_dim": 2,
  "dcmmeta_version": 0.6,
  "global": {
    "const": {
      "AcquisitionMatrix": [104, 0, 0, 104],
      "AngioFlag": "N",
      "BitsAllocated": 16,
      "BitsStored": 16,
      "BodyPartExamined": "BRAIN",
      "Columns": 832,
      "EchoNumbers": 1,
      "EchoTime": 37.0,
      "EchoTrainLength": 104,
      "FlipAngle": 52.0,
      "HighBit": 15,
      "ImageOrientationPatient": [0.99797332818971, -0.0132019967027, -0.0622490442097, -0.0024385165386, 0.96958871690739, -0.2447279585233],
      "ImagePositionPatient": [-825.56844250742, -812.1458419696, 224.66040521426],
      "ImageType": [
        "ORIGINAL",
        "PRIMARY",
        "M",
        "MB",
        "ND",
        "MOSAIC"
],
      "ImagedNucleus": "1H",
      "ImagingFrequency": 123.259038,
      "InPlanePhaseEncodingDirection": "COL",
      "MRAcquisitionType": "2D",
      "MagneticFieldStrength": 3.0,
      "Manufacturer": "SIEMENS",
      "ManufacturerModelName": "Prisma_fit",
      "Modality": "MR",
      "NumberOfAverages": 1.0,
      "NumberOfPhaseEncodingSteps": 104,
      "PercentPhaseFieldOfView": 100.0,
      "PercentSampling": 100.0,
      "PerformedProcedureStepStartTime": "125526.232000",
      "PhotometricInterpretation": "MONOCHROME2",
      "PixelBandwidth": 2290.0,
      "PixelRepresentation": 0,
      "PixelSpacing": [2.0, 2.0],
      "ProtocolName": "func_task-friends-s03e17b",
      "RepetitionTime": 1490.0,
      "Rows": 832,
      "SAR": 0.02919904490526,
      "SamplesPerPixel": 1,
      "ScanOptions": "FS",
      "ScanningSequence": "EP",
      "SequenceName": "epfid2d1_104",
      "SequenceVariant": [
        "SK",
        "SS"
],
      "SeriesDescription": "func_task-friends-s03e17b",
      "SeriesNumber": 11,
      "SeriesTime": "132227.841000",
      "SliceLocation": -33.591079995692,
      "SliceThickness": 2.0,
      "SmallestImagePixelValue": 0,
      "SoftwareVersions": "syngo MR E11",
      "SpacingBetweenSlices": 2.0000000205795,
      "SpecificCharacterSet": "ISO_IR 100",
      "StudyID": "1",
      "StudyTime": "125526.110000",
      "TransmitCoilName": "Body",
      "VariableFlipAngleFlag": "N",
      "WindowCenterWidthExplanation": "Algo1",
      "dBdt": 0.0},
    "slices": {}
  },
  "time": {
    "samples": {
      "AcquisitionNumber": [1, 2, 3, 4, 5, 6, 7, 8, 9, 10, 11, 12, 13, 14, 15, 16, 17, 18, 19, 20, 21, 22, 23, 24, 25, 26, 27, 28, 29, 30, 31, 32, 33, 34, 35, 36, 37, 38, 39, 40, 41, 42, 43, 44, 45, 46, 47, 48, 49, 50, 51, 52, 53, 54, 55, 56, 57, 58, 59, 60, 61, 62, 63, 64, 65, 66, 67, 68, 69, 70, 71, 72, 73, 74, 75, 76, 77, 78, 79, 80, 81, 82, 83, 84, 85, 86, 87, 88, 89, 90, 91, 92, 93, 94, 95, 96, 97, 98, 99, 100, 101, 102, 103, 104, 105, 106, 107, 108, 109, 110, 111, 112, 113, 114, 115, 116, 117, 118, 119, 120, 121, 122, 123, 124, 125, 126, 127, 128, 129, 130, 131, 132, 133, 134, 135, 136, 137, 138, 139, 140, 141, 142, 143, 144, 145, 146, 147, 148, 149, 150, 151, 152, 153, 154, 155, 156, 157, 158, 159, 160, 161, 162, 163, 164, 165, 166, 167, 168, 169, 170, 171, 172, 173, 174, 175, 176, 177, 178, 179, 180, 181, 182, 183, 184, 185, 186, 187, 188, 189, 190, 191, 192, 193, 194, 195, 196, 197, 198, 199, 200, 201, 202, 203, 204, 205, 206, 207, 208, 209, 210, 211, 212, 213, 214, 215, 216, 217, 218, 219, 220, 221, 222, 223, 224, 225, 226, 227, 228, 229, 230, 231, 232, 233, 234, 235, 236, 237, 238, 239, 240, 241, 242, 243, 244, 245, 246, 247, 248, 249, 250, 251, 252, 253, 254, 255, 256, 257, 258, 259, 260, 261, 262, 263, 264, 265, 266, 267, 268, 269, 270, 271, 272, 273, 274, 275, 276, 277, 278, 279, 280, 281, 282, 283, 284, 285, 286, 287, 288, 289, 290, 291, 292, 293, 294, 295, 296, 297, 298, 299, 300, 301, 302, 303, 304, 305, 306, 307, 308, 309, 310, 311, 312, 313, 314, 315, 316, 317, 318, 319, 320, 321, 322, 323, 324, 325, 326, 327, 328, 329, 330, 331, 332, 333, 334, 335, 336, 337, 338, 339, 340, 341, 342, 343, 344, 345, 346, 347, 348, 349, 350, 351, 352, 353, 354, 355, 356, 357, 358, 359, 360, 361, 362, 363, 364, 365, 366, 367, 368, 369, 370, 371, 372, 373, 374, 375, 376, 377, 378, 379, 380, 381, 382, 383, 384, 385, 386, 387, 388, 389, 390, 391, 392, 393, 394, 395, 396, 397, 398, 399, 400, 401, 402, 403, 404, 405, 406, 407, 408, 409, 410, 411, 412, 413, 414, 415, 416, 417, 418, 419, 420, 421, 422, 423, 424, 425, 426, 427, 428, 429, 430, 431, 432, 433, 434, 435, 436, 437, 438, 439, 440, 441, 442, 443, 444, 445, 446, 447, 448, 449, 450, 451, 452, 453],
      "AcquisitionTime": ["132109.317500", "132110.807500", "132112.297500", "132113.787500", "132115.277500", "132116.767500", "132118.257500", "132119.747500", "132121.237500", "132122.727500", "132124.217500", "132125.707500", "132127.197500", "132128.687500", "132130.177500", "132131.667500", "132133.157500", "132134.647500", "132136.137500", "132137.627500", "132139.117500", "132140.607500", "132142.097500", "132143.587500", "132145.077500", "132146.567500", "132148.057500", "132149.547500", "132151.037500", "132152.527500", "132154.017500", "132155.507500", "132156.997500", "132158.487500", "132159.977500", "132201.467500", "132202.957500", "132204.447500", "132205.937500", "132207.427500", "132208.917500", "132210.407500", "132211.897500", "132213.387500", "132214.877500", "132216.367500", "132217.857500", "132219.347500", "132220.837500", "132222.327500", "132223.817500", "132225.307500", "132226.797500", "132228.287500", "132229.777500", "132231.267500", "132232.757500", "132234.247500", "132235.737500", "132237.227500", "132238.717500", "132240.207500", "132241.697500", "132243.187500", "132244.677500", "132246.167500", "132247.657500", "132249.147500", "132250.637500", "132252.127500", "132253.617500", "132255.107500", "132256.597500", "132258.087500", "132259.577500", "132301.067500", "132302.557500", "132304.047500", "132305.537500", "132307.027500", "132308.517500", "132310.007500", "132311.497500", "132312.987500", "132314.477500", "132315.967500", "132317.457500", "132318.947500", "132320.437500", "132321.927500", "132323.417500", "132324.907500", "132326.397500", "132327.887500", "132329.377500", "132330.867500", "132332.357500", "132333.847500", "132335.337500", "132336.827500", "132338.317500", "132339.807500", "132341.297500", "132342.787500", "132344.277500", "132345.767500", "132347.257500", "132348.747500", "132350.237500", "132351.727500", "132353.217500", "132354.707500", "132356.197500", "132357.687500", "132359.177500", "132400.667500", "132402.157500", "132403.647500", "132405.137500", "132406.627500", "132408.117500", "132409.607500", "132411.097500", "132412.587500", "132414.077500", "132415.567500", "132417.057500", "132418.547500", "132420.037500", "132421.527500", "132423.017500", "132424.507500", "132425.997500", "132427.487500", "132428.977500", "132430.467500", "132431.957500", "132433.447500", "132434.937500", "132436.427500", "132437.917500", "132439.407500", "132440.897500", "132442.387500", "132443.877500", "132445.367500", "132446.857500", "132448.347500", "132449.837500", "132451.327500", "132452.817500", "132454.307500", "132455.797500", "132457.287500", "132458.777500", "132500.267500", "132501.757500", "132503.247500", "132504.737500", "132506.227500", "132507.717500", "132509.207500", "132510.697500", "132512.187500", "132513.677500", "132515.167500", "132516.657500", "132518.147500", "132519.637500", "132521.127500", "132522.617500", "132524.107500", "132525.597500", "132527.087500", "132528.577500", "132530.067500", "132531.557500", "132533.047500", "132534.537500", "132536.027500", "132537.517500", "132539.007500", "132540.497500", "132541.987500", "132543.477500", "132544.967500", "132546.457500", "132547.947500", "132549.437500", "132550.927500", "132552.417500", "132553.907500", "132555.397500", "132556.887500", "132558.377500", "132559.867500", "132601.357500", "132602.847500", "132604.337500", "132605.827500", "132607.317500", "132608.807500", "132610.297500", "132611.787500", "132613.277500", "132614.767500", "132616.257500", "132617.747500", "132619.237500", "132620.727500", "132622.217500", "132623.707500", "132625.197500", "132626.687500", "132628.177500", "132629.667500", "132631.157500", "132632.647500", "132634.137500", "132635.627500", "132637.117500", "132638.607500", "132640.097500", "132641.587500", "132643.077500", "132644.567500", "132646.057500", "132647.547500", "132649.037500", "132650.527500", "132652.017500", "132653.507500", "132654.997500", "132656.487500", "132657.977500", "132659.467500", "132700.957500", "132702.447500", "132703.937500", "132705.427500", "132706.917500", "132708.407500", "132709.897500", "132711.387500", "132712.877500", "132714.367500", "132715.857500", "132717.347500", "132718.837500", "132720.327500", "132721.817500", "132723.307500", "132724.797500", "132726.287500", "132727.777500", "132729.267500", "132730.757500", "132732.247500", "132733.737500", "132735.227500", "132736.717500", "132738.207500", "132739.697500", "132741.187500", "132742.677500", "132744.167500", "132745.657500", "132747.147500", "132748.637500", "132750.127500", "132751.617500", "132753.107500", "132754.597500", "132756.087500", "132757.577500", "132759.067500", "132800.557500", "132802.047500", "132803.537500", "132805.027500", "132806.517500", "132808.007500", "132809.497500", "132810.987500", "132812.477500", "132813.967500", "132815.457500", "132816.947500", "132818.437500", "132819.927500", "132821.417500", "132822.907500", "132824.397500", "132825.887500", "132827.377500", "132828.867500", "132830.357500", "132831.847500", "132833.337500", "132834.827500", "132836.317500", "132837.807500", "132839.297500", "132840.787500", "132842.277500", "132843.767500", "132845.257500", "132846.747500", "132848.237500", "132849.727500", "132851.217500", "132852.707500", "132854.197500", "132855.687500", "132857.177500", "132858.667500", "132900.157500", "132901.647500", "132903.137500", "132904.627500", "132906.117500", "132907.607500", "132909.097500", "132910.587500", "132912.077500", "132913.567500", "132915.057500", "132916.547500", "132918.037500", "132919.527500", "132921.017500", "132922.507500", "132923.997500", "132925.487500", "132926.977500", "132928.467500", "132929.957500", "132931.447500", "132932.937500", "132934.427500", "132935.917500", "132937.407500", "132938.897500", "132940.387500", "132941.877500", "132943.367500", "132944.857500", "132946.347500", "132947.837500", "132949.327500", "132950.817500", "132952.307500", "132953.797500", "132955.287500", "132956.777500", "132958.267500", "132959.757500", "133001.247500", "133002.737500", "133004.227500", "133005.717500", "133007.207500", "133008.697500", "133010.187500", "133011.677500", "133013.167500", "133014.657500", "133016.147500", "133017.637500", "133019.127500", "133020.617500", "133022.107500", "133023.597500", "133025.087500", "133026.577500", "133028.067500", "133029.557500", "133031.047500", "133032.537500", "133034.027500", "133035.517500", "133037.007500", "133038.497500", "133039.987500", "133041.477500", "133042.967500", "133044.457500", "133045.947500", "133047.437500", "133048.927500", "133050.417500", "133051.907500", "133053.397500", "133054.887500", "133056.377500", "133057.867500", "133059.357500", "133100.847500", "133102.337500", "133103.827500", "133105.317500", "133106.807500", "133108.297500", "133109.787500", "133111.277500", "133112.767500", "133114.257500", "133115.747500", "133117.237500", "133118.727500", "133120.217500", "133121.707500", "133123.197500", "133124.687500", "133126.177500", "133127.667500", "133129.157500", "133130.647500", "133132.137500", "133133.627500", "133135.117500", "133136.607500", "133138.097500", "133139.587500", "133141.077500", "133142.567500", "133144.057500", "133145.547500", "133147.037500", "133148.527500", "133150.017500", "133151.507500", "133152.997500", "133154.487500", "133155.977500", "133157.467500", "133158.957500", "133200.447500", "133201.937500", "133203.427500", "133204.917500", "133206.407500", "133207.897500", "133209.387500", "133210.877500", "133212.367500", "133213.857500", "133215.347500", "133216.837500", "133218.327500", "133219.817500", "133221.307500", "133222.797500"],
      "ContentTime": ["132227.844000", "132227.848000", "132227.851000", "132227.854000", "132227.857000", "132227.859000", "132227.862000", "132227.865000", "132227.868000", "132227.871000", "132227.874000", "132227.877000", "132227.882000", "132227.887000", "132227.890000", "132227.902000", "132227.905000", "132227.908000", "132227.910000", "132227.913000", "132227.916000", "132227.919000", "132227.922000", "132227.925000", "132227.928000", "132227.931000", "132247.807000", "132247.810000", "132247.813000", "132247.816000", "132247.819000", "132247.822000", "132247.825000", "132247.827000", "132247.836000", "132247.839000", "132247.842000", "132247.844000", "132247.848000", "132247.850000", "132247.853000", "132247.856000", "132247.859000", "132247.862000", "132247.865000", "132247.868000", "132307.807000", "132307.810000", "132307.813000", "132307.822000", "132307.825000", "132307.828000", "132307.831000", "132307.834000", "132307.836000", "132307.839000", "132307.842000", "132307.845000", "132307.848000", "132307.851000", "132307.854000", "132307.857000", "132307.860000", "132307.878000", "132307.881000", "132307.884000", "132327.807000", "132327.810000", "132327.813000", "132327.816000", "132327.819000", "132327.830000", "132327.833000", "132327.836000", "132327.839000", "132327.842000", "132327.845000", "132327.848000", "132327.851000", "132327.854000", "132327.857000", "132327.860000", "132327.862000", "132327.866000", "132327.869000", "132327.871000", "132347.808000", "132347.811000", "132347.814000", "132347.817000", "132347.820000", "132347.823000", "132347.835000", "132347.838000", "132347.841000", "132347.844000", "132347.847000", "132347.850000", "132347.853000", "132347.855000", "132347.858000", "132347.861000", "132347.864000", "132347.867000", "132347.870000", "132347.873000", "132427.808000", "132427.811000", "132427.814000", "132427.821000", "132427.824000", "132427.827000", "132427.830000", "132427.833000", "132427.836000", "132427.839000", "132427.842000", "132427.845000", "132427.848000", "132427.851000", "132427.854000", "132427.857000", "132427.860000", "132427.863000", "132427.866000", "132427.868000", "132427.871000", "132427.874000", "132427.877000", "132427.880000", "132427.883000", "132427.886000", "132507.807000", "132507.810000", "132507.813000", "132507.816000", "132507.819000", "132507.822000", "132507.825000", "132507.828000", "132507.830000", "132507.833000", "132507.836000", "132507.839000", "132507.842000", "132507.845000", "132507.848000", "132507.851000", "132507.854000", "132507.857000", "132507.860000", "132507.863000", "132507.866000", "132507.868000", "132507.871000", "132507.874000", "132507.877000", "132507.880000", "132507.883000", "132547.807000", "132547.810000", "132547.813000", "132547.816000", "132547.819000", "132547.822000", "132547.825000", "132547.828000", "132547.831000", "132547.834000", "132547.837000", "132547.840000", "132547.843000", "132547.846000", "132547.849000", "132547.852000", "132547.855000", "132547.858000", "132547.861000", "132547.864000", "132547.867000", "132547.869000", "132547.872000", "132547.884000", "132547.887000", "132547.890000", "132547.893000", "132627.808000", "132627.811000", "132627.814000", "132627.817000", "132627.820000", "132627.823000", "132627.826000", "132627.829000", "132627.831000", "132627.834000", "132627.837000", "132627.840000", "132627.843000", "132627.846000", "132627.849000", "132627.852000", "132627.855000", "132627.858000", "132627.861000", "132627.864000", "132627.867000", "132627.870000", "132627.873000", "132627.876000", "132627.878000", "132627.881000", "132627.884000", "132707.808000", "132707.811000", "132707.814000", "132707.817000", "132707.820000", "132707.823000", "132707.826000", "132707.829000", "132707.832000", "132707.835000", "132707.838000", "132707.841000", "132707.844000", "132707.846000", "132707.849000", "132707.852000", "132707.855000", "132707.858000", "132707.861000", "132707.864000", "132707.867000", "132707.870000", "132707.873000", "132707.876000", "132707.879000", "132707.882000", "132707.885000", "132747.807000", "132747.810000", "132747.813000", "132747.816000", "132747.819000", "132747.822000", "132747.825000", "132747.828000", "132747.831000", "132747.834000", "132747.836000", "132747.839000", "132747.842000", "132747.845000", "132747.848000", "132747.851000", "132747.854000", "132747.857000", "132747.860000", "132747.863000", "132747.866000", "132747.875000", "132747.878000", "132747.881000", "132747.884000", "132747.887000", "132747.890000", "132827.808000", "132827.812000", "132827.815000", "132827.819000", "132827.822000", "132827.824000", "132827.827000", "132827.831000", "132827.834000", "132827.837000", "132827.840000", "132827.843000", "132827.846000", "132827.849000", "132827.852000", "132827.855000", "132827.858000", "132827.861000", "132827.864000", "132827.867000", "132827.870000", "132827.873000", "132827.876000", "132827.878000", "132827.881000", "132827.884000", "132907.808000", "132907.811000", "132907.814000", "132907.817000", "132907.820000", "132907.823000", "132907.826000", "132907.829000", "132907.832000", "132907.835000", "132907.838000", "132907.841000", "132907.844000", "132907.846000", "132907.849000", "132907.852000", "132907.855000", "132907.858000", "132907.861000", "132907.864000", "132907.867000", "132907.870000", "132907.873000", "132907.876000", "132907.879000", "132907.881000", "132907.884000", "132947.807000", "132947.810000", "132947.813000", "132947.816000", "132947.819000", "132947.822000", "132947.825000", "132947.828000", "132947.831000", "132947.834000", "132947.836000", "132947.839000", "132947.842000", "132947.845000", "132947.848000", "132947.851000", "132947.854000", "132947.857000", "132947.860000", "132947.863000", "132947.866000", "132947.869000", "132947.872000", "132947.875000", "132947.878000", "132947.881000", "132947.884000", "133027.807000", "133027.810000", "133027.813000", "133027.816000", "133027.819000", "133027.822000", "133027.825000", "133027.828000", "133027.831000", "133027.834000", "133027.836000", "133027.839000", "133027.842000", "133027.845000", "133027.848000", "133027.851000", "133027.854000", "133027.857000", "133027.872000", "133027.875000", "133027.878000", "133027.881000", "133027.884000", "133027.887000", "133027.890000", "133027.893000", "133027.896000", "133107.808000", "133107.811000", "133107.814000", "133107.817000", "133107.834000", "133107.837000", "133107.840000", "133107.843000", "133107.846000", "133107.849000", "133107.852000", "133107.855000", "133107.858000", "133107.861000", "133107.864000", "133107.867000", "133107.870000", "133107.873000", "133107.876000", "133107.879000", "133107.882000", "133107.885000", "133107.888000", "133107.891000", "133107.894000", "133107.897000", "133107.900000", "133147.808000", "133147.811000", "133147.814000", "133147.817000", "133147.820000", "133147.823000", "133147.826000", "133147.829000", "133147.832000", "133147.835000", "133147.838000", "133147.841000", "133147.844000", "133147.847000", "133147.850000", "133147.853000", "133147.856000", "133147.859000", "133147.862000", "133147.865000", "133147.868000", "133147.871000", "133147.874000", "133147.877000", "133147.880000", "133147.883000", "133147.886000", "133224.768000", "133224.772000", "133224.775000", "133224.778000", "133224.781000", "133224.784000", "133224.787000", "133224.790000", "133224.793000", "133224.796000", "133224.799000", "133224.802000", "133224.805000", "133224.808000", "133224.811000", "133224.814000", "133224.817000", "133224.820000", "133224.823000", "133224.826000", "133224.830000", "133224.833000", "133224.836000", "133224.839000", "133224.841000"],
