{
  "AcquisitionMatrixPE": 104,
  "AcquisitionNumber": 1,
  "AcquisitionTime": "13:45:18.475000",
  "BandwidthPerPixelPhaseEncode": 17.17,
  "BaseResolution": 104,
  "BodyPartExamined": "BRAIN",
  "CoilString": "HC1-7;NC1_2",
  "ConsistencyInfo": "N4_VE11C_LATEST_20160120",
  "ConversionSoftware": "dcm2niix",
  "ConversionSoftwareVersion": "v1.0.20190902",
  "DerivedVendorReportedEchoSpacing": 0.000560011,
  "DeviceSerialNumber": "167006",
  "DwellTime": 2.1e-06,
  "EchoTime": 0.037,
  "EchoTrainLength": 104,
  "EffectiveEchoSpacing": 0.000560011,
  "FlipAngle": 52,
  "ImageComments": "Unaliased_MB4_PE3_LB",
  "ImageOrientationPatientDICOM": [0.997973, -0.013202, -0.062249, -0.00243852, 0.969589, -0.244728],
  "ImageType": [
    "ORIGINAL",
    "PRIMARY",
    "M",
    "MB",
    "ND",
    "MOSAIC"
],
  "ImagingFrequency": 123.259,
  "InPlanePhaseEncodingDirectionDICOM": "COL",
  "InstitutionAddress": "Chemin_Queen-Mary_4565_Montreal_District_CA_H3W_1W5",
  "InstitutionName": "IUGM",
  "InstitutionalDepartmentName": "Department",
  "MRAcquisitionType": "2D",
  "MagneticFieldStrength": 3,
  "Manufacturer": "Siemens",
  "ManufacturersModelName": "Prisma_fit",
  "Modality": "MR",
  "MultibandAccelerationFactor": 4,
  "PartialFourier": 1,
  "PatientPosition": "HFS",
  "PercentPhaseFOV": 100,
  "PhaseEncodingDirection": "j",
  "PhaseEncodingSteps": 104,
  "PhaseResolution": 1,
  "PixelBandwidth": 2290,
  "ProcedureStepDescription": "video_friends",
  "ProtocolName": "func_task-friends-s03e18b",
  "PulseSequenceDetails": "%CustomerSeq%_cmrr_mbep2d_bold",
  "ReceiveCoilActiveElements": "HC1-7;NC1,2",
  "ReceiveCoilName": "HeadNeck_64",
  "ReconMatrixPE": 104,
  "RepetitionTime": 1.49,
  "SAR": 0.0292034,
  "ScanOptions": "FS",
  "ScanningSequence": "EP",
  "SequenceName": "epfid2d1_104",
  "SequenceVariant": "SK_SS",
  "SeriesDescription": "func_task-friends-s03e18b",
  "SeriesNumber": 15,
  "ShimSetting": [604, -7256, -8829, 593, -29, -291, 2, 38],
  "SliceThickness": 2,
  "SliceTiming": [0, 0.785, 0.1, 0.8825, 0.1975, 0.98, 0.295, 1.08, 0.3925, 1.1775, 0.49, 1.275, 0.59, 1.3725, 0.6875, 0, 0.785, 0.1, 0.8825, 0.1975, 0.98, 0.295, 1.08, 0.3925, 1.1775, 0.49, 1.275, 0.59, 1.3725, 0.6875, 0, 0.785, 0.1, 0.8825, 0.1975, 0.98, 0.295, 1.08, 0.3925, 1.1775, 0.49, 1.275, 0.59, 1.3725, 0.6875, 0, 0.785, 0.1, 0.8825, 0.1975, 0.98, 0.295, 1.08, 0.3925, 1.1775, 0.49, 1.275, 0.59, 1.3725, 0.6875],
  "SoftwareVersions": "syngo_MR_E11",
  "SpacingBetweenSlices": 2,
  "StationName": "MRC35049",
  "TaskName": "s03e18b",
  "TotalReadoutTime": 0.0576811,
  "TxRefAmp": 216.293,
  "WipMemBlock": "53f616ab-90d4-4641-9099-ab2970a29462||Sequence: R016 ve11c/master r/e634e98; Dec 19 2017 11:00:25 by eja",
  "dcmmeta_affine": [
    [-1.9959466457366943, -0.004877033177763224, -0.12717373669147491, 101.3214340209961],
    [0.026403993368148804, 1.939177393913269, -0.4887675344944, -83.8389663696289],
    [-0.12449809163808823, 0.489455908536911, 1.935183048248291, -49.232810974121094],
    [0.0, 0.0, 0.0, 1.0]
],
  "dcmmeta_reorient_transform": [
    [0.0, -1.0, 0.0, 103.0],
    [1.0, 0.0, 0.0, 0.0],
    [0.0, 0.0, 1.0, 0.0],
    [0.0, 0.0, 0.0, 1.0]
],
  "dcmmeta_shape": [104, 104, 60, 469],
  "dcmmeta_slice_dim": 2,
  "dcmmeta_version": 0.6,
  "global": {
    "const": {
      "AcquisitionMatrix": [104, 0, 0, 104],
      "AngioFlag": "N",
      "BitsAllocated": 16,
      "BitsStored": 16,
      "BodyPartExamined": "BRAIN",
      "Columns": 832,
      "EchoNumbers": 1,
      "EchoTime": 37.0,
      "EchoTrainLength": 104,
      "FlipAngle": 52.0,
      "HighBit": 15,
      "ImageOrientationPatient": [0.99797332818971, -0.0132019967027, -0.0622490442097, -0.0024385165386, 0.96958871690739, -0.2447279585233],
      "ImagePositionPatient": [-825.56844250742, -812.1458419696, 224.66040521426],
      "ImageType": [
        "ORIGINAL",
        "PRIMARY",
        "M",
        "MB",
        "ND",
        "MOSAIC"
],
      "ImagedNucleus": "1H",
      "ImagingFrequency": 123.259045,
      "InPlanePhaseEncodingDirection": "COL",
      "MRAcquisitionType": "2D",
      "MagneticFieldStrength": 3.0,
      "Manufacturer": "SIEMENS",
      "ManufacturerModelName": "Prisma_fit",
      "Modality": "MR",
      "NumberOfAverages": 1.0,
      "NumberOfPhaseEncodingSteps": 104,
      "PercentPhaseFieldOfView": 100.0,
      "PercentSampling": 100.0,
      "PerformedProcedureStepStartTime": "125526.232000",
      "PhotometricInterpretation": "MONOCHROME2",
      "PixelBandwidth": 2290.0,
      "PixelRepresentation": 0,
      "PixelSpacing": [2.0, 2.0],
      "ProtocolName": "func_task-friends-s03e18b",
      "RepetitionTime": 1490.0,
      "Rows": 832,
      "SAR": 0.02920338669154,
      "SamplesPerPixel": 1,
      "ScanOptions": "FS",
      "ScanningSequence": "EP",
      "SequenceName": "epfid2d1_104",
      "SequenceVariant": [
        "SK",
        "SS"
],
      "SeriesDescription": "func_task-friends-s03e18b",
      "SeriesNumber": 15,
      "SeriesTime": "134639.825000",
      "SliceLocation": -33.591079995692,
      "SliceThickness": 2.0,
      "SmallestImagePixelValue": 0,
      "SoftwareVersions": "syngo MR E11",
      "SpacingBetweenSlices": 2.0000000205795,
      "SpecificCharacterSet": "ISO_IR 100",
      "StudyID": "1",
      "StudyTime": "125526.110000",
      "TransmitCoilName": "Body",
      "VariableFlipAngleFlag": "N",
      "WindowCenterWidthExplanation": "Algo1",
      "dBdt": 0.0},
    "slices": {}
  },
  "time": {
    "samples": {
      "AcquisitionNumber": [1, 2, 3, 4, 5, 6, 7, 8, 9, 10, 11, 12, 13, 14, 15, 16, 17, 18, 19, 20, 21, 22, 23, 24, 25, 26, 27, 28, 29, 30, 31, 32, 33, 34, 35, 36, 37, 38, 39, 40, 41, 42, 43, 44, 45, 46, 47, 48, 49, 50, 51, 52, 53, 54, 55, 56, 57, 58, 59, 60, 61, 62, 63, 64, 65, 66, 67, 68, 69, 70, 71, 72, 73, 74, 75, 76, 77, 78, 79, 80, 81, 82, 83, 84, 85, 86, 87, 88, 89, 90, 91, 92, 93, 94, 95, 96, 97, 98, 99, 100, 101, 102, 103, 104, 105, 106, 107, 108, 109, 110, 111, 112, 113, 114, 115, 116, 117, 118, 119, 120, 121, 122, 123, 124, 125, 126, 127, 128, 129, 130, 131, 132, 133, 134, 135, 136, 137, 138, 139, 140, 141, 142, 143, 144, 145, 146, 147, 148, 149, 150, 151, 152, 153, 154, 155, 156, 157, 158, 159, 160, 161, 162, 163, 164, 165, 166, 167, 168, 169, 170, 171, 172, 173, 174, 175, 176, 177, 178, 179, 180, 181, 182, 183, 184, 185, 186, 187, 188, 189, 190, 191, 192, 193, 194, 195, 196, 197, 198, 199, 200, 201, 202, 203, 204, 205, 206, 207, 208, 209, 210, 211, 212, 213, 214, 215, 216, 217, 218, 219, 220, 221, 222, 223, 224, 225, 226, 227, 228, 229, 230, 231, 232, 233, 234, 235, 236, 237, 238, 239, 240, 241, 242, 243, 244, 245, 246, 247, 248, 249, 250, 251, 252, 253, 254, 255, 256, 257, 258, 259, 260, 261, 262, 263, 264, 265, 266, 267, 268, 269, 270, 271, 272, 273, 274, 275, 276, 277, 278, 279, 280, 281, 282, 283, 284, 285, 286, 287, 288, 289, 290, 291, 292, 293, 294, 295, 296, 297, 298, 299, 300, 301, 302, 303, 304, 305, 306, 307, 308, 309, 310, 311, 312, 313, 314, 315, 316, 317, 318, 319, 320, 321, 322, 323, 324, 325, 326, 327, 328, 329, 330, 331, 332, 333, 334, 335, 336, 337, 338, 339, 340, 341, 342, 343, 344, 345, 346, 347, 348, 349, 350, 351, 352, 353, 354, 355, 356, 357, 358, 359, 360, 361, 362, 363, 364, 365, 366, 367, 368, 369, 370, 371, 372, 373, 374, 375, 376, 377, 378, 379, 380, 381, 382, 383, 384, 385, 386, 387, 388, 389, 390, 391, 392, 393, 394, 395, 396, 397, 398, 399, 400, 401, 402, 403, 404, 405, 406, 407, 408, 409, 410, 411, 412, 413, 414, 415, 416, 417, 418, 419, 420, 421, 422, 423, 424, 425, 426, 427, 428, 429, 430, 431, 432, 433, 434, 435, 436, 437, 438, 439, 440, 441, 442, 443, 444, 445, 446, 447, 448, 449, 450, 451, 452, 453, 454, 455, 456, 457, 458, 459, 460, 461, 462, 463, 464, 465, 466, 467, 468, 469],
      "AcquisitionTime": ["134518.475000", "134519.965000", "134521.455000", "134522.945000", "134524.435000", "134525.925000", "134527.415000", "134528.905000", "134530.395000", "134531.885000", "134533.375000", "134534.865000", "134536.355000", "134537.845000", "134539.335000", "134540.825000", "134542.315000", "134543.805000", "134545.295000", "134546.785000", "134548.275000", "134549.765000", "134551.255000", "134552.745000", "134554.235000", "134555.725000", "134557.215000", "134558.705000", "134600.195000", "134601.685000", "134603.175000", "134604.665000", "134606.155000", "134607.645000", "134609.135000", "134610.625000", "134612.115000", "134613.605000", "134615.095000", "134616.585000", "134618.075000", "134619.565000", "134621.055000", "134622.545000", "134624.035000", "134625.525000", "134627.015000", "134628.505000", "134629.995000", "134631.485000", "134632.975000", "134634.465000", "134635.955000", "134637.445000", "134638.935000", "134640.425000", "134641.915000", "134643.405000", "134644.895000", "134646.385000", "134647.875000", "134649.365000", "134650.855000", "134652.345000", "134653.835000", "134655.325000", "134656.815000", "134658.305000", "134659.795000", "134701.285000", "134702.775000", "134704.265000", "134705.755000", "134707.245000", "134708.735000", "134710.225000", "134711.715000", "134713.205000", "134714.695000", "134716.185000", "134717.675000", "134719.165000", "134720.655000", "134722.145000", "134723.635000", "134725.125000", "134726.615000", "134728.105000", "134729.595000", "134731.085000", "134732.575000", "134734.065000", "134735.555000", "134737.045000", "134738.535000", "134740.025000", "134741.515000", "134743.005000", "134744.495000", "134745.985000", "134747.475000", "134748.965000", "134750.455000", "134751.945000", "134753.435000", "134754.925000", "134756.415000", "134757.905000", "134759.395000", "134800.885000", "134802.375000", "134803.865000", "134805.355000", "134806.845000", "134808.335000", "134809.825000", "134811.315000", "134812.805000", "134814.295000", "134815.785000", "134817.275000", "134818.765000", "134820.255000", "134821.745000", "134823.235000", "134824.725000", "134826.215000", "134827.705000", "134829.195000", "134830.685000", "134832.175000", "134833.665000", "134835.155000", "134836.645000", "134838.135000", "134839.625000", "134841.115000", "134842.605000", "134844.095000", "134845.585000", "134847.075000", "134848.565000", "134850.055000", "134851.545000", "134853.035000", "134854.525000", "134856.015000", "134857.505000", "134858.995000", "134900.485000", "134901.975000", "134903.465000", "134904.955000", "134906.445000", "134907.935000", "134909.425000", "134910.915000", "134912.405000", "134913.895000", "134915.385000", "134916.875000", "134918.365000", "134919.855000", "134921.345000", "134922.835000", "134924.325000", "134925.815000", "134927.305000", "134928.795000", "134930.285000", "134931.775000", "134933.265000", "134934.755000", "134936.245000", "134937.735000", "134939.225000", "134940.715000", "134942.205000", "134943.695000", "134945.185000", "134946.675000", "134948.165000", "134949.655000", "134951.145000", "134952.635000", "134954.125000", "134955.615000", "134957.105000", "134958.595000", "135000.085000", "135001.575000", "135003.065000", "135004.555000", "135006.045000", "135007.535000", "135009.025000", "135010.515000", "135012.005000", "135013.495000", "135014.985000", "135016.475000", "135017.965000", "135019.455000", "135020.945000", "135022.435000", "135023.925000", "135025.415000", "135026.905000", "135028.395000", "135029.885000", "135031.375000", "135032.865000", "135034.355000", "135035.845000", "135037.335000", "135038.825000", "135040.315000", "135041.805000", "135043.295000", "135044.785000", "135046.275000", "135047.765000", "135049.255000", "135050.745000", "135052.235000", "135053.725000", "135055.215000", "135056.705000", "135058.195000", "135059.685000", "135101.175000", "135102.665000", "135104.155000", "135105.645000", "135107.135000", "135108.625000", "135110.115000", "135111.605000", "135113.095000", "135114.585000", "135116.075000", "135117.565000", "135119.055000", "135120.545000", "135122.035000", "135123.525000", "135125.015000", "135126.505000", "135127.995000", "135129.485000", "135130.975000", "135132.465000", "135133.955000", "135135.445000", "135136.935000", "135138.425000", "135139.915000", "135141.405000", "135142.895000", "135144.385000", "135145.875000", "135147.365000", "135148.855000", "135150.345000", "135151.835000", "135153.325000", "135154.815000", "135156.305000", "135157.795000", "135159.285000", "135200.775000", "135202.265000", "135203.755000", "135205.245000", "135206.735000", "135208.225000", "135209.715000", "135211.205000", "135212.695000", "135214.185000", "135215.675000", "135217.165000", "135218.655000", "135220.145000", "135221.635000", "135223.125000", "135224.615000", "135226.105000", "135227.595000", "135229.085000", "135230.575000", "135232.065000", "135233.555000", "135235.045000", "135236.535000", "135238.025000", "135239.515000", "135241.005000", "135242.495000", "135243.985000", "135245.475000", "135246.965000", "135248.455000", "135249.945000", "135251.435000", "135252.925000", "135254.415000", "135255.905000", "135257.395000", "135258.885000", "135300.375000", "135301.865000", "135303.355000", "135304.845000", "135306.335000", "135307.825000", "135309.315000", "135310.805000", "135312.295000", "135313.785000", "135315.275000", "135316.765000", "135318.255000", "135319.745000", "135321.235000", "135322.725000", "135324.215000", "135325.705000", "135327.195000", "135328.685000", "135330.175000", "135331.665000", "135333.155000", "135334.645000", "135336.135000", "135337.625000", "135339.115000", "135340.605000", "135342.095000", "135343.585000", "135345.075000", "135346.565000", "135348.055000", "135349.545000", "135351.035000", "135352.525000", "135354.015000", "135355.505000", "135356.995000", "135358.485000", "135359.975000", "135401.465000", "135402.955000", "135404.445000", "135405.935000", "135407.425000", "135408.915000", "135410.405000", "135411.895000", "135413.385000", "135414.875000", "135416.365000", "135417.855000", "135419.345000", "135420.835000", "135422.325000", "135423.815000", "135425.305000", "135426.795000", "135428.285000", "135429.775000", "135431.265000", "135432.755000", "135434.245000", "135435.735000", "135437.225000", "135438.715000", "135440.205000", "135441.695000", "135443.185000", "135444.675000", "135446.165000", "135447.655000", "135449.145000", "135450.635000", "135452.125000", "135453.615000", "135455.105000", "135456.595000", "135458.085000", "135459.575000", "135501.065000", "135502.555000", "135504.045000", "135505.535000", "135507.025000", "135508.515000", "135510.005000", "135511.495000", "135512.985000", "135514.475000", "135515.965000", "135517.455000", "135518.945000", "135520.435000", "135521.925000", "135523.415000", "135524.905000", "135526.395000", "135527.885000", "135529.375000", "135530.865000", "135532.355000", "135533.845000", "135535.335000", "135536.825000", "135538.315000", "135539.805000", "135541.295000", "135542.785000", "135544.275000", "135545.765000", "135547.255000", "135548.745000", "135550.235000", "135551.725000", "135553.215000", "135554.705000", "135556.195000", "135557.685000", "135559.175000", "135600.665000", "135602.155000", "135603.645000", "135605.135000", "135606.625000", "135608.115000", "135609.605000", "135611.095000", "135612.585000", "135614.075000", "135615.565000", "135617.055000", "135618.545000", "135620.035000", "135621.525000", "135623.015000", "135624.505000", "135625.995000", "135627.485000", "135628.975000", "135630.465000", "135631.955000", "135633.445000", "135634.935000", "135636.425000", "135637.915000", "135639.405000", "135640.895000", "135642.385000", "135643.875000", "135645.365000", "135646.855000", "135648.345000", "135649.835000", "135651.325000", "135652.815000", "135654.305000", "135655.795000"],
      "ContentTime": ["134639.827000", "134639.831000", "134639.834000", "134639.836000", "134639.841000", "134639.844000", "134639.847000", "134639.850000", "134639.853000", "134639.856000", "134639.859000", "134639.862000", "134639.865000", "134639.868000", "134639.871000", "134639.874000", "134639.876000", "134639.879000", "134639.882000", "134639.885000", "134639.888000", "134639.891000", "134639.894000", "134639.897000", "134639.900000", "134639.903000", "134639.906000", "134639.909000", "134659.797000", "134659.800000", "134659.803000", "134659.806000", "134659.809000", "134659.812000", "134659.815000", "134659.818000", "134659.820000", "134659.823000", "134659.826000", "134659.829000", "134659.832000", "134659.835000", "134659.838000", "134659.841000", "134659.844000", "134659.847000", "134659.849000", "134659.852000", "134719.797000", "134719.813000", "134719.816000", "134719.819000", "134719.822000", "134719.832000", "134719.835000", "134719.838000", "134719.841000", "134719.844000", "134719.847000", "134719.850000", "134719.852000", "134719.856000", "134719.859000", "134719.861000", "134719.864000", "134719.868000", "134719.870000", "134719.873000", "134739.796000", "134739.799000", "134739.802000", "134739.805000", "134739.808000", "134739.811000", "134739.814000", "134739.817000", "134739.820000", "134739.823000", "134739.826000", "134739.829000", "134739.832000", "134739.834000", "134739.837000", "134739.840000", "134739.848000", "134739.850000", "134739.853000", "134739.856000", "134759.797000", "134759.800000", "134759.803000", "134759.806000", "134759.809000", "134759.812000", "134759.815000", "134759.818000", "134759.821000", "134759.824000", "134759.826000", "134759.829000", "134759.832000", "134759.835000", "134759.838000", "134759.841000", "134759.851000", "134759.854000", "134759.857000", "134759.859000", "134839.797000", "134839.806000", "134839.808000", "134839.811000", "134839.814000", "134839.817000", "134839.820000", "134839.823000", "134839.826000", "134839.831000", "134839.834000", "134839.837000", "134839.839000", "134839.842000", "134839.845000", "134839.848000", "134839.851000", "134839.854000", "134839.857000", "134839.860000", "134839.863000", "134839.866000", "134839.869000", "134839.872000", "134839.875000", "134839.877000", "134919.797000", "134919.800000", "134919.803000", "134919.806000", "134919.809000", "134919.812000", "134919.815000", "134919.818000", "134919.821000", "134919.824000", "134919.826000", "134919.829000", "134919.832000", "134919.835000", "134919.838000", "134919.841000", "134919.844000", "134919.847000", "134919.850000", "134919.853000", "134919.856000", "134919.858000", "134919.861000", "134919.864000", "134919.867000", "134919.870000", "134919.873000", "134959.796000", "134959.799000", "134959.802000", "134959.805000", "134959.808000", "134959.811000", "134959.814000", "134959.817000", "134959.820000", "134959.823000", "134959.826000", "134959.829000", "134959.831000", "134959.834000", "134959.837000", "134959.840000", "134959.843000", "134959.846000", "134959.849000", "134959.852000", "134959.855000", "134959.868000", "134959.871000", "134959.874000", "134959.876000", "134959.879000", "134959.882000", "135039.797000", "135039.800000", "135039.803000", "135039.806000", "135039.809000", "135039.812000", "135039.815000", "135039.818000", "135039.821000", "135039.824000", "135039.827000", "135039.830000", "135039.833000", "135039.836000", "135039.839000", "135039.842000", "135039.845000", "135039.848000", "135039.850000", "135039.853000", "135039.856000", "135039.859000", "135039.862000", "135039.865000", "135039.868000", "135039.871000", "135039.874000", "135119.797000", "135119.800000", "135119.803000", "135119.806000", "135119.809000", "135119.812000", "135119.815000", "135119.818000", "135119.821000", "135119.824000", "135119.826000", "135119.829000", "135119.832000", "135119.835000", "135119.838000", "135119.841000", "135119.844000", "135119.847000", "135119.850000", "135119.853000", "135119.856000", "135119.859000", "135119.862000", "135119.865000", "135119.868000", "135119.871000", "135119.873000", "135159.797000", "135159.800000", "135159.803000", "135159.806000", "135159.809000", "135159.812000", "135159.815000", "135159.818000", "135159.821000", "135159.824000", "135159.827000", "135159.830000", "135159.833000", "135159.836000", "135159.838000", "135159.841000", "135159.844000", "135159.847000", "135159.850000", "135159.853000", "135159.856000", "135159.859000", "135159.862000", "135159.865000", "135159.868000", "135159.871000", "135159.874000", "135239.797000", "135239.800000", "135239.803000", "135239.806000", "135239.809000", "135239.812000", "135239.815000", "135239.818000", "135239.821000", "135239.824000", "135239.827000", "135239.830000", "135239.833000", "135239.836000", "135239.839000", "135239.842000", "135239.845000", "135239.848000", "135239.851000", "135239.855000", "135239.858000", "135239.861000", "135239.864000", "135239.867000", "135239.870000", "135239.873000", "135319.797000", "135319.800000", "135319.803000", "135319.806000", "135319.809000", "135319.812000", "135319.815000", "135319.818000", "135319.821000", "135319.824000", "135319.827000", "135319.830000", "135319.833000", "135319.835000", "135319.838000", "135319.841000", "135319.844000", "135319.847000", "135319.850000", "135319.853000", "135319.856000", "135319.859000", "135319.862000", "135319.865000", "135319.868000", "135319.871000", "135319.873000", "135359.797000", "135359.800000", "135359.803000", "135359.806000", "135359.809000", "135359.812000", "135359.815000", "135359.818000", "135359.821000", "135359.824000", "135359.827000", "135359.830000", "135359.833000", "135359.836000", "135359.839000", "135359.842000", "135359.845000", "135359.848000", "135359.851000", "135359.854000", "135359.857000", "135359.859000", "135359.862000", "135359.865000", "135359.868000", "135359.871000", "135359.874000", "135439.796000", "135439.799000", "135439.802000", "135439.805000", "135439.808000", "135439.811000", "135439.814000", "135439.817000", "135439.820000", "135439.823000", "135439.826000", "135439.829000", "135439.832000", "135439.835000", "135439.837000", "135439.840000", "135439.856000", "135439.859000", "135439.862000", "135439.865000", "135439.868000", "135439.870000", "135439.873000", "135439.876000", "135439.879000", "135439.882000", "135439.885000", "135519.797000", "135519.800000", "135519.803000", "135519.806000", "135519.809000", "135519.812000", "135519.815000", "135519.818000", "135519.821000", "135519.824000", "135519.827000", "135519.830000", "135519.833000", "135519.836000", "135519.839000", "135519.842000", "135519.845000", "135519.848000", "135519.851000", "135519.853000", "135519.856000", "135519.859000", "135519.862000", "135519.865000", "135519.868000", "135519.871000", "135519.874000", "135559.797000", "135559.800000", "135559.803000", "135559.806000", "135559.809000", "135559.812000", "135559.815000", "135559.818000", "135559.821000", "135559.824000", "135559.827000", "135559.830000", "135559.833000", "135559.836000", "135559.839000", "135559.842000", "135559.845000", "135559.847000", "135559.850000", "135559.853000", "135559.856000", "135559.859000", "135559.862000", "135559.865000", "135559.868000", "135559.871000", "135559.874000", "135639.796000", "135639.799000", "135639.802000", "135639.805000", "135639.808000", "135639.811000", "135639.814000", "135639.817000", "135639.820000", "135639.827000", "135639.830000", "135639.833000", "135639.836000", "135639.839000", "135639.842000", "135639.845000", "135639.848000", "135639.851000", "135639.854000", "135639.857000", "135639.860000", "135639.863000", "135639.866000", "135639.869000", "135639.872000", "135639.875000", "135639.878000", "135657.673000", "135657.677000", "135657.680000", "135657.683000", "135657.686000", "135657.689000", "135657.692000", "135657.696000", "135657.699000", "135657.702000", "135657.705000", "135657.709000"],
