{
  "AcquisitionMatrixPE": 104,
  "AcquisitionNumber": 1,
  "AcquisitionTime": "18:40:8.415000",
  "BandwidthPerPixelPhaseEncode": 17.17,
  "BaseResolution": 104,
  "BodyPartExamined": "BRAIN",
  "CoilString": "HC1-7;NC1_2",
  "ConsistencyInfo": "N4_VE11C_LATEST_20160120",
  "ConversionSoftware": "dcm2niix",
  "ConversionSoftwareVersion": "v1.0.20190902",
  "DerivedVendorReportedEchoSpacing": 0.000560011,
  "DeviceSerialNumber": "167006",
  "DwellTime": 2.1e-06,
  "EchoTime": 0.037,
  "EchoTrainLength": 104,
  "EffectiveEchoSpacing": 0.000560011,
  "FlipAngle": 52,
  "ImageComments": "Unaliased_MB4_PE3_LB",
  "ImageOrientationPatientDICOM": [0.998717, 0.0498773, 0.00870434, -0.0463995, 0.970424, -0.236905],
  "ImageType": [
    "ORIGINAL",
    "PRIMARY",
    "M",
    "MB",
    "ND",
    "MOSAIC"
],
  "ImagingFrequency": 123.259,
  "InPlanePhaseEncodingDirectionDICOM": "COL",
  "InstitutionAddress": "Chemin_Queen-Mary_4565_Montreal_District_CA_H3W_1W5",
  "InstitutionName": "IUGM",
  "InstitutionalDepartmentName": "Department",
  "MRAcquisitionType": "2D",
  "MagneticFieldStrength": 3,
  "Manufacturer": "Siemens",
  "ManufacturersModelName": "Prisma_fit",
  "Modality": "MR",
  "MultibandAccelerationFactor": 4,
  "PartialFourier": 1,
  "PatientPosition": "HFS",
  "PercentPhaseFOV": 100,
  "PhaseEncodingDirection": "j",
  "PhaseEncodingSteps": 104,
  "PhaseResolution": 1,
  "PixelBandwidth": 2290,
  "ProcedureStepDescription": "video_friends",
  "ProtocolName": "func_task-friends-s05e16a",
  "PulseSequenceDetails": "%CustomerSeq%_cmrr_mbep2d_bold",
  "ReceiveCoilActiveElements": "HC1-7;NC1,2",
  "ReceiveCoilName": "HeadNeck_64",
  "ReconMatrixPE": 104,
  "RepetitionTime": 1.49,
  "SAR": 0.0300513,
  "ScanOptions": "FS",
  "ScanningSequence": "EP",
  "SequenceName": "epfid2d1_104",
  "SequenceVariant": "SK_SS",
  "SeriesDescription": "func_task-friends-s05e16a",
  "SeriesNumber": 22,
  "ShimSetting": [645, -7206, -8719, 664, 59, 21, 83, 2],
  "SliceThickness": 2,
  "SliceTiming": [0, 0.785, 0.0975, 0.8825, 0.195, 0.98, 0.295, 1.0775, 0.3925, 1.175, 0.49, 1.275, 0.5875, 1.3725, 0.685, 0, 0.785, 0.0975, 0.8825, 0.195, 0.98, 0.295, 1.0775, 0.3925, 1.175, 0.49, 1.275, 0.5875, 1.3725, 0.685, 0, 0.785, 0.0975, 0.8825, 0.195, 0.98, 0.295, 1.0775, 0.3925, 1.175, 0.49, 1.275, 0.5875, 1.3725, 0.685, 0, 0.785, 0.0975, 0.8825, 0.195, 0.98, 0.295, 1.0775, 0.3925, 1.175, 0.49, 1.275, 0.5875, 1.3725, 0.685],
  "SoftwareVersions": "syngo_MR_E11",
  "SpacingBetweenSlices": 2,
  "StationName": "MRC35049",
  "TaskName": "s05e16a",
  "TotalReadoutTime": 0.0576811,
  "TxRefAmp": 207.383,
  "WipMemBlock": "4f2c1ff2-bc36-45dc-96b3-2586cf8a404f||Sequence: R016 ve11c/master r/e634e98; Dec 19 2017 11:00:25 by eja",
  "dcmmeta_affine": [
    [-1.9974348545074463, -0.09279905259609222, 0.04052616283297539, 109.03324127197266],
    [-0.09975455701351166, 1.9408483505249023, -0.47239476442337036, -79.2821044921875],
    [0.017408674582839012, 0.47381022572517395, 1.9429875612258911, -37.9526252746582],
    [0.0, 0.0, 0.0, 1.0]
],
  "dcmmeta_reorient_transform": [
    [0.0, -1.0, 0.0, 103.0],
    [1.0, 0.0, 0.0, 0.0],
    [0.0, 0.0, 1.0, 0.0],
    [0.0, 0.0, 0.0, 1.0]
],
  "dcmmeta_shape": [104, 104, 60, 485],
  "dcmmeta_slice_dim": 2,
  "dcmmeta_version": 0.6,
  "global": {
    "const": {
      "AcquisitionMatrix": [104, 0, 0, 104],
      "AngioFlag": "N",
      "BitsAllocated": 16,
      "BitsStored": 16,
      "BodyPartExamined": "BRAIN",
      "Columns": 832,
      "EchoNumbers": 1,
      "EchoTime": 37.0,
      "EchoTrainLength": 104,
      "FlipAngle": 52.0,
      "HighBit": 15,
      "ImageOrientationPatient": [0.99871742322641, 0.04987727996377, 0.00870433727579, -0.0463995265531, 0.97042416130363, -0.2369051098938],
      "ImagePositionPatient": [-792.7623677685, -863.40472182582, 176.97998903859],
      "ImageType": [
        "ORIGINAL",
        "PRIMARY",
        "M",
        "MB",
        "ND",
        "MOSAIC"
],
      "ImagedNucleus": "1H",
      "ImagingFrequency": 123.258961,
      "InPlanePhaseEncodingDirection": "COL",
      "MRAcquisitionType": "2D",
      "MagneticFieldStrength": 3.0,
      "Manufacturer": "SIEMENS",
      "ManufacturerModelName": "Prisma_fit",
      "Modality": "MR",
      "NumberOfAverages": 1.0,
      "NumberOfPhaseEncodingSteps": 104,
      "PercentPhaseFieldOfView": 100.0,
      "PercentSampling": 100.0,
      "PerformedProcedureStepStartTime": "173432.073000",
      "PhotometricInterpretation": "MONOCHROME2",
      "PixelBandwidth": 2290.0,
      "PixelRepresentation": 0,
      "PixelSpacing": [2.0, 2.0],
      "ProtocolName": "func_task-friends-s05e16a",
      "RepetitionTime": 1490.0,
      "Rows": 832,
      "SAR": 0.03005126356677,
      "SamplesPerPixel": 1,
      "ScanOptions": "FS",
      "ScanningSequence": "EP",
      "SequenceName": "epfid2d1_104",
      "SequenceVariant": [
        "SK",
        "SS"
],
      "SeriesDescription": "func_task-friends-s05e16a",
      "SeriesNumber": 22,
      "SeriesTime": "184135.979000",
      "SliceLocation": -15.935165739795,
      "SliceThickness": 2.0,
      "SmallestImagePixelValue": 0,
      "SoftwareVersions": "syngo MR E11",
      "SpacingBetweenSlices": 1.9999999523884,
      "SpecificCharacterSet": "ISO_IR 100",
      "StudyID": "1",
      "StudyTime": "173431.894000",
      "TransmitCoilName": "Body",
      "VariableFlipAngleFlag": "N",
      "WindowCenterWidthExplanation": "Algo1",
      "dBdt": 0.0},
    "slices": {}
  },
  "time": {
    "samples": {
      "AcquisitionNumber": [1, 2, 3, 4, 5, 6, 7, 8, 9, 10, 11, 12, 13, 14, 15, 16, 17, 18, 19, 20, 21, 22, 23, 24, 25, 26, 27, 28, 29, 30, 31, 32, 33, 34, 35, 36, 37, 38, 39, 40, 41, 42, 43, 44, 45, 46, 47, 48, 49, 50, 51, 52, 53, 54, 55, 56, 57, 58, 59, 60, 61, 62, 63, 64, 65, 66, 67, 68, 69, 70, 71, 72, 73, 74, 75, 76, 77, 78, 79, 80, 81, 82, 83, 84, 85, 86, 87, 88, 89, 90, 91, 92, 93, 94, 95, 96, 97, 98, 99, 100, 101, 102, 103, 104, 105, 106, 107, 108, 109, 110, 111, 112, 113, 114, 115, 116, 117, 118, 119, 120, 121, 122, 123, 124, 125, 126, 127, 128, 129, 130, 131, 132, 133, 134, 135, 136, 137, 138, 139, 140, 141, 142, 143, 144, 145, 146, 147, 148, 149, 150, 151, 152, 153, 154, 155, 156, 157, 158, 159, 160, 161, 162, 163, 164, 165, 166, 167, 168, 169, 170, 171, 172, 173, 174, 175, 176, 177, 178, 179, 180, 181, 182, 183, 184, 185, 186, 187, 188, 189, 190, 191, 192, 193, 194, 195, 196, 197, 198, 199, 200, 201, 202, 203, 204, 205, 206, 207, 208, 209, 210, 211, 212, 213, 214, 215, 216, 217, 218, 219, 220, 221, 222, 223, 224, 225, 226, 227, 228, 229, 230, 231, 232, 233, 234, 235, 236, 237, 238, 239, 240, 241, 242, 243, 244, 245, 246, 247, 248, 249, 250, 251, 252, 253, 254, 255, 256, 257, 258, 259, 260, 261, 262, 263, 264, 265, 266, 267, 268, 269, 270, 271, 272, 273, 274, 275, 276, 277, 278, 279, 280, 281, 282, 283, 284, 285, 286, 287, 288, 289, 290, 291, 292, 293, 294, 295, 296, 297, 298, 299, 300, 301, 302, 303, 304, 305, 306, 307, 308, 309, 310, 311, 312, 313, 314, 315, 316, 317, 318, 319, 320, 321, 322, 323, 324, 325, 326, 327, 328, 329, 330, 331, 332, 333, 334, 335, 336, 337, 338, 339, 340, 341, 342, 343, 344, 345, 346, 347, 348, 349, 350, 351, 352, 353, 354, 355, 356, 357, 358, 359, 360, 361, 362, 363, 364, 365, 366, 367, 368, 369, 370, 371, 372, 373, 374, 375, 376, 377, 378, 379, 380, 381, 382, 383, 384, 385, 386, 387, 388, 389, 390, 391, 392, 393, 394, 395, 396, 397, 398, 399, 400, 401, 402, 403, 404, 405, 406, 407, 408, 409, 410, 411, 412, 413, 414, 415, 416, 417, 418, 419, 420, 421, 422, 423, 424, 425, 426, 427, 428, 429, 430, 431, 432, 433, 434, 435, 436, 437, 438, 439, 440, 441, 442, 443, 444, 445, 446, 447, 448, 449, 450, 451, 452, 453, 454, 455, 456, 457, 458, 459, 460, 461, 462, 463, 464, 465, 466, 467, 468, 469, 470, 471, 472, 473, 474, 475, 476, 477, 478, 479, 480, 481, 482, 483, 484, 485],
      "AcquisitionTime": ["184008.415000", "184009.905000", "184011.395000", "184012.885000", "184014.375000", "184015.865000", "184017.355000", "184018.845000", "184020.335000", "184021.825000", "184023.315000", "184024.805000", "184026.295000", "184027.785000", "184029.275000", "184030.765000", "184032.255000", "184033.745000", "184035.235000", "184036.725000", "184038.215000", "184039.705000", "184041.195000", "184042.685000", "184044.175000", "184045.665000", "184047.155000", "184048.645000", "184050.135000", "184051.625000", "184053.115000", "184054.605000", "184056.095000", "184057.585000", "184059.075000", "184100.565000", "184102.055000", "184103.545000", "184105.035000", "184106.525000", "184108.015000", "184109.505000", "184110.995000", "184112.485000", "184113.975000", "184115.465000", "184116.955000", "184118.445000", "184119.935000", "184121.425000", "184122.915000", "184124.405000", "184125.895000", "184127.385000", "184128.875000", "184130.365000", "184131.855000", "184133.345000", "184134.835000", "184136.325000", "184137.815000", "184139.305000", "184140.795000", "184142.285000", "184143.775000", "184145.265000", "184146.755000", "184148.245000", "184149.735000", "184151.225000", "184152.715000", "184154.205000", "184155.695000", "184157.185000", "184158.675000", "184200.165000", "184201.655000", "184203.145000", "184204.635000", "184206.125000", "184207.615000", "184209.105000", "184210.595000", "184212.085000", "184213.575000", "184215.065000", "184216.555000", "184218.045000", "184219.535000", "184221.025000", "184222.515000", "184224.005000", "184225.495000", "184226.985000", "184228.475000", "184229.965000", "184231.455000", "184232.945000", "184234.435000", "184235.925000", "184237.415000", "184238.905000", "184240.395000", "184241.885000", "184243.375000", "184244.865000", "184246.355000", "184247.845000", "184249.335000", "184250.825000", "184252.315000", "184253.805000", "184255.295000", "184256.785000", "184258.275000", "184259.765000", "184301.255000", "184302.745000", "184304.235000", "184305.725000", "184307.215000", "184308.705000", "184310.195000", "184311.685000", "184313.175000", "184314.665000", "184316.155000", "184317.645000", "184319.135000", "184320.625000", "184322.115000", "184323.605000", "184325.095000", "184326.585000", "184328.075000", "184329.565000", "184331.055000", "184332.545000", "184334.035000", "184335.525000", "184337.015000", "184338.505000", "184339.995000", "184341.485000", "184342.975000", "184344.465000", "184345.955000", "184347.445000", "184348.935000", "184350.425000", "184351.915000", "184353.405000", "184354.895000", "184356.385000", "184357.875000", "184359.365000", "184400.855000", "184402.345000", "184403.835000", "184405.325000", "184406.815000", "184408.305000", "184409.795000", "184411.285000", "184412.775000", "184414.265000", "184415.755000", "184417.245000", "184418.735000", "184420.225000", "184421.715000", "184423.205000", "184424.695000", "184426.185000", "184427.675000", "184429.165000", "184430.655000", "184432.145000", "184433.635000", "184435.125000", "184436.615000", "184438.105000", "184439.595000", "184441.085000", "184442.575000", "184444.065000", "184445.555000", "184447.045000", "184448.535000", "184450.025000", "184451.515000", "184453.005000", "184454.495000", "184455.985000", "184457.475000", "184458.965000", "184500.455000", "184501.945000", "184503.435000", "184504.925000", "184506.415000", "184507.905000", "184509.395000", "184510.885000", "184512.375000", "184513.865000", "184515.355000", "184516.845000", "184518.335000", "184519.825000", "184521.315000", "184522.805000", "184524.295000", "184525.785000", "184527.275000", "184528.765000", "184530.255000", "184531.745000", "184533.235000", "184534.725000", "184536.215000", "184537.705000", "184539.195000", "184540.685000", "184542.175000", "184543.665000", "184545.155000", "184546.645000", "184548.135000", "184549.625000", "184551.115000", "184552.605000", "184554.095000", "184555.585000", "184557.075000", "184558.565000", "184600.055000", "184601.545000", "184603.035000", "184604.525000", "184606.015000", "184607.505000", "184608.995000", "184610.485000", "184611.975000", "184613.465000", "184614.955000", "184616.445000", "184617.935000", "184619.425000", "184620.915000", "184622.405000", "184623.895000", "184625.385000", "184626.875000", "184628.365000", "184629.855000", "184631.345000", "184632.835000", "184634.325000", "184635.815000", "184637.305000", "184638.795000", "184640.285000", "184641.775000", "184643.265000", "184644.755000", "184646.245000", "184647.735000", "184649.225000", "184650.715000", "184652.205000", "184653.695000", "184655.185000", "184656.675000", "184658.165000", "184659.655000", "184701.145000", "184702.635000", "184704.125000", "184705.615000", "184707.105000", "184708.595000", "184710.085000", "184711.575000", "184713.065000", "184714.555000", "184716.045000", "184717.535000", "184719.025000", "184720.515000", "184722.005000", "184723.495000", "184724.985000", "184726.475000", "184727.965000", "184729.455000", "184730.945000", "184732.435000", "184733.925000", "184735.415000", "184736.905000", "184738.395000", "184739.885000", "184741.375000", "184742.865000", "184744.355000", "184745.845000", "184747.335000", "184748.825000", "184750.315000", "184751.805000", "184753.295000", "184754.785000", "184756.275000", "184757.765000", "184759.255000", "184800.745000", "184802.235000", "184803.725000", "184805.215000", "184806.705000", "184808.195000", "184809.685000", "184811.175000", "184812.665000", "184814.155000", "184815.645000", "184817.135000", "184818.625000", "184820.115000", "184821.605000", "184823.095000", "184824.585000", "184826.075000", "184827.565000", "184829.055000", "184830.545000", "184832.035000", "184833.525000", "184835.015000", "184836.505000", "184837.995000", "184839.485000", "184840.975000", "184842.465000", "184843.955000", "184845.445000", "184846.935000", "184848.425000", "184849.915000", "184851.405000", "184852.895000", "184854.385000", "184855.875000", "184857.365000", "184858.855000", "184900.345000", "184901.835000", "184903.325000", "184904.815000", "184906.305000", "184907.795000", "184909.285000", "184910.775000", "184912.265000", "184913.755000", "184915.245000", "184916.735000", "184918.225000", "184919.715000", "184921.205000", "184922.695000", "184924.185000", "184925.675000", "184927.165000", "184928.655000", "184930.145000", "184931.635000", "184933.125000", "184934.615000", "184936.105000", "184937.595000", "184939.085000", "184940.575000", "184942.065000", "184943.555000", "184945.045000", "184946.535000", "184948.025000", "184949.515000", "184951.005000", "184952.495000", "184953.985000", "184955.475000", "184956.965000", "184958.455000", "184959.945000", "185001.435000", "185002.925000", "185004.415000", "185005.905000", "185007.395000", "185008.885000", "185010.375000", "185011.865000", "185013.355000", "185014.845000", "185016.335000", "185017.825000", "185019.315000", "185020.805000", "185022.295000", "185023.785000", "185025.275000", "185026.765000", "185028.255000", "185029.745000", "185031.235000", "185032.725000", "185034.215000", "185035.705000", "185037.195000", "185038.685000", "185040.175000", "185041.665000", "185043.155000", "185044.645000", "185046.135000", "185047.625000", "185049.115000", "185050.605000", "185052.095000", "185053.585000", "185055.075000", "185056.565000", "185058.055000", "185059.545000", "185101.035000", "185102.525000", "185104.015000", "185105.505000", "185106.995000", "185108.485000", "185109.975000", "185111.465000", "185112.955000", "185114.445000", "185115.935000", "185117.425000", "185118.915000", "185120.405000", "185121.895000", "185123.385000", "185124.875000", "185126.365000", "185127.855000", "185129.345000", "185130.835000", "185132.325000", "185133.815000", "185135.305000", "185136.795000", "185138.285000", "185139.775000", "185141.265000", "185142.755000", "185144.245000", "185145.735000", "185147.225000", "185148.715000", "185150.205000", "185151.695000", "185153.185000", "185154.675000", "185156.165000", "185157.655000", "185159.145000", "185200.635000", "185202.125000", "185203.615000", "185205.105000", "185206.595000", "185208.085000", "185209.575000"],
      "ContentTime": ["184135.982000", "184135.985000", "184135.991000", "184135.994000", "184135.997000", "184136.001000", "184136.004000", "184136.007000", "184136.010000", "184136.012000", "184136.015000", "184136.018000", "184136.021000", "184136.024000", "184136.027000", "184136.039000", "184136.042000", "184136.054000", "184136.057000", "184136.060000", "184136.063000", "184136.066000", "184136.069000", "184136.072000", "184136.075000", "184136.078000", "184136.081000", "184136.084000", "184136.086000", "184136.089000", "184136.099000", "184136.102000", "184155.944000", "184155.947000", "184155.950000", "184155.953000", "184155.956000", "184155.959000", "184155.962000", "184155.965000", "184155.967000", "184155.970000", "184155.973000", "184155.976000", "184155.979000", "184155.982000", "184155.985000", "184155.987000", "184155.990000", "184155.993000", "184155.996000", "184156.000000", "184215.958000", "184215.961000", "184215.964000", "184215.967000", "184215.970000", "184215.973000", "184215.976000", "184215.979000", "184215.982000", "184215.985000", "184215.987000", "184215.990000", "184215.993000", "184215.996000", "184216.000000", "184216.003000", "184216.006000", "184216.009000", "184216.011000", "184216.014000", "184235.944000", "184235.947000", "184235.950000", "184235.953000", "184235.960000", "184235.963000", "184235.966000", "184235.969000", "184235.972000", "184235.975000", "184235.978000", "184235.981000", "184235.984000", "184235.987000", "184235.990000", "184235.993000", "184235.996000", "184236.000000", "184236.002000", "184236.005000", "184255.944000", "184255.947000", "184255.950000", "184255.953000", "184255.956000", "184255.958000", "184255.961000", "184255.964000", "184255.967000", "184255.970000", "184255.973000", "184255.976000", "184255.978000", "184255.988000", "184255.991000", "184255.994000", "184255.997000", "184256.000000", "184256.003000", "184256.006000", "184335.944000", "184335.947000", "184335.950000", "184335.953000", "184335.956000", "184335.959000", "184335.961000", "184335.964000", "184335.967000", "184335.970000", "184335.973000", "184335.976000", "184335.979000", "184335.982000", "184335.984000", "184335.987000", "184335.990000", "184335.993000", "184335.996000", "184336.000000", "184336.003000", "184336.006000", "184336.008000", "184336.012000", "184336.014000", "184336.017000", "184336.020000", "184415.944000", "184415.947000", "184415.950000", "184415.953000", "184415.956000", "184415.959000", "184415.962000", "184415.965000", "184415.968000", "184415.970000", "184415.973000", "184415.976000", "184415.979000", "184415.982000", "184415.985000", "184415.988000", "184415.990000", "184415.993000", "184415.996000", "184416.000000", "184416.003000", "184416.012000", "184416.015000", "184416.018000", "184416.021000", "184416.024000", "184455.944000", "184455.947000", "184455.950000", "184455.953000", "184455.956000", "184455.959000", "184455.962000", "184455.964000", "184455.967000", "184455.970000", "184455.973000", "184455.976000", "184455.979000", "184455.982000", "184455.985000", "184455.987000", "184455.990000", "184455.993000", "184455.996000", "184456.000000", "184456.003000", "184456.006000", "184456.009000", "184456.012000", "184456.015000", "184456.017000", "184456.020000", "184535.944000", "184535.947000", "184535.950000", "184535.953000", "184535.956000", "184535.959000", "184535.962000", "184535.965000", "184535.968000", "184535.970000", "184535.973000", "184535.976000", "184535.979000", "184535.982000", "184535.985000", "184535.988000", "184535.991000", "184535.994000", "184535.997000", "184536.001000", "184536.004000", "184536.007000", "184536.009000", "184536.012000", "184536.015000", "184536.018000", "184536.030000", "184615.944000", "184615.947000", "184615.950000", "184615.953000", "184615.956000", "184615.959000", "184615.961000", "184615.964000", "184615.967000", "184615.970000", "184615.973000", "184615.976000", "184615.979000", "184615.982000", "184615.985000", "184615.987000", "184615.990000", "184615.993000", "184615.996000", "184616.000000", "184616.003000", "184616.006000", "184616.009000", "184616.011000", "184616.014000", "184616.017000", "184616.020000", "184655.943000", "184655.946000", "184655.949000", "184655.952000", "184655.955000", "184655.957000", "184655.960000", "184655.963000", "184655.966000", "184655.969000", "184655.972000", "184655.975000", "184655.978000", "184655.981000", "184655.983000", "184655.986000", "184655.989000", "184655.992000", "184655.995000", "184655.998000", "184656.002000", "184656.005000", "184656.008000", "184656.011000", "184656.013000", "184656.016000", "184656.019000", "184735.944000", "184735.947000", "184735.955000", "184735.958000", "184735.961000", "184735.963000", "184735.966000", "184735.969000", "184735.972000", "184735.975000", "184735.978000", "184735.981000", "184735.984000", "184735.987000", "184735.989000", "184735.992000", "184735.995000", "184735.998000", "184736.002000", "184736.005000", "184736.008000", "184736.011000", "184736.014000", "184736.017000", "184736.020000", "184736.023000", "184736.025000", "184815.944000", "184815.947000", "184815.950000", "184815.953000", "184815.956000", "184815.959000", "184815.962000", "184815.964000", "184815.967000", "184815.970000", "184815.973000", "184815.976000", "184815.979000", "184815.982000", "184815.985000", "184815.988000", "184815.991000", "184815.993000", "184815.996000", "184816.000000", "184816.003000", "184816.006000", "184816.009000", "184816.012000", "184816.015000", "184816.018000", "184816.021000", "184855.944000", "184855.947000", "184855.950000", "184855.953000", "184855.956000", "184855.959000", "184855.962000", "184855.964000", "184855.967000", "184855.970000", "184855.973000", "184855.976000", "184855.979000", "184855.982000", "184855.985000", "184855.988000", "184855.991000", "184855.994000", "184855.997000", "184856.000000", "184856.003000", "184856.006000", "184856.009000", "184856.012000", "184856.015000", "184856.018000", "184935.944000", "184935.953000", "184935.956000", "184935.959000", "184935.962000", "184935.971000", "184935.974000", "184935.977000", "184935.980000", "184935.983000", "184935.986000", "184935.989000", "184935.992000", "184935.995000", "184935.998000", "184936.001000", "184936.004000", "184936.007000", "184936.010000", "184936.013000", "184936.016000", "184936.019000", "184936.022000", "184936.025000", "184936.028000", "184936.031000", "184936.033000", "185015.944000", "185015.947000", "185015.950000", "185015.953000", "185015.956000", "185015.959000", "185015.962000", "185015.965000", "185015.968000", "185015.970000", "185015.973000", "185015.976000", "185015.979000", "185015.982000", "185015.985000", "185015.988000", "185015.991000", "185015.994000", "185015.996000", "185016.001000", "185016.004000", "185016.006000", "185016.009000", "185016.012000", "185016.015000", "185016.018000", "185016.021000", "185055.944000", "185055.947000", "185055.950000", "185055.953000", "185055.956000", "185055.959000", "185055.962000", "185055.964000", "185055.967000", "185055.970000", "185055.973000", "185055.976000", "185055.979000", "185055.982000", "185055.985000", "185055.988000", "185055.991000", "185055.994000", "185055.997000", "185056.001000", "185056.004000", "185056.006000", "185056.021000", "185056.024000", "185056.027000", "185056.030000", "185056.033000", "185135.943000", "185135.955000", "185135.958000", "185135.961000", "185135.964000", "185135.967000", "185135.970000", "185135.973000", "185135.976000", "185135.979000", "185135.982000", "185135.985000", "185135.988000", "185135.991000", "185135.993000", "185135.996000", "185136.000000", "185136.003000", "185136.006000", "185136.009000", "185136.012000", "185136.015000", "185136.017000", "185136.020000", "185136.023000", "185136.026000", "185136.029000", "185211.303000", "185211.306000", "185211.309000", "185211.312000", "185211.315000", "185211.318000", "185211.321000", "185211.324000", "185211.327000", "185211.330000", "185211.333000", "185211.335000", "185211.338000", "185211.341000", "185211.344000", "185211.347000", "185211.350000", "185211.353000", "185211.356000", "185211.359000", "185211.361000", "185211.364000", "185211.367000", "185211.370000"],
