{
  "AcquisitionMatrixPE": 104,
  "AcquisitionNumber": 1,
  "AcquisitionTime": "13:51:5.292500",
  "BandwidthPerPixelPhaseEncode": 17.17,
  "BaseResolution": 104,
  "BodyPartExamined": "BRAIN",
  "CoilString": "HC1-7;NC1_2",
  "ConsistencyInfo": "N4_VE11C_LATEST_20160120",
  "ConversionSoftware": "dcm2niix",
  "ConversionSoftwareVersion": "v1.0.20200427",
  "DerivedVendorReportedEchoSpacing": 0.000560011,
  "DeviceSerialNumber": "167006",
  "DwellTime": 2.1e-06,
  "EchoTime": 0.037,
  "EchoTrainLength": 104,
  "EffectiveEchoSpacing": 0.000560011,
  "FlipAngle": 52,
  "ImageComments": "Unaliased_MB4_PE3_LB",
  "ImageOrientationPatientDICOM": [0.999906, -0.00900231, -0.010387, 0.00575915, 0.96054, -0.278084],
  "ImageType": [
    "ORIGINAL",
    "PRIMARY",
    "M",
    "MB",
    "ND",
    "MOSAIC"
],
  "ImagingFrequency": 123.259,
  "InPlanePhaseEncodingDirectionDICOM": "COL",
  "InstitutionAddress": "Chemin_Queen-Mary_4565_Montreal_District_CA_H3W_1W5",
  "InstitutionName": "IUGM",
  "InstitutionalDepartmentName": "Department",
  "MRAcquisitionType": "2D",
  "MagneticFieldStrength": 3,
  "Manufacturer": "Siemens",
  "ManufacturersModelName": "Prisma_fit",
  "Modality": "MR",
  "MultibandAccelerationFactor": 4,
  "PartialFourier": 1,
  "PatientPosition": "HFS",
  "PercentPhaseFOV": 100,
  "PercentSampling": 100,
  "PhaseEncodingDirection": "j",
  "PhaseEncodingSteps": 104,
  "PhaseResolution": 1,
  "PixelBandwidth": 2290,
  "ProcedureStepDescription": "video_friends",
  "ProtocolName": "func_task-friends-s03e07a",
  "PulseSequenceDetails": "%CustomerSeq%_cmrr_mbep2d_bold",
  "ReceiveCoilActiveElements": "HC1-7;NC1,2",
  "ReceiveCoilName": "HeadNeck_64",
  "ReconMatrixPE": 104,
  "RepetitionTime": 1.49,
  "SAR": 0.0287257,
  "ScanOptions": "FS",
  "ScanningSequence": "EP",
  "SequenceName": "epfid2d1_104",
  "SequenceVariant": "SK_SS",
  "SeriesDescription": "func_task-friends-s03e07a",
  "SeriesNumber": 13,
  "ShimSetting": [619, -7224, -8820, 737, 4, -47, 67, 8],
  "SliceThickness": 2,
  "SliceTiming": [0, 0.7825, 0.0975, 0.8825, 0.195, 0.98, 0.295, 1.0775, 0.3925, 1.175, 0.49, 1.2725, 0.5875, 1.3725, 0.685, 0, 0.7825, 0.0975, 0.8825, 0.195, 0.98, 0.295, 1.0775, 0.3925, 1.175, 0.49, 1.2725, 0.5875, 1.3725, 0.685, 0, 0.7825, 0.0975, 0.8825, 0.195, 0.98, 0.295, 1.0775, 0.3925, 1.175, 0.49, 1.2725, 0.5875, 1.3725, 0.685, 0, 0.7825, 0.0975, 0.8825, 0.195, 0.98, 0.295, 1.0775, 0.3925, 1.175, 0.49, 1.2725, 0.5875, 1.3725, 0.685],
  "SoftwareVersions": "syngo_MR_E11",
  "SpacingBetweenSlices": 2,
  "StationName": "MRC35049",
  "TaskName": "s03e07a",
  "TotalReadoutTime": 0.0576811,
  "TxRefAmp": 207.157,
  "WipMemBlock": "885fc4eb-6fa9-49c8-bd23-5d7a8114c54a||Sequence: R016 ve11c/master r/e634e98; Dec 19 2017 11:00:25 by eja",
  "dcmmeta_affine": [
    [-1.999811053276062, 0.011518305167555809, -0.024961119517683983, 104.34387969970703],
    [0.01800462231040001, 1.921079158782959, -0.5559952855110168, -80.9952392578125],
    [-0.020774081349372864, 0.556167483329773, 1.9210013151168823, -64.97711944580078],
    [0.0, 0.0, 0.0, 1.0]
],
  "dcmmeta_reorient_transform": [
    [0.0, -1.0, 0.0, 103.0],
    [1.0, 0.0, 0.0, 0.0],
    [0.0, 0.0, 1.0, 0.0],
    [0.0, 0.0, 0.0, 1.0]
],
  "dcmmeta_shape": [104, 104, 60, 467],
  "dcmmeta_slice_dim": 2,
  "dcmmeta_version": 0.6,
  "global": {
    "const": {
      "AcquisitionMatrix": [104, 0, 0, 104],
      "AngioFlag": "N",
      "BitsAllocated": 16,
      "BitsStored": 16,
      "BodyPartExamined": "BRAIN",
      "Columns": 832,
      "EchoNumbers": 1,
      "EchoTime": 37.0,
      "EchoTrainLength": 104,
      "FlipAngle": 52.0,
      "HighBit": 15,
      "ImageOrientationPatient": [0.99990552943132, -0.0090023110122, -0.0103870404406, 0.00575915279488, 0.96053956626169, -0.2780837532199],
      "ImagePositionPatient": [-837.65415292604, -809.59503106607, 202.31487119347],
      "ImageType": [
        "ORIGINAL",
        "PRIMARY",
        "M",
        "MB",
        "ND",
        "MOSAIC"
],
      "ImagedNucleus": "1H",
      "ImagingFrequency": 123.259094,
      "InPlanePhaseEncodingDirection": "COL",
      "MRAcquisitionType": "2D",
      "MagneticFieldStrength": 3.0,
      "Manufacturer": "SIEMENS",
      "ManufacturerModelName": "Prisma_fit",
      "Modality": "MR",
      "NumberOfAverages": 1.0,
      "NumberOfPhaseEncodingSteps": 104,
      "PercentPhaseFieldOfView": 100.0,
      "PercentSampling": 100.0,
      "PerformedProcedureStepStartTime": "132351.592000",
      "PhotometricInterpretation": "MONOCHROME2",
      "PixelBandwidth": 2290.0,
      "PixelRepresentation": 0,
      "PixelSpacing": [2.0, 2.0],
      "ProtocolName": "func_task-friends-s03e07a",
      "RepetitionTime": 1490.0,
      "Rows": 832,
      "SAR": 0.02872573556347,
      "SamplesPerPixel": 1,
      "ScanOptions": "FS",
      "ScanningSequence": "EP",
      "SequenceName": "epfid2d1_104",
      "SequenceVariant": [
        "SK",
        "SS"
],
      "SeriesDescription": "func_task-friends-s03e07a",
      "SeriesNumber": 13,
      "SeriesTime": "135224.567000",
      "SliceLocation": -41.196349284268,
      "SliceThickness": 2.0,
      "SmallestImagePixelValue": 0,
      "SoftwareVersions": "syngo MR E11",
      "SpacingBetweenSlices": 1.9999999686865,
      "SpecificCharacterSet": "ISO_IR 100",
      "StudyID": "1",
      "StudyTime": "132351.432000",
      "TransmitCoilName": "Body",
      "VariableFlipAngleFlag": "N",
      "WindowCenterWidthExplanation": "Algo1",
      "dBdt": 0.0},
    "slices": {}
  },
  "time": {
    "samples": {
      "AcquisitionNumber": [1, 2, 3, 4, 5, 6, 7, 8, 9, 10, 11, 12, 13, 14, 15, 16, 17, 18, 19, 20, 21, 22, 23, 24, 25, 26, 27, 28, 29, 30, 31, 32, 33, 34, 35, 36, 37, 38, 39, 40, 41, 42, 43, 44, 45, 46, 47, 48, 49, 50, 51, 52, 53, 54, 55, 56, 57, 58, 59, 60, 61, 62, 63, 64, 65, 66, 67, 68, 69, 70, 71, 72, 73, 74, 75, 76, 77, 78, 79, 80, 81, 82, 83, 84, 85, 86, 87, 88, 89, 90, 91, 92, 93, 94, 95, 96, 97, 98, 99, 100, 101, 102, 103, 104, 105, 106, 107, 108, 109, 110, 111, 112, 113, 114, 115, 116, 117, 118, 119, 120, 121, 122, 123, 124, 125, 126, 127, 128, 129, 130, 131, 132, 133, 134, 135, 136, 137, 138, 139, 140, 141, 142, 143, 144, 145, 146, 147, 148, 149, 150, 151, 152, 153, 154, 155, 156, 157, 158, 159, 160, 161, 162, 163, 164, 165, 166, 167, 168, 169, 170, 171, 172, 173, 174, 175, 176, 177, 178, 179, 180, 181, 182, 183, 184, 185, 186, 187, 188, 189, 190, 191, 192, 193, 194, 195, 196, 197, 198, 199, 200, 201, 202, 203, 204, 205, 206, 207, 208, 209, 210, 211, 212, 213, 214, 215, 216, 217, 218, 219, 220, 221, 222, 223, 224, 225, 226, 227, 228, 229, 230, 231, 232, 233, 234, 235, 236, 237, 238, 239, 240, 241, 242, 243, 244, 245, 246, 247, 248, 249, 250, 251, 252, 253, 254, 255, 256, 257, 258, 259, 260, 261, 262, 263, 264, 265, 266, 267, 268, 269, 270, 271, 272, 273, 274, 275, 276, 277, 278, 279, 280, 281, 282, 283, 284, 285, 286, 287, 288, 289, 290, 291, 292, 293, 294, 295, 296, 297, 298, 299, 300, 301, 302, 303, 304, 305, 306, 307, 308, 309, 310, 311, 312, 313, 314, 315, 316, 317, 318, 319, 320, 321, 322, 323, 324, 325, 326, 327, 328, 329, 330, 331, 332, 333, 334, 335, 336, 337, 338, 339, 340, 341, 342, 343, 344, 345, 346, 347, 348, 349, 350, 351, 352, 353, 354, 355, 356, 357, 358, 359, 360, 361, 362, 363, 364, 365, 366, 367, 368, 369, 370, 371, 372, 373, 374, 375, 376, 377, 378, 379, 380, 381, 382, 383, 384, 385, 386, 387, 388, 389, 390, 391, 392, 393, 394, 395, 396, 397, 398, 399, 400, 401, 402, 403, 404, 405, 406, 407, 408, 409, 410, 411, 412, 413, 414, 415, 416, 417, 418, 419, 420, 421, 422, 423, 424, 425, 426, 427, 428, 429, 430, 431, 432, 433, 434, 435, 436, 437, 438, 439, 440, 441, 442, 443, 444, 445, 446, 447, 448, 449, 450, 451, 452, 453, 454, 455, 456, 457, 458, 459, 460, 461, 462, 463, 464, 465, 466, 467],
      "AcquisitionTime": ["135105.292500", "135106.782500", "135108.272500", "135109.762500", "135111.252500", "135112.742500", "135114.232500", "135115.722500", "135117.212500", "135118.702500", "135120.192500", "135121.682500", "135123.172500", "135124.662500", "135126.152500", "135127.642500", "135129.132500", "135130.622500", "135132.112500", "135133.602500", "135135.092500", "135136.582500", "135138.072500", "135139.562500", "135141.052500", "135142.542500", "135144.032500", "135145.522500", "135147.012500", "135148.502500", "135149.992500", "135151.482500", "135152.972500", "135154.462500", "135155.952500", "135157.442500", "135158.932500", "135200.422500", "135201.912500", "135203.402500", "135204.892500", "135206.382500", "135207.872500", "135209.362500", "135210.852500", "135212.342500", "135213.832500", "135215.322500", "135216.812500", "135218.302500", "135219.792500", "135221.282500", "135222.772500", "135224.262500", "135225.752500", "135227.242500", "135228.732500", "135230.222500", "135231.712500", "135233.202500", "135234.692500", "135236.182500", "135237.672500", "135239.162500", "135240.652500", "135242.142500", "135243.632500", "135245.122500", "135246.612500", "135248.102500", "135249.592500", "135251.082500", "135252.572500", "135254.062500", "135255.552500", "135257.042500", "135258.532500", "135300.022500", "135301.512500", "135303.002500", "135304.492500", "135305.982500", "135307.472500", "135308.962500", "135310.452500", "135311.942500", "135313.432500", "135314.922500", "135316.412500", "135317.902500", "135319.392500", "135320.882500", "135322.372500", "135323.862500", "135325.352500", "135326.842500", "135328.332500", "135329.822500", "135331.312500", "135332.802500", "135334.292500", "135335.782500", "135337.272500", "135338.762500", "135340.252500", "135341.742500", "135343.232500", "135344.722500", "135346.212500", "135347.702500", "135349.192500", "135350.682500", "135352.172500", "135353.662500", "135355.152500", "135356.642500", "135358.132500", "135359.622500", "135401.112500", "135402.602500", "135404.092500", "135405.582500", "135407.072500", "135408.562500", "135410.052500", "135411.542500", "135413.032500", "135414.522500", "135416.012500", "135417.502500", "135418.992500", "135420.482500", "135421.972500", "135423.462500", "135424.952500", "135426.442500", "135427.932500", "135429.422500", "135430.912500", "135432.402500", "135433.892500", "135435.382500", "135436.872500", "135438.362500", "135439.852500", "135441.342500", "135442.832500", "135444.322500", "135445.812500", "135447.302500", "135448.792500", "135450.282500", "135451.772500", "135453.262500", "135454.752500", "135456.242500", "135457.732500", "135459.222500", "135500.712500", "135502.202500", "135503.692500", "135505.182500", "135506.672500", "135508.162500", "135509.652500", "135511.142500", "135512.632500", "135514.122500", "135515.612500", "135517.102500", "135518.592500", "135520.082500", "135521.572500", "135523.062500", "135524.552500", "135526.042500", "135527.532500", "135529.022500", "135530.512500", "135532.002500", "135533.492500", "135534.982500", "135536.472500", "135537.962500", "135539.452500", "135540.942500", "135542.432500", "135543.922500", "135545.412500", "135546.902500", "135548.392500", "135549.882500", "135551.372500", "135552.862500", "135554.352500", "135555.842500", "135557.332500", "135558.822500", "135600.312500", "135601.802500", "135603.292500", "135604.782500", "135606.272500", "135607.762500", "135609.252500", "135610.742500", "135612.232500", "135613.722500", "135615.212500", "135616.702500", "135618.192500", "135619.682500", "135621.172500", "135622.662500", "135624.152500", "135625.642500", "135627.132500", "135628.622500", "135630.112500", "135631.602500", "135633.092500", "135634.582500", "135636.072500", "135637.562500", "135639.052500", "135640.542500", "135642.032500", "135643.522500", "135645.012500", "135646.502500", "135647.992500", "135649.482500", "135650.972500", "135652.462500", "135653.952500", "135655.442500", "135656.932500", "135658.422500", "135659.912500", "135701.402500", "135702.892500", "135704.382500", "135705.872500", "135707.362500", "135708.852500", "135710.342500", "135711.832500", "135713.322500", "135714.812500", "135716.302500", "135717.792500", "135719.282500", "135720.772500", "135722.262500", "135723.752500", "135725.242500", "135726.732500", "135728.222500", "135729.712500", "135731.202500", "135732.692500", "135734.182500", "135735.672500", "135737.162500", "135738.652500", "135740.142500", "135741.632500", "135743.122500", "135744.612500", "135746.102500", "135747.592500", "135749.082500", "135750.572500", "135752.062500", "135753.552500", "135755.042500", "135756.532500", "135758.022500", "135759.512500", "135801.002500", "135802.492500", "135803.982500", "135805.472500", "135806.962500", "135808.452500", "135809.942500", "135811.432500", "135812.922500", "135814.412500", "135815.902500", "135817.392500", "135818.882500", "135820.372500", "135821.862500", "135823.352500", "135824.842500", "135826.332500", "135827.822500", "135829.312500", "135830.802500", "135832.292500", "135833.782500", "135835.272500", "135836.762500", "135838.252500", "135839.742500", "135841.232500", "135842.722500", "135844.212500", "135845.702500", "135847.192500", "135848.682500", "135850.172500", "135851.662500", "135853.152500", "135854.642500", "135856.132500", "135857.622500", "135859.112500", "135900.602500", "135902.092500", "135903.582500", "135905.072500", "135906.562500", "135908.052500", "135909.542500", "135911.032500", "135912.522500", "135914.012500", "135915.502500", "135916.992500", "135918.482500", "135919.972500", "135921.462500", "135922.952500", "135924.442500", "135925.932500", "135927.422500", "135928.912500", "135930.402500", "135931.892500", "135933.382500", "135934.872500", "135936.362500", "135937.852500", "135939.342500", "135940.832500", "135942.322500", "135943.812500", "135945.302500", "135946.792500", "135948.282500", "135949.772500", "135951.262500", "135952.752500", "135954.242500", "135955.732500", "135957.222500", "135958.712500", "140000.202500", "140001.692500", "140003.182500", "140004.672500", "140006.162500", "140007.652500", "140009.142500", "140010.632500", "140012.122500", "140013.612500", "140015.102500", "140016.592500", "140018.082500", "140019.572500", "140021.062500", "140022.552500", "140024.042500", "140025.532500", "140027.022500", "140028.512500", "140030.002500", "140031.492500", "140032.982500", "140034.472500", "140035.962500", "140037.452500", "140038.942500", "140040.432500", "140041.922500", "140043.412500", "140044.902500", "140046.392500", "140047.882500", "140049.372500", "140050.862500", "140052.352500", "140053.842500", "140055.332500", "140056.822500", "140058.312500", "140059.802500", "140101.292500", "140102.782500", "140104.272500", "140105.762500", "140107.252500", "140108.742500", "140110.232500", "140111.722500", "140113.212500", "140114.702500", "140116.192500", "140117.682500", "140119.172500", "140120.662500", "140122.152500", "140123.642500", "140125.132500", "140126.622500", "140128.112500", "140129.602500", "140131.092500", "140132.582500", "140134.072500", "140135.562500", "140137.052500", "140138.542500", "140140.032500", "140141.522500", "140143.012500", "140144.502500", "140145.992500", "140147.482500", "140148.972500", "140150.462500", "140151.952500", "140153.442500", "140154.932500", "140156.422500", "140157.912500", "140159.402500", "140200.892500", "140202.382500", "140203.872500", "140205.362500", "140206.852500", "140208.342500", "140209.832500", "140211.322500", "140212.812500", "140214.302500", "140215.792500", "140217.282500", "140218.772500", "140220.262500", "140221.752500", "140223.242500", "140224.732500", "140226.222500", "140227.712500", "140229.202500", "140230.692500", "140232.182500", "140233.672500", "140235.162500", "140236.652500", "140238.142500", "140239.632500"],
      "ContentTime": ["135224.570000", "135224.573000", "135224.576000", "135224.579000", "135224.582000", "135224.585000", "135224.588000", "135224.591000", "135224.593000", "135224.596000", "135224.606000", "135224.609000", "135224.612000", "135224.615000", "135224.618000", "135224.621000", "135224.623000", "135224.630000", "135224.633000", "135224.642000", "135224.644000", "135224.647000", "135224.650000", "135224.653000", "135224.656000", "135224.659000", "135244.533000", "135244.536000", "135244.539000", "135244.542000", "135244.545000", "135244.547000", "135244.550000", "135244.553000", "135244.556000", "135244.559000", "135244.562000", "135244.565000", "135244.567000", "135244.570000", "135244.573000", "135244.576000", "135244.579000", "135244.582000", "135244.585000", "135244.588000", "135304.533000", "135304.536000", "135304.539000", "135304.541000", "135304.544000", "135304.547000", "135304.550000", "135304.553000", "135304.556000", "135304.559000", "135304.562000", "135304.564000", "135304.567000", "135304.570000", "135304.573000", "135304.576000", "135304.579000", "135304.581000", "135304.585000", "135304.594000", "135324.532000", "135324.535000", "135324.538000", "135324.541000", "135324.543000", "135324.546000", "135324.549000", "135324.552000", "135324.555000", "135324.558000", "135324.561000", "135324.564000", "135324.566000", "135324.569000", "135324.572000", "135324.575000", "135324.578000", "135324.581000", "135324.584000", "135324.587000", "135344.532000", "135344.535000", "135344.538000", "135344.541000", "135344.544000", "135344.546000", "135344.549000", "135344.552000", "135344.555000", "135344.558000", "135344.561000", "135344.564000", "135344.566000", "135344.569000", "135344.572000", "135344.575000", "135344.578000", "135344.581000", "135344.584000", "135344.587000", "135424.532000", "135424.535000", "135424.538000", "135424.541000", "135424.544000", "135424.547000", "135424.549000", "135424.559000", "135424.562000", "135424.565000", "135424.568000", "135424.571000", "135424.574000", "135424.577000", "135424.580000", "135424.582000", "135424.585000", "135424.588000", "135424.591000", "135424.594000", "135424.597000", "135424.600000", "135424.602000", "135424.605000", "135424.608000", "135424.611000", "135424.614000", "135504.533000", "135504.536000", "135504.539000", "135504.542000", "135504.545000", "135504.547000", "135504.550000", "135504.553000", "135504.556000", "135504.559000", "135504.562000", "135504.565000", "135504.568000", "135504.571000", "135504.574000", "135504.577000", "135504.579000", "135504.582000", "135504.585000", "135504.588000", "135504.591000", "135504.594000", "135504.596000", "135504.599000", "135504.602000", "135504.605000", "135504.608000", "135544.532000", "135544.535000", "135544.538000", "135544.541000", "135544.544000", "135544.546000", "135544.550000", "135544.552000", "135544.555000", "135544.570000", "135544.578000", "135544.581000", "135544.584000", "135544.587000", "135544.590000", "135544.593000", "135544.595000", "135544.598000", "135544.601000", "135544.604000", "135544.607000", "135544.610000", "135544.613000", "135544.616000", "135544.618000", "135544.621000", "135544.624000", "135624.532000", "135624.535000", "135624.538000", "135624.541000", "135624.544000", "135624.546000", "135624.549000", "135624.552000", "135624.555000", "135624.559000", "135624.562000", "135624.565000", "135624.568000", "135624.570000", "135624.573000", "135624.576000", "135624.579000", "135624.582000", "135624.585000", "135624.588000", "135624.590000", "135624.593000", "135624.596000", "135624.599000", "135624.602000", "135624.605000", "135704.533000", "135704.536000", "135704.539000", "135704.542000", "135704.545000", "135704.547000", "135704.550000", "135704.561000", "135704.564000", "135704.566000", "135704.569000", "135704.572000", "135704.575000", "135704.578000", "135704.581000", "135704.584000", "135704.587000", "135704.589000", "135704.592000", "135704.595000", "135704.598000", "135704.601000", "135704.604000", "135704.607000", "135704.610000", "135704.612000", "135704.615000", "135744.533000", "135744.536000", "135744.539000", "135744.542000", "135744.545000", "135744.547000", "135744.550000", "135744.553000", "135744.556000", "135744.559000", "135744.562000", "135744.572000", "135744.575000", "135744.578000", "135744.581000", "135744.584000", "135744.587000", "135744.590000", "135744.593000", "135744.595000", "135744.598000", "135744.601000", "135744.604000", "135744.607000", "135744.610000", "135744.613000", "135744.616000", "135824.532000", "135824.535000", "135824.538000", "135824.541000", "135824.543000", "135824.547000", "135824.549000", "135824.553000", "135824.555000", "135824.558000", "135824.561000", "135824.564000", "135824.567000", "135824.570000", "135824.573000", "135824.576000", "135824.578000", "135824.582000", "135824.584000", "135824.587000", "135824.590000", "135824.593000", "135824.596000", "135824.599000", "135824.602000", "135824.605000", "135824.607000", "135904.532000", "135904.535000", "135904.538000", "135904.540000", "135904.544000", "135904.546000", "135904.549000", "135904.552000", "135904.555000", "135904.558000", "135904.561000", "135904.564000", "135904.567000", "135904.570000", "135904.572000", "135904.575000", "135904.578000", "135904.581000", "135904.584000", "135904.587000", "135904.590000", "135904.593000", "135904.595000", "135904.598000", "135904.601000", "135904.604000", "135904.607000", "135944.533000", "135944.536000", "135944.539000", "135944.542000", "135944.545000", "135944.548000", "135944.550000", "135944.553000", "135944.556000", "135944.559000", "135944.562000", "135944.565000", "135944.568000", "135944.571000", "135944.574000", "135944.577000", "135944.579000", "135944.582000", "135944.585000", "135944.588000", "135944.591000", "135944.594000", "135944.597000", "135944.600000", "135944.603000", "135944.605000", "135944.608000", "140004.533000", "140004.536000", "140004.539000", "140004.542000", "140004.561000", "140004.564000", "140004.567000", "140004.570000", "140004.573000", "140004.576000", "140004.579000", "140004.582000", "140004.585000", "140044.532000", "140044.535000", "140044.538000", "140044.541000", "140044.544000", "140044.547000", "140044.549000", "140044.553000", "140044.555000", "140044.558000", "140044.561000", "140044.564000", "140044.567000", "140044.570000", "140044.573000", "140044.576000", "140044.579000", "140044.582000", "140044.585000", "140044.588000", "140044.590000", "140044.593000", "140044.596000", "140044.599000", "140044.602000", "140044.605000", "140044.608000", "140124.533000", "140124.536000", "140124.539000", "140124.542000", "140124.544000", "140124.547000", "140124.550000", "140124.553000", "140124.556000", "140124.559000", "140124.562000", "140124.565000", "140124.568000", "140124.571000", "140124.574000", "140124.576000", "140124.579000", "140124.582000", "140124.585000", "140124.588000", "140124.591000", "140124.594000", "140124.597000", "140124.600000", "140124.602000", "140124.605000", "140124.608000", "140204.533000", "140204.536000", "140204.539000", "140204.542000", "140204.545000", "140204.548000", "140204.550000", "140204.553000", "140204.556000", "140204.559000", "140204.562000", "140204.565000", "140204.568000", "140204.571000", "140204.574000", "140204.576000", "140204.579000", "140204.582000", "140204.585000", "140204.588000", "140204.591000", "140204.598000", "140204.601000", "140204.603000", "140204.606000", "140204.609000", "140204.612000", "140241.701000", "140241.704000", "140241.707000", "140241.710000", "140241.713000", "140241.716000", "140241.719000", "140241.722000", "140241.725000", "140241.728000", "140241.731000", "140241.734000", "140241.737000", "140241.739000", "140241.743000", "140241.746000", "140241.749000", "140241.752000", "140241.755000", "140241.757000", "140241.760000", "140241.763000", "140241.766000", "140241.769000", "140241.772000"],
