{
  "AcquisitionMatrixPE": 104,
  "AcquisitionNumber": 1,
  "AcquisitionTime": "10:59:18.330000",
  "BandwidthPerPixelPhaseEncode": 17.17,
  "BaseResolution": 104,
  "BodyPartExamined": "BRAIN",
  "CoilString": "HC1-7;NC1_2",
  "ConsistencyInfo": "N4_VE11C_LATEST_20160120",
  "ConversionSoftware": "dcm2niix",
  "ConversionSoftwareVersion": "v1.0.20190902",
  "DerivedVendorReportedEchoSpacing": 0.000560011,
  "DeviceSerialNumber": "167006",
  "DwellTime": 2.1e-06,
  "EchoTime": 0.037,
  "EchoTrainLength": 104,
  "EffectiveEchoSpacing": 0.000560011,
  "FlipAngle": 52,
  "ImageComments": "Unaliased_MB4_PE3_LB",
  "ImageOrientationPatientDICOM": [0.998528, -0.0116538, -0.0529654, -0.000174223, 0.975945, -0.218018],
  "ImageType": [
    "ORIGINAL",
    "PRIMARY",
    "M",
    "MB",
    "ND",
    "MOSAIC"
],
  "ImagingFrequency": 123.259,
  "InPlanePhaseEncodingDirectionDICOM": "COL",
  "InstitutionAddress": "Chemin_Queen-Mary_4565_Montreal_District_CA_H3W_1W5",
  "InstitutionName": "IUGM",
  "InstitutionalDepartmentName": "Department",
  "MRAcquisitionType": "2D",
  "MagneticFieldStrength": 3,
  "Manufacturer": "Siemens",
  "ManufacturersModelName": "Prisma_fit",
  "Modality": "MR",
  "MultibandAccelerationFactor": 4,
  "PartialFourier": 1,
  "PatientPosition": "HFS",
  "PercentPhaseFOV": 100,
  "PhaseEncodingDirection": "j",
  "PhaseEncodingSteps": 104,
  "PhaseResolution": 1,
  "PixelBandwidth": 2290,
  "ProcedureStepDescription": "video_friends",
  "ProtocolName": "func_task-friends-s04e15b",
  "PulseSequenceDetails": "%CustomerSeq%_cmrr_mbep2d_bold",
  "ReceiveCoilActiveElements": "HC1-7;NC1,2",
  "ReceiveCoilName": "HeadNeck_64",
  "ReconMatrixPE": 104,
  "RepetitionTime": 1.49,
  "SAR": 0.0288666,
  "ScanOptions": "FS",
  "ScanningSequence": "EP",
  "SequenceName": "epfid2d1_104",
  "SequenceVariant": "SK_SS",
  "SeriesDescription": "func_task-friends-s04e15b",
  "SeriesNumber": 11,
  "ShimSetting": [607, -7246, -8845, 655, -74, -286, 27, 51],
  "SliceThickness": 2,
  "SliceTiming": [0, 0.785, 0.0975, 0.8825, 0.195, 0.98, 0.295, 1.0775, 0.3925, 1.175, 0.49, 1.275, 0.5875, 1.3725, 0.685, 0, 0.785, 0.0975, 0.8825, 0.195, 0.98, 0.295, 1.0775, 0.3925, 1.175, 0.49, 1.275, 0.5875, 1.3725, 0.685, 0, 0.785, 0.0975, 0.8825, 0.195, 0.98, 0.295, 1.0775, 0.3925, 1.175, 0.49, 1.275, 0.5875, 1.3725, 0.685, 0, 0.785, 0.0975, 0.8825, 0.195, 0.98, 0.295, 1.0775, 0.3925, 1.175, 0.49, 1.275, 0.5875, 1.3725, 0.685],
  "SoftwareVersions": "syngo_MR_E11",
  "SpacingBetweenSlices": 2,
  "StationName": "MRC35049",
  "TaskName": "s04e15b",
  "TotalReadoutTime": 0.0576811,
  "TxRefAmp": 217.369,
  "WipMemBlock": "604465d4-e564-4c3c-bc23-dff763738278||Sequence: R016 ve11c/master r/e634e98; Dec 19 2017 11:00:25 by eja",
  "dcmmeta_affine": [
    [-1.9970567226409912, -0.00034844595938920975, -0.10846399515867233, 101.42972564697266],
    [0.02330753393471241, 1.9518895149230957, -0.43541261553764343, -84.86229705810547],
    [-0.10593073070049286, 0.4360358417034149, 1.9490129947662354, -54.73286819458008],
    [0.0, 0.0, 0.0, 1.0]
],
  "dcmmeta_reorient_transform": [
    [0.0, -1.0, 0.0, 103.0],
    [1.0, 0.0, 0.0, 0.0],
    [0.0, 0.0, 1.0, 0.0],
    [0.0, 0.0, 0.0, 1.0]
],
  "dcmmeta_shape": [104, 104, 60, 444],
  "dcmmeta_slice_dim": 2,
  "dcmmeta_version": 0.6,
  "global": {
    "const": {
      "AcquisitionMatrix": [104, 0, 0, 104],
      "AngioFlag": "N",
      "BitsAllocated": 16,
      "BitsStored": 16,
      "BodyPartExamined": "BRAIN",
      "Columns": 832,
      "EchoNumbers": 1,
      "EchoTime": 37.0,
      "EchoTrainLength": 104,
      "FlipAngle": 52.0,
      "HighBit": 15,
      "ImageOrientationPatient": [0.99852834707983, -0.0116537665256, -0.0529653641901, -0.0001742229789, 0.97594474932155, -0.2180179256806],
      "ImagePositionPatient": [-828.19563965384, -818.18615767616, 187.45466013012],
      "ImageType": [
        "ORIGINAL",
        "PRIMARY",
        "M",
        "MB",
        "ND",
        "MOSAIC"
],
      "ImagedNucleus": "1H",
      "ImagingFrequency": 123.259032,
      "InPlanePhaseEncodingDirection": "COL",
      "MRAcquisitionType": "2D",
      "MagneticFieldStrength": 3.0,
      "Manufacturer": "SIEMENS",
      "ManufacturerModelName": "Prisma_fit",
      "Modality": "MR",
      "NumberOfAverages": 1.0,
      "NumberOfPhaseEncodingSteps": 104,
      "PercentPhaseFieldOfView": 100.0,
      "PercentSampling": 100.0,
      "PerformedProcedureStepStartTime": "090956.115000",
      "PhotometricInterpretation": "MONOCHROME2",
      "PixelBandwidth": 2290.0,
      "PixelRepresentation": 0,
      "PixelSpacing": [2.0, 2.0],
      "ProtocolName": "func_task-friends-s04e15b",
      "RepetitionTime": 1490.0,
      "Rows": 832,
      "SAR": 0.02886659691682,
      "SamplesPerPixel": 1,
      "ScanOptions": "FS",
      "ScanningSequence": "EP",
      "SequenceName": "epfid2d1_104",
      "SequenceVariant": [
        "SK",
        "SS"
],
      "SeriesDescription": "func_task-friends-s04e15b",
      "SeriesNumber": 11,
      "SeriesTime": "110036.765000",
      "SliceLocation": -40.363213217052,
      "SliceThickness": 2.0,
      "SmallestImagePixelValue": 0,
      "SoftwareVersions": "syngo MR E11",
      "SpacingBetweenSlices": 2.0000000080707,
      "SpecificCharacterSet": "ISO_IR 100",
      "StudyID": "1",
      "StudyTime": "090955.973000",
      "TransmitCoilName": "Body",
      "VariableFlipAngleFlag": "N",
      "WindowCenterWidthExplanation": "Algo1",
      "dBdt": 0.0},
    "slices": {}
  },
  "time": {
    "samples": {
      "AcquisitionNumber": [1, 2, 3, 4, 5, 6, 7, 8, 9, 10, 11, 12, 13, 14, 15, 16, 17, 18, 19, 20, 21, 22, 23, 24, 25, 26, 27, 28, 29, 30, 31, 32, 33, 34, 35, 36, 37, 38, 39, 40, 41, 42, 43, 44, 45, 46, 47, 48, 49, 50, 51, 52, 53, 54, 55, 56, 57, 58, 59, 60, 61, 62, 63, 64, 65, 66, 67, 68, 69, 70, 71, 72, 73, 74, 75, 76, 77, 78, 79, 80, 81, 82, 83, 84, 85, 86, 87, 88, 89, 90, 91, 92, 93, 94, 95, 96, 97, 98, 99, 100, 101, 102, 103, 104, 105, 106, 107, 108, 109, 110, 111, 112, 113, 114, 115, 116, 117, 118, 119, 120, 121, 122, 123, 124, 125, 126, 127, 128, 129, 130, 131, 132, 133, 134, 135, 136, 137, 138, 139, 140, 141, 142, 143, 144, 145, 146, 147, 148, 149, 150, 151, 152, 153, 154, 155, 156, 157, 158, 159, 160, 161, 162, 163, 164, 165, 166, 167, 168, 169, 170, 171, 172, 173, 174, 175, 176, 177, 178, 179, 180, 181, 182, 183, 184, 185, 186, 187, 188, 189, 190, 191, 192, 193, 194, 195, 196, 197, 198, 199, 200, 201, 202, 203, 204, 205, 206, 207, 208, 209, 210, 211, 212, 213, 214, 215, 216, 217, 218, 219, 220, 221, 222, 223, 224, 225, 226, 227, 228, 229, 230, 231, 232, 233, 234, 235, 236, 237, 238, 239, 240, 241, 242, 243, 244, 245, 246, 247, 248, 249, 250, 251, 252, 253, 254, 255, 256, 257, 258, 259, 260, 261, 262, 263, 264, 265, 266, 267, 268, 269, 270, 271, 272, 273, 274, 275, 276, 277, 278, 279, 280, 281, 282, 283, 284, 285, 286, 287, 288, 289, 290, 291, 292, 293, 294, 295, 296, 297, 298, 299, 300, 301, 302, 303, 304, 305, 306, 307, 308, 309, 310, 311, 312, 313, 314, 315, 316, 317, 318, 319, 320, 321, 322, 323, 324, 325, 326, 327, 328, 329, 330, 331, 332, 333, 334, 335, 336, 337, 338, 339, 340, 341, 342, 343, 344, 345, 346, 347, 348, 349, 350, 351, 352, 353, 354, 355, 356, 357, 358, 359, 360, 361, 362, 363, 364, 365, 366, 367, 368, 369, 370, 371, 372, 373, 374, 375, 376, 377, 378, 379, 380, 381, 382, 383, 384, 385, 386, 387, 388, 389, 390, 391, 392, 393, 394, 395, 396, 397, 398, 399, 400, 401, 402, 403, 404, 405, 406, 407, 408, 409, 410, 411, 412, 413, 414, 415, 416, 417, 418, 419, 420, 421, 422, 423, 424, 425, 426, 427, 428, 429, 430, 431, 432, 433, 434, 435, 436, 437, 438, 439, 440, 441, 442, 443, 444],
      "AcquisitionTime": ["105918.330000", "105919.820000", "105921.310000", "105922.800000", "105924.290000", "105925.780000", "105927.270000", "105928.760000", "105930.250000", "105931.740000", "105933.230000", "105934.720000", "105936.210000", "105937.700000", "105939.190000", "105940.680000", "105942.170000", "105943.660000", "105945.150000", "105946.640000", "105948.130000", "105949.620000", "105951.110000", "105952.600000", "105954.090000", "105955.580000", "105957.070000", "105958.560000", "110000.050000", "110001.540000", "110003.030000", "110004.520000", "110006.010000", "110007.500000", "110008.990000", "110010.480000", "110011.970000", "110013.460000", "110014.950000", "110016.440000", "110017.930000", "110019.420000", "110020.910000", "110022.400000", "110023.890000", "110025.380000", "110026.870000", "110028.360000", "110029.850000", "110031.340000", "110032.830000", "110034.320000", "110035.810000", "110037.300000", "110038.790000", "110040.280000", "110041.770000", "110043.260000", "110044.750000", "110046.240000", "110047.730000", "110049.220000", "110050.710000", "110052.200000", "110053.690000", "110055.180000", "110056.670000", "110058.160000", "110059.650000", "110101.140000", "110102.630000", "110104.120000", "110105.610000", "110107.100000", "110108.590000", "110110.080000", "110111.570000", "110113.060000", "110114.550000", "110116.040000", "110117.530000", "110119.020000", "110120.510000", "110122.000000", "110123.490000", "110124.980000", "110126.470000", "110127.960000", "110129.450000", "110130.940000", "110132.430000", "110133.920000", "110135.410000", "110136.900000", "110138.390000", "110139.880000", "110141.370000", "110142.860000", "110144.350000", "110145.840000", "110147.330000", "110148.820000", "110150.310000", "110151.800000", "110153.290000", "110154.780000", "110156.270000", "110157.760000", "110159.250000", "110200.740000", "110202.230000", "110203.720000", "110205.210000", "110206.700000", "110208.190000", "110209.680000", "110211.170000", "110212.660000", "110214.150000", "110215.640000", "110217.130000", "110218.620000", "110220.110000", "110221.600000", "110223.090000", "110224.580000", "110226.070000", "110227.560000", "110229.050000", "110230.540000", "110232.030000", "110233.520000", "110235.010000", "110236.500000", "110237.990000", "110239.480000", "110240.970000", "110242.460000", "110243.950000", "110245.440000", "110246.930000", "110248.420000", "110249.910000", "110251.400000", "110252.890000", "110254.380000", "110255.870000", "110257.360000", "110258.850000", "110300.340000", "110301.830000", "110303.320000", "110304.810000", "110306.300000", "110307.790000", "110309.280000", "110310.770000", "110312.260000", "110313.750000", "110315.240000", "110316.730000", "110318.220000", "110319.710000", "110321.200000", "110322.690000", "110324.180000", "110325.670000", "110327.160000", "110328.650000", "110330.140000", "110331.630000", "110333.120000", "110334.610000", "110336.100000", "110337.590000", "110339.080000", "110340.570000", "110342.060000", "110343.550000", "110345.040000", "110346.530000", "110348.020000", "110349.510000", "110351.000000", "110352.490000", "110353.980000", "110355.470000", "110356.960000", "110358.450000", "110359.940000", "110401.430000", "110402.920000", "110404.410000", "110405.900000", "110407.390000", "110408.880000", "110410.370000", "110411.860000", "110413.350000", "110414.840000", "110416.330000", "110417.820000", "110419.310000", "110420.800000", "110422.290000", "110423.780000", "110425.270000", "110426.760000", "110428.250000", "110429.740000", "110431.230000", "110432.720000", "110434.210000", "110435.700000", "110437.190000", "110438.680000", "110440.170000", "110441.660000", "110443.150000", "110444.640000", "110446.130000", "110447.620000", "110449.110000", "110450.600000", "110452.090000", "110453.580000", "110455.070000", "110456.560000", "110458.050000", "110459.540000", "110501.030000", "110502.520000", "110504.010000", "110505.500000", "110506.990000", "110508.480000", "110509.970000", "110511.460000", "110512.950000", "110514.440000", "110515.930000", "110517.420000", "110518.910000", "110520.400000", "110521.890000", "110523.380000", "110524.870000", "110526.360000", "110527.850000", "110529.340000", "110530.830000", "110532.320000", "110533.810000", "110535.300000", "110536.790000", "110538.280000", "110539.770000", "110541.260000", "110542.750000", "110544.240000", "110545.730000", "110547.220000", "110548.710000", "110550.200000", "110551.690000", "110553.180000", "110554.670000", "110556.160000", "110557.650000", "110559.140000", "110600.630000", "110602.120000", "110603.610000", "110605.100000", "110606.590000", "110608.080000", "110609.570000", "110611.060000", "110612.550000", "110614.040000", "110615.530000", "110617.020000", "110618.510000", "110620.000000", "110621.490000", "110622.980000", "110624.470000", "110625.960000", "110627.450000", "110628.940000", "110630.430000", "110631.920000", "110633.410000", "110634.900000", "110636.390000", "110637.880000", "110639.370000", "110640.860000", "110642.350000", "110643.840000", "110645.330000", "110646.820000", "110648.310000", "110649.800000", "110651.290000", "110652.780000", "110654.270000", "110655.760000", "110657.250000", "110658.740000", "110700.230000", "110701.720000", "110703.210000", "110704.700000", "110706.190000", "110707.680000", "110709.170000", "110710.660000", "110712.150000", "110713.640000", "110715.130000", "110716.620000", "110718.110000", "110719.600000", "110721.090000", "110722.580000", "110724.070000", "110725.560000", "110727.050000", "110728.540000", "110730.030000", "110731.520000", "110733.010000", "110734.500000", "110735.990000", "110737.480000", "110738.970000", "110740.460000", "110741.950000", "110743.440000", "110744.930000", "110746.420000", "110747.910000", "110749.400000", "110750.890000", "110752.380000", "110753.870000", "110755.360000", "110756.850000", "110758.340000", "110759.830000", "110801.320000", "110802.810000", "110804.300000", "110805.790000", "110807.280000", "110808.770000", "110810.260000", "110811.750000", "110813.240000", "110814.730000", "110816.220000", "110817.710000", "110819.200000", "110820.690000", "110822.180000", "110823.670000", "110825.160000", "110826.650000", "110828.140000", "110829.630000", "110831.120000", "110832.610000", "110834.100000", "110835.590000", "110837.080000", "110838.570000", "110840.060000", "110841.550000", "110843.040000", "110844.530000", "110846.020000", "110847.510000", "110849.000000", "110850.490000", "110851.980000", "110853.470000", "110854.960000", "110856.450000", "110857.940000", "110859.430000", "110900.920000", "110902.410000", "110903.900000", "110905.390000", "110906.880000", "110908.370000", "110909.860000", "110911.350000", "110912.840000", "110914.330000", "110915.820000", "110917.310000", "110918.800000", "110920.290000", "110921.780000", "110923.270000", "110924.760000", "110926.250000", "110927.740000", "110929.230000", "110930.720000", "110932.210000", "110933.700000", "110935.190000", "110936.680000", "110938.170000", "110939.660000", "110941.150000", "110942.640000", "110944.130000", "110945.620000", "110947.110000", "110948.600000", "110950.090000", "110951.580000", "110953.070000", "110954.560000", "110956.050000", "110957.540000", "110959.030000", "111000.520000", "111002.010000", "111003.500000", "111004.990000", "111006.480000", "111007.970000", "111009.460000", "111010.950000", "111012.440000", "111013.930000", "111015.420000", "111016.910000", "111018.400000"],
      "ContentTime": ["110036.768000", "110036.771000", "110036.774000", "110036.777000", "110036.780000", "110036.783000", "110036.786000", "110036.788000", "110036.791000", "110036.794000", "110036.797000", "110036.801000", "110036.804000", "110036.807000", "110036.810000", "110036.813000", "110036.816000", "110036.819000", "110036.822000", "110036.824000", "110036.827000", "110036.830000", "110036.833000", "110036.836000", "110036.839000", "110036.842000", "110056.721000", "110056.724000", "110056.727000", "110056.730000", "110056.732000", "110056.735000", "110056.738000", "110056.751000", "110056.754000", "110056.757000", "110056.760000", "110056.762000", "110056.765000", "110056.768000", "110056.771000", "110056.774000", "110056.777000", "110056.780000", "110056.783000", "110056.785000", "110116.721000", "110116.724000", "110116.727000", "110116.730000", "110116.733000", "110116.735000", "110116.738000", "110116.741000", "110116.754000", "110116.757000", "110116.760000", "110116.763000", "110116.766000", "110116.769000", "110116.772000", "110116.775000", "110116.777000", "110116.780000", "110116.783000", "110116.786000", "110136.721000", "110136.724000", "110136.727000", "110136.729000", "110136.732000", "110136.735000", "110136.738000", "110136.741000", "110136.744000", "110136.747000", "110136.750000", "110136.752000", "110136.755000", "110136.758000", "110136.761000", "110136.764000", "110136.767000", "110136.770000", "110136.772000", "110136.775000", "110216.722000", "110216.725000", "110216.733000", "110216.736000", "110216.739000", "110216.742000", "110216.745000", "110216.748000", "110216.766000", "110216.769000", "110216.772000", "110216.775000", "110216.810000", "110216.813000", "110216.816000", "110216.819000", "110216.822000", "110216.824000", "110216.827000", "110216.830000", "110216.833000", "110216.836000", "110216.839000", "110216.842000", "110216.844000", "110216.847000", "110216.850000", "110216.853000", "110216.856000", "110216.859000", "110216.862000", "110216.865000", "110216.868000", "110256.722000", "110256.725000", "110256.728000", "110256.731000", "110256.734000", "110256.736000", "110256.739000", "110256.742000", "110256.745000", "110256.748000", "110256.751000", "110256.754000", "110256.757000", "110256.760000", "110256.762000", "110256.765000", "110256.768000", "110256.771000", "110256.774000", "110256.777000", "110256.780000", "110256.782000", "110256.785000", "110256.788000", "110256.791000", "110256.794000", "110256.797000", "110336.721000", "110336.724000", "110336.727000", "110336.730000", "110336.733000", "110336.735000", "110336.738000", "110336.741000", "110336.744000", "110336.747000", "110336.750000", "110336.759000", "110336.762000", "110336.765000", "110336.768000", "110336.771000", "110336.774000", "110336.777000", "110336.780000", "110336.783000", "110336.785000", "110336.788000", "110336.791000", "110336.794000", "110336.797000", "110336.800000", "110336.803000", "110416.722000", "110416.725000", "110416.728000", "110416.731000", "110416.734000", "110416.736000", "110416.739000", "110416.742000", "110416.745000", "110416.748000", "110416.751000", "110416.754000", "110416.757000", "110416.760000", "110416.762000", "110416.766000", "110416.769000", "110416.772000", "110416.775000", "110416.778000", "110416.781000", "110416.784000", "110416.794000", "110416.797000", "110416.800000", "110416.803000", "110456.722000", "110456.725000", "110456.728000", "110456.731000", "110456.734000", "110456.737000", "110456.740000", "110456.743000", "110456.746000", "110456.749000", "110456.751000", "110456.754000", "110456.757000", "110456.760000", "110456.763000", "110456.766000", "110456.769000", "110456.772000", "110456.775000", "110456.777000", "110456.780000", "110456.783000", "110456.786000", "110456.789000", "110456.792000", "110456.795000", "110456.798000", "110536.721000", "110536.724000", "110536.727000", "110536.730000", "110536.733000", "110536.736000", "110536.738000", "110536.741000", "110536.744000", "110536.747000", "110536.750000", "110536.753000", "110536.756000", "110536.759000", "110536.762000", "110536.764000", "110536.767000", "110536.770000", "110536.773000", "110536.776000", "110536.779000", "110536.782000", "110536.785000", "110536.788000", "110536.791000", "110536.794000", "110536.796000", "110616.721000", "110616.724000", "110616.727000", "110616.730000", "110616.733000", "110616.736000", "110616.738000", "110616.741000", "110616.744000", "110616.747000", "110616.750000", "110616.753000", "110616.756000", "110616.759000", "110616.761000", "110616.764000", "110616.767000", "110616.770000", "110616.773000", "110616.776000", "110616.779000", "110616.782000", "110616.785000", "110616.788000", "110616.790000", "110616.793000", "110616.796000", "110656.722000", "110656.725000", "110656.728000", "110656.731000", "110656.734000", "110656.736000", "110656.739000", "110656.742000", "110656.745000", "110656.748000", "110656.751000", "110656.754000", "110656.757000", "110656.760000", "110656.762000", "110656.765000", "110656.768000", "110656.771000", "110656.774000", "110656.777000", "110656.780000", "110656.783000", "110656.786000", "110656.788000", "110656.791000", "110656.794000", "110656.797000", "110736.722000", "110736.725000", "110736.728000", "110736.731000", "110736.734000", "110736.736000", "110736.739000", "110736.742000", "110736.745000", "110736.748000", "110736.751000", "110736.754000", "110736.757000", "110736.759000", "110736.762000", "110736.765000", "110736.768000", "110736.771000", "110736.774000", "110736.777000", "110736.780000", "110736.783000", "110736.786000", "110736.788000", "110736.791000", "110736.794000", "110736.797000", "110816.721000", "110816.724000", "110816.727000", "110816.730000", "110816.733000", "110816.736000", "110816.739000", "110816.742000", "110816.744000", "110816.747000", "110816.750000", "110816.753000", "110816.756000", "110816.759000", "110816.762000", "110816.765000", "110816.768000", "110816.771000", "110816.774000", "110816.778000", "110816.781000", "110816.784000", "110816.787000", "110816.791000", "110816.794000", "110816.797000", "110856.722000", "110856.725000", "110856.728000", "110856.731000", "110856.734000", "110856.737000", "110856.740000", "110856.742000", "110856.745000", "110856.748000", "110856.751000", "110856.754000", "110856.757000", "110856.760000", "110856.763000", "110856.766000", "110856.768000", "110856.771000", "110856.787000", "110856.790000", "110856.793000", "110856.796000", "110856.798000", "110856.801000", "110856.804000", "110856.807000", "110856.810000", "110936.722000", "110936.725000", "110936.728000", "110936.731000", "110936.734000", "110936.737000", "110936.740000", "110936.742000", "110936.745000", "110936.748000", "110936.751000", "110936.754000", "110936.757000", "110936.760000", "110936.763000", "110936.774000", "110936.777000", "110936.780000", "110936.783000", "110936.785000", "110936.788000", "110936.791000", "110936.794000", "110936.797000", "110936.800000", "110936.803000", "110936.806000", "111016.721000", "111016.724000", "111016.727000", "111016.730000", "111016.733000", "111016.736000", "111016.739000", "111016.741000", "111016.744000", "111016.747000", "111016.750000", "111016.753000", "111016.756000", "111016.759000", "111016.762000", "111016.765000", "111016.767000", "111016.770000", "111016.773000", "111016.776000", "111016.779000", "111016.782000", "111016.785000", "111016.788000", "111016.791000", "111016.794000", "111016.796000", "111020.493000", "111020.496000", "111020.499000"],
