{
  "AcquisitionMatrixPE": 104,
  "AcquisitionNumber": 1,
  "AcquisitionTime": "11:36:32.385000",
  "BandwidthPerPixelPhaseEncode": 17.17,
  "BaseResolution": 104,
  "BodyPartExamined": "BRAIN",
  "CoilString": "HC1-7;NC1_2",
  "ConsistencyInfo": "N4_VE11C_LATEST_20160120",
  "ConversionSoftware": "dcm2niix",
  "ConversionSoftwareVersion": "v1.0.20190902",
  "DerivedVendorReportedEchoSpacing": 0.000560011,
  "DeviceSerialNumber": "167006",
  "DwellTime": 2.1e-06,
  "EchoTime": 0.037,
  "EchoTrainLength": 104,
  "EffectiveEchoSpacing": 0.000560011,
  "FlipAngle": 52,
  "ImageComments": "Unaliased_MB4_PE3_LB",
  "ImageOrientationPatientDICOM": [0.998528, -0.0116538, -0.0529654, -0.000174223, 0.975945, -0.218018],
  "ImageType": [
    "ORIGINAL",
    "PRIMARY",
    "M",
    "MB",
    "ND",
    "MOSAIC"
],
  "ImagingFrequency": 123.259,
  "InPlanePhaseEncodingDirectionDICOM": "COL",
  "InstitutionAddress": "Chemin_Queen-Mary_4565_Montreal_District_CA_H3W_1W5",
  "InstitutionName": "IUGM",
  "InstitutionalDepartmentName": "Department",
  "MRAcquisitionType": "2D",
  "MagneticFieldStrength": 3,
  "Manufacturer": "Siemens",
  "ManufacturersModelName": "Prisma_fit",
  "Modality": "MR",
  "MultibandAccelerationFactor": 4,
  "PartialFourier": 1,
  "PatientPosition": "HFS",
  "PercentPhaseFOV": 100,
  "PhaseEncodingDirection": "j",
  "PhaseEncodingSteps": 104,
  "PhaseResolution": 1,
  "PixelBandwidth": 2290,
  "ProcedureStepDescription": "video_friends",
  "ProtocolName": "func_task-friends-s04e17a",
  "PulseSequenceDetails": "%CustomerSeq%_cmrr_mbep2d_bold",
  "ReceiveCoilActiveElements": "HC1-7;NC1,2",
  "ReceiveCoilName": "HeadNeck_64",
  "ReconMatrixPE": 104,
  "RepetitionTime": 1.49,
  "SAR": 0.0288757,
  "ScanOptions": "FS",
  "ScanningSequence": "EP",
  "SequenceName": "epfid2d1_104",
  "SequenceVariant": "SK_SS",
  "SeriesDescription": "func_task-friends-s04e17a",
  "SeriesNumber": 17,
  "ShimSetting": [607, -7246, -8845, 655, -74, -286, 27, 51],
  "SliceThickness": 2,
  "SliceTiming": [0, 0.785, 0.0975, 0.8825, 0.195, 0.98, 0.295, 1.0775, 0.3925, 1.175, 0.49, 1.275, 0.5875, 1.3725, 0.685, 0, 0.785, 0.0975, 0.8825, 0.195, 0.98, 0.295, 1.0775, 0.3925, 1.175, 0.49, 1.275, 0.5875, 1.3725, 0.685, 0, 0.785, 0.0975, 0.8825, 0.195, 0.98, 0.295, 1.0775, 0.3925, 1.175, 0.49, 1.275, 0.5875, 1.3725, 0.685, 0, 0.785, 0.0975, 0.8825, 0.195, 0.98, 0.295, 1.0775, 0.3925, 1.175, 0.49, 1.275, 0.5875, 1.3725, 0.685],
  "SoftwareVersions": "syngo_MR_E11",
  "SpacingBetweenSlices": 2,
  "StationName": "MRC35049",
  "TaskName": "s04e17a",
  "TotalReadoutTime": 0.0576811,
  "TxRefAmp": 217.369,
  "WipMemBlock": "70b6cf7a-c63c-40a5-b2f5-e71ed80b62bd||Sequence: R016 ve11c/master r/e634e98; Dec 19 2017 11:00:25 by eja",
  "dcmmeta_affine": [
    [-1.9970567226409912, -0.00034844595938920975, -0.10846399515867233, 101.42972564697266],
    [0.02330753393471241, 1.9518895149230957, -0.43541261553764343, -84.86229705810547],
    [-0.10593073070049286, 0.4360358417034149, 1.9490129947662354, -54.73286819458008],
    [0.0, 0.0, 0.0, 1.0]
],
  "dcmmeta_reorient_transform": [
    [0.0, -1.0, 0.0, 103.0],
    [1.0, 0.0, 0.0, 0.0],
    [0.0, 0.0, 1.0, 0.0],
    [0.0, 0.0, 0.0, 1.0]
],
  "dcmmeta_shape": [104, 104, 60, 478],
  "dcmmeta_slice_dim": 2,
  "dcmmeta_version": 0.6,
  "global": {
    "const": {
      "AcquisitionMatrix": [104, 0, 0, 104],
      "AngioFlag": "N",
      "BitsAllocated": 16,
      "BitsStored": 16,
      "BodyPartExamined": "BRAIN",
      "Columns": 832,
      "EchoNumbers": 1,
      "EchoTime": 37.0,
      "EchoTrainLength": 104,
      "FlipAngle": 52.0,
      "HighBit": 15,
      "ImageOrientationPatient": [0.99852834707983, -0.0116537665256, -0.0529653641901, -0.0001742229789, 0.97594474932155, -0.2180179256806],
      "ImagePositionPatient": [-828.19563965384, -818.18615767616, 187.45466013012],
      "ImageType": [
        "ORIGINAL",
        "PRIMARY",
        "M",
        "MB",
        "ND",
        "MOSAIC"
],
      "ImagedNucleus": "1H",
      "ImagingFrequency": 123.259044,
      "InPlanePhaseEncodingDirection": "COL",
      "MRAcquisitionType": "2D",
      "MagneticFieldStrength": 3.0,
      "Manufacturer": "SIEMENS",
      "ManufacturerModelName": "Prisma_fit",
      "Modality": "MR",
      "NumberOfAverages": 1.0,
      "NumberOfPhaseEncodingSteps": 104,
      "PercentPhaseFieldOfView": 100.0,
      "PercentSampling": 100.0,
      "PerformedProcedureStepStartTime": "090956.115000",
      "PhotometricInterpretation": "MONOCHROME2",
      "PixelBandwidth": 2290.0,
      "PixelRepresentation": 0,
      "PixelSpacing": [2.0, 2.0],
      "ProtocolName": "func_task-friends-s04e17a",
      "RepetitionTime": 1490.0,
      "Rows": 832,
      "SAR": 0.02887573148196,
      "SamplesPerPixel": 1,
      "ScanOptions": "FS",
      "ScanningSequence": "EP",
      "SequenceName": "epfid2d1_104",
      "SequenceVariant": [
        "SK",
        "SS"
],
      "SeriesDescription": "func_task-friends-s04e17a",
      "SeriesNumber": 17,
      "SeriesTime": "113756.754000",
      "SliceLocation": -40.363213217052,
      "SliceThickness": 2.0,
      "SmallestImagePixelValue": 0,
      "SoftwareVersions": "syngo MR E11",
      "SpacingBetweenSlices": 2.0000000080707,
      "SpecificCharacterSet": "ISO_IR 100",
      "StudyID": "1",
      "StudyTime": "090955.973000",
      "TransmitCoilName": "Body",
      "VariableFlipAngleFlag": "N",
      "WindowCenterWidthExplanation": "Algo1",
      "dBdt": 0.0},
    "slices": {}
  },
  "time": {
    "samples": {
      "AcquisitionNumber": [1, 2, 3, 4, 5, 6, 7, 8, 9, 10, 11, 12, 13, 14, 15, 16, 17, 18, 19, 20, 21, 22, 23, 24, 25, 26, 27, 28, 29, 30, 31, 32, 33, 34, 35, 36, 37, 38, 39, 40, 41, 42, 43, 44, 45, 46, 47, 48, 49, 50, 51, 52, 53, 54, 55, 56, 57, 58, 59, 60, 61, 62, 63, 64, 65, 66, 67, 68, 69, 70, 71, 72, 73, 74, 75, 76, 77, 78, 79, 80, 81, 82, 83, 84, 85, 86, 87, 88, 89, 90, 91, 92, 93, 94, 95, 96, 97, 98, 99, 100, 101, 102, 103, 104, 105, 106, 107, 108, 109, 110, 111, 112, 113, 114, 115, 116, 117, 118, 119, 120, 121, 122, 123, 124, 125, 126, 127, 128, 129, 130, 131, 132, 133, 134, 135, 136, 137, 138, 139, 140, 141, 142, 143, 144, 145, 146, 147, 148, 149, 150, 151, 152, 153, 154, 155, 156, 157, 158, 159, 160, 161, 162, 163, 164, 165, 166, 167, 168, 169, 170, 171, 172, 173, 174, 175, 176, 177, 178, 179, 180, 181, 182, 183, 184, 185, 186, 187, 188, 189, 190, 191, 192, 193, 194, 195, 196, 197, 198, 199, 200, 201, 202, 203, 204, 205, 206, 207, 208, 209, 210, 211, 212, 213, 214, 215, 216, 217, 218, 219, 220, 221, 222, 223, 224, 225, 226, 227, 228, 229, 230, 231, 232, 233, 234, 235, 236, 237, 238, 239, 240, 241, 242, 243, 244, 245, 246, 247, 248, 249, 250, 251, 252, 253, 254, 255, 256, 257, 258, 259, 260, 261, 262, 263, 264, 265, 266, 267, 268, 269, 270, 271, 272, 273, 274, 275, 276, 277, 278, 279, 280, 281, 282, 283, 284, 285, 286, 287, 288, 289, 290, 291, 292, 293, 294, 295, 296, 297, 298, 299, 300, 301, 302, 303, 304, 305, 306, 307, 308, 309, 310, 311, 312, 313, 314, 315, 316, 317, 318, 319, 320, 321, 322, 323, 324, 325, 326, 327, 328, 329, 330, 331, 332, 333, 334, 335, 336, 337, 338, 339, 340, 341, 342, 343, 344, 345, 346, 347, 348, 349, 350, 351, 352, 353, 354, 355, 356, 357, 358, 359, 360, 361, 362, 363, 364, 365, 366, 367, 368, 369, 370, 371, 372, 373, 374, 375, 376, 377, 378, 379, 380, 381, 382, 383, 384, 385, 386, 387, 388, 389, 390, 391, 392, 393, 394, 395, 396, 397, 398, 399, 400, 401, 402, 403, 404, 405, 406, 407, 408, 409, 410, 411, 412, 413, 414, 415, 416, 417, 418, 419, 420, 421, 422, 423, 424, 425, 426, 427, 428, 429, 430, 431, 432, 433, 434, 435, 436, 437, 438, 439, 440, 441, 442, 443, 444, 445, 446, 447, 448, 449, 450, 451, 452, 453, 454, 455, 456, 457, 458, 459, 460, 461, 462, 463, 464, 465, 466, 467, 468, 469, 470, 471, 472, 473, 474, 475, 476, 477, 478],
      "AcquisitionTime": ["113632.385000", "113633.875000", "113635.365000", "113636.855000", "113638.345000", "113639.835000", "113641.325000", "113642.815000", "113644.305000", "113645.795000", "113647.285000", "113648.775000", "113650.265000", "113651.755000", "113653.245000", "113654.735000", "113656.225000", "113657.715000", "113659.205000", "113700.695000", "113702.185000", "113703.675000", "113705.165000", "113706.655000", "113708.145000", "113709.635000", "113711.125000", "113712.615000", "113714.105000", "113715.595000", "113717.085000", "113718.575000", "113720.065000", "113721.555000", "113723.045000", "113724.535000", "113726.025000", "113727.515000", "113729.005000", "113730.495000", "113731.985000", "113733.475000", "113734.965000", "113736.455000", "113737.945000", "113739.435000", "113740.925000", "113742.415000", "113743.905000", "113745.395000", "113746.885000", "113748.375000", "113749.865000", "113751.355000", "113752.845000", "113754.335000", "113755.825000", "113757.315000", "113758.805000", "113800.295000", "113801.785000", "113803.275000", "113804.765000", "113806.255000", "113807.745000", "113809.235000", "113810.725000", "113812.215000", "113813.705000", "113815.195000", "113816.685000", "113818.175000", "113819.665000", "113821.155000", "113822.645000", "113824.135000", "113825.625000", "113827.115000", "113828.605000", "113830.095000", "113831.585000", "113833.075000", "113834.565000", "113836.055000", "113837.545000", "113839.035000", "113840.525000", "113842.015000", "113843.505000", "113844.995000", "113846.485000", "113847.975000", "113849.465000", "113850.955000", "113852.445000", "113853.935000", "113855.425000", "113856.915000", "113858.405000", "113859.895000", "113901.385000", "113902.875000", "113904.365000", "113905.855000", "113907.345000", "113908.835000", "113910.325000", "113911.815000", "113913.305000", "113914.795000", "113916.285000", "113917.775000", "113919.265000", "113920.755000", "113922.245000", "113923.735000", "113925.225000", "113926.715000", "113928.205000", "113929.695000", "113931.185000", "113932.675000", "113934.165000", "113935.655000", "113937.145000", "113938.635000", "113940.125000", "113941.615000", "113943.105000", "113944.595000", "113946.085000", "113947.575000", "113949.065000", "113950.555000", "113952.045000", "113953.535000", "113955.025000", "113956.515000", "113958.005000", "113959.495000", "114000.985000", "114002.475000", "114003.965000", "114005.455000", "114006.945000", "114008.435000", "114009.925000", "114011.415000", "114012.905000", "114014.395000", "114015.885000", "114017.375000", "114018.865000", "114020.355000", "114021.845000", "114023.335000", "114024.825000", "114026.315000", "114027.805000", "114029.295000", "114030.785000", "114032.275000", "114033.765000", "114035.255000", "114036.745000", "114038.235000", "114039.725000", "114041.215000", "114042.705000", "114044.195000", "114045.685000", "114047.175000", "114048.665000", "114050.155000", "114051.645000", "114053.135000", "114054.625000", "114056.115000", "114057.605000", "114059.095000", "114100.585000", "114102.075000", "114103.565000", "114105.055000", "114106.545000", "114108.035000", "114109.525000", "114111.015000", "114112.505000", "114113.995000", "114115.485000", "114116.975000", "114118.465000", "114119.955000", "114121.445000", "114122.935000", "114124.425000", "114125.915000", "114127.405000", "114128.895000", "114130.385000", "114131.875000", "114133.365000", "114134.855000", "114136.345000", "114137.835000", "114139.325000", "114140.815000", "114142.305000", "114143.795000", "114145.285000", "114146.775000", "114148.265000", "114149.755000", "114151.245000", "114152.735000", "114154.225000", "114155.715000", "114157.205000", "114158.695000", "114200.185000", "114201.675000", "114203.165000", "114204.655000", "114206.145000", "114207.635000", "114209.125000", "114210.615000", "114212.105000", "114213.595000", "114215.085000", "114216.575000", "114218.065000", "114219.555000", "114221.045000", "114222.535000", "114224.025000", "114225.515000", "114227.005000", "114228.495000", "114229.985000", "114231.475000", "114232.965000", "114234.455000", "114235.945000", "114237.435000", "114238.925000", "114240.415000", "114241.905000", "114243.395000", "114244.885000", "114246.375000", "114247.865000", "114249.355000", "114250.845000", "114252.335000", "114253.825000", "114255.315000", "114256.805000", "114258.295000", "114259.785000", "114301.275000", "114302.765000", "114304.255000", "114305.745000", "114307.235000", "114308.725000", "114310.215000", "114311.705000", "114313.195000", "114314.685000", "114316.175000", "114317.665000", "114319.155000", "114320.645000", "114322.135000", "114323.625000", "114325.115000", "114326.605000", "114328.095000", "114329.585000", "114331.075000", "114332.565000", "114334.055000", "114335.545000", "114337.035000", "114338.525000", "114340.015000", "114341.505000", "114342.995000", "114344.485000", "114345.975000", "114347.465000", "114348.955000", "114350.445000", "114351.935000", "114353.425000", "114354.915000", "114356.405000", "114357.895000", "114359.385000", "114400.875000", "114402.365000", "114403.855000", "114405.345000", "114406.835000", "114408.325000", "114409.815000", "114411.305000", "114412.795000", "114414.285000", "114415.775000", "114417.265000", "114418.755000", "114420.245000", "114421.735000", "114423.225000", "114424.715000", "114426.205000", "114427.695000", "114429.185000", "114430.675000", "114432.165000", "114433.655000", "114435.145000", "114436.635000", "114438.125000", "114439.615000", "114441.105000", "114442.595000", "114444.085000", "114445.575000", "114447.065000", "114448.555000", "114450.045000", "114451.535000", "114453.025000", "114454.515000", "114456.005000", "114457.495000", "114458.985000", "114500.475000", "114501.965000", "114503.455000", "114504.945000", "114506.435000", "114507.925000", "114509.415000", "114510.905000", "114512.395000", "114513.885000", "114515.375000", "114516.865000", "114518.355000", "114519.845000", "114521.335000", "114522.825000", "114524.315000", "114525.805000", "114527.295000", "114528.785000", "114530.275000", "114531.765000", "114533.255000", "114534.745000", "114536.235000", "114537.725000", "114539.215000", "114540.705000", "114542.195000", "114543.685000", "114545.175000", "114546.665000", "114548.155000", "114549.645000", "114551.135000", "114552.625000", "114554.115000", "114555.605000", "114557.095000", "114558.585000", "114600.075000", "114601.565000", "114603.055000", "114604.545000", "114606.035000", "114607.525000", "114609.015000", "114610.505000", "114611.995000", "114613.485000", "114614.975000", "114616.465000", "114617.955000", "114619.445000", "114620.935000", "114622.425000", "114623.915000", "114625.405000", "114626.895000", "114628.385000", "114629.875000", "114631.365000", "114632.855000", "114634.345000", "114635.835000", "114637.325000", "114638.815000", "114640.305000", "114641.795000", "114643.285000", "114644.775000", "114646.265000", "114647.755000", "114649.245000", "114650.735000", "114652.225000", "114653.715000", "114655.205000", "114656.695000", "114658.185000", "114659.675000", "114701.165000", "114702.655000", "114704.145000", "114705.635000", "114707.125000", "114708.615000", "114710.105000", "114711.595000", "114713.085000", "114714.575000", "114716.065000", "114717.555000", "114719.045000", "114720.535000", "114722.025000", "114723.515000", "114725.005000", "114726.495000", "114727.985000", "114729.475000", "114730.965000", "114732.455000", "114733.945000", "114735.435000", "114736.925000", "114738.415000", "114739.905000", "114741.395000", "114742.885000", "114744.375000", "114745.865000", "114747.355000", "114748.845000", "114750.335000", "114751.825000", "114753.315000", "114754.805000", "114756.295000", "114757.785000", "114759.275000", "114800.765000", "114802.255000", "114803.745000", "114805.235000", "114806.725000", "114808.215000", "114809.705000", "114811.195000", "114812.685000", "114814.175000", "114815.665000", "114817.155000", "114818.645000", "114820.135000", "114821.625000", "114823.115000"],
      "ContentTime": ["113756.757000", "113756.760000", "113756.763000", "113756.766000", "113756.769000", "113756.772000", "113756.775000", "113756.777000", "113756.780000", "113756.783000", "113756.786000", "113756.789000", "113756.792000", "113756.795000", "113756.798000", "113756.809000", "113756.816000", "113756.819000", "113756.822000", "113756.825000", "113756.828000", "113756.831000", "113756.833000", "113756.836000", "113756.839000", "113756.842000", "113816.721000", "113816.724000", "113816.727000", "113816.730000", "113816.733000", "113816.736000", "113816.738000", "113816.746000", "113816.749000", "113816.752000", "113816.755000", "113816.758000", "113816.761000", "113816.764000", "113816.766000", "113816.769000", "113816.772000", "113816.775000", "113816.778000", "113816.781000", "113836.721000", "113836.724000", "113836.727000", "113836.730000", "113836.733000", "113836.736000", "113836.738000", "113836.741000", "113836.744000", "113836.747000", "113836.750000", "113836.753000", "113836.756000", "113836.759000", "113836.762000", "113836.764000", "113836.767000", "113836.770000", "113836.792000", "113836.794000", "113856.722000", "113856.725000", "113856.728000", "113856.731000", "113856.734000", "113856.738000", "113856.740000", "113856.743000", "113856.746000", "113856.750000", "113856.753000", "113856.756000", "113856.759000", "113856.762000", "113856.765000", "113856.768000", "113856.781000", "113856.783000", "113856.786000", "113856.789000", "113916.722000", "113916.725000", "113916.728000", "113916.731000", "113916.734000", "113916.737000", "113916.739000", "113916.742000", "113916.745000", "113916.748000", "113916.751000", "113916.754000", "113916.757000", "113916.760000", "113916.763000", "113916.766000", "113916.769000", "113916.771000", "113916.774000", "113916.777000", "113916.780000", "113956.722000", "113956.730000", "113956.733000", "113956.736000", "113956.739000", "113956.742000", "113956.745000", "113956.748000", "113956.751000", "113956.754000", "113956.757000", "113956.760000", "113956.763000", "113956.766000", "113956.769000", "113956.772000", "113956.776000", "113956.780000", "113956.782000", "113956.785000", "113956.789000", "113956.792000", "113956.795000", "113956.798000", "113956.801000", "113956.804000", "113956.807000", "113956.810000", "113956.813000", "114036.721000", "114036.724000", "114036.727000", "114036.730000", "114036.733000", "114036.736000", "114036.739000", "114036.742000", "114036.745000", "114036.748000", "114036.750000", "114036.753000", "114036.756000", "114036.759000", "114036.762000", "114036.765000", "114036.768000", "114036.771000", "114036.774000", "114036.777000", "114036.780000", "114036.783000", "114036.786000", "114036.788000", "114036.791000", "114036.794000", "114036.797000", "114116.722000", "114116.725000", "114116.728000", "114116.731000", "114116.734000", "114116.737000", "114116.740000", "114116.743000", "114116.746000", "114116.748000", "114116.751000", "114116.754000", "114116.757000", "114116.760000", "114116.763000", "114116.766000", "114116.769000", "114116.772000", "114116.775000", "114116.778000", "114116.781000", "114116.784000", "114116.787000", "114116.789000", "114116.792000", "114116.795000", "114116.798000", "114156.722000", "114156.725000", "114156.728000", "114156.731000", "114156.734000", "114156.737000", "114156.740000", "114156.743000", "114156.746000", "114156.748000", "114156.751000", "114156.754000", "114156.757000", "114156.760000", "114156.763000", "114156.766000", "114156.769000", "114156.772000", "114156.775000", "114156.778000", "114156.781000", "114156.784000", "114156.786000", "114156.790000", "114156.792000", "114156.795000", "114156.798000", "114236.721000", "114236.724000", "114236.727000", "114236.730000", "114236.733000", "114236.736000", "114236.739000", "114236.742000", "114236.745000", "114236.747000", "114236.750000", "114236.753000", "114236.756000", "114236.759000", "114236.762000", "114236.765000", "114236.768000", "114236.780000", "114236.783000", "114236.786000", "114236.789000", "114236.792000", "114236.795000", "114236.798000", "114236.801000", "114236.803000", "114236.807000", "114316.721000", "114316.724000", "114316.727000", "114316.730000", "114316.733000", "114316.736000", "114316.739000", "114316.742000", "114316.744000", "114316.747000", "114316.750000", "114316.753000", "114316.756000", "114316.759000", "114316.762000", "114316.765000", "114316.768000", "114316.771000", "114316.774000", "114316.777000", "114316.780000", "114316.783000", "114316.786000", "114316.788000", "114316.791000", "114316.794000", "114316.797000", "114356.722000", "114356.725000", "114356.728000", "114356.731000", "114356.734000", "114356.737000", "114356.740000", "114356.743000", "114356.746000", "114356.748000", "114356.751000", "114356.754000", "114356.757000", "114356.760000", "114356.763000", "114356.766000", "114356.770000", "114356.772000", "114356.775000", "114356.778000", "114356.781000", "114356.784000", "114356.787000", "114356.790000", "114356.793000", "114356.796000", "114356.799000", "114436.722000", "114436.725000", "114436.728000", "114436.731000", "114436.734000", "114436.737000", "114436.740000", "114436.743000", "114436.745000", "114436.749000", "114436.751000", "114436.754000", "114436.757000", "114436.760000", "114436.763000", "114436.766000", "114436.769000", "114436.772000", "114436.775000", "114436.779000", "114436.781000", "114436.784000", "114436.787000", "114436.790000", "114436.793000", "114436.796000", "114516.721000", "114516.724000", "114516.727000", "114516.730000", "114516.733000", "114516.736000", "114516.739000", "114516.742000", "114516.745000", "114516.748000", "114516.750000", "114516.753000", "114516.756000", "114516.759000", "114516.762000", "114516.765000", "114516.768000", "114516.771000", "114516.774000", "114516.777000", "114516.780000", "114516.783000", "114516.786000", "114516.789000", "114516.792000", "114516.795000", "114516.798000", "114536.721000", "114536.724000", "114536.727000", "114536.730000", "114536.733000", "114536.736000", "114536.739000", "114536.742000", "114536.744000", "114536.747000", "114536.750000", "114536.753000", "114536.756000", "114536.759000", "114616.722000", "114616.726000", "114616.730000", "114616.735000", "114616.738000", "114616.742000", "114616.745000", "114616.748000", "114616.751000", "114616.754000", "114616.757000", "114616.760000", "114616.762000", "114616.765000", "114616.769000", "114616.771000", "114616.774000", "114616.777000", "114616.780000", "114616.783000", "114616.786000", "114616.789000", "114616.792000", "114616.795000", "114616.797000", "114616.800000", "114656.722000", "114656.725000", "114656.728000", "114656.731000", "114656.734000", "114656.737000", "114656.740000", "114656.743000", "114656.746000", "114656.749000", "114656.752000", "114656.754000", "114656.757000", "114656.760000", "114656.763000", "114656.766000", "114656.769000", "114656.772000", "114656.775000", "114656.778000", "114656.781000", "114656.784000", "114656.787000", "114656.789000", "114656.792000", "114656.795000", "114656.798000", "114736.721000", "114736.724000", "114736.727000", "114736.730000", "114736.733000", "114736.736000", "114736.739000", "114736.742000", "114736.745000", "114736.747000", "114736.750000", "114736.753000", "114736.756000", "114736.759000", "114736.762000", "114736.765000", "114736.768000", "114736.771000", "114736.774000", "114736.777000", "114736.780000", "114736.783000", "114736.786000", "114736.789000", "114736.792000", "114736.795000", "114736.798000", "114816.722000", "114816.725000", "114816.733000", "114816.736000", "114816.739000", "114816.742000", "114816.745000", "114816.748000", "114816.751000", "114816.754000", "114816.757000", "114816.760000", "114816.763000", "114816.766000", "114816.769000", "114816.778000", "114816.781000", "114816.784000", "114816.787000", "114816.790000", "114816.793000", "114816.795000", "114816.799000", "114816.801000", "114816.804000", "114816.807000", "114816.810000", "114824.949000", "114824.952000", "114824.955000", "114824.958000", "114824.961000", "114824.964000"],
