{
  "AcquisitionMatrixPE": 104,
  "AcquisitionNumber": 1,
  "AcquisitionTime": "10:47:29.040000",
  "BandwidthPerPixelPhaseEncode": 17.17,
  "BaseResolution": 104,
  "BodyPartExamined": "BRAIN",
  "CoilString": "HC1-7;NC1_2",
  "ConsistencyInfo": "N4_VE11C_LATEST_20160120",
  "ConversionSoftware": "dcm2niix",
  "ConversionSoftwareVersion": "v1.0.20190902",
  "DerivedVendorReportedEchoSpacing": 0.000560011,
  "DeviceSerialNumber": "167006",
  "DwellTime": 2.1e-06,
  "EchoTime": 0.037,
  "EchoTrainLength": 104,
  "EffectiveEchoSpacing": 0.000560011,
  "FlipAngle": 52,
  "ImageComments": "Unaliased_MB4_PE3_LB",
  "ImageOrientationPatientDICOM": [0.998528, -0.0116538, -0.0529654, -0.000174223, 0.975945, -0.218018],
  "ImageType": [
    "ORIGINAL",
    "PRIMARY",
    "M",
    "MB",
    "ND",
    "MOSAIC"
],
  "ImagingFrequency": 123.259,
  "InPlanePhaseEncodingDirectionDICOM": "COL",
  "InstitutionAddress": "Chemin_Queen-Mary_4565_Montreal_District_CA_H3W_1W5",
  "InstitutionName": "IUGM",
  "InstitutionalDepartmentName": "Department",
  "MRAcquisitionType": "2D",
  "MagneticFieldStrength": 3,
  "Manufacturer": "Siemens",
  "ManufacturersModelName": "Prisma_fit",
  "Modality": "MR",
  "MultibandAccelerationFactor": 4,
  "PartialFourier": 1,
  "PatientPosition": "HFS",
  "PercentPhaseFOV": 100,
  "PhaseEncodingDirection": "j",
  "PhaseEncodingSteps": 104,
  "PhaseResolution": 1,
  "PixelBandwidth": 2290,
  "ProcedureStepDescription": "video_friends",
  "ProtocolName": "func_task-friends-s04e15a",
  "PulseSequenceDetails": "%CustomerSeq%_cmrr_mbep2d_bold",
  "ReceiveCoilActiveElements": "HC1-7;NC1,2",
  "ReceiveCoilName": "HeadNeck_64",
  "ReconMatrixPE": 104,
  "RepetitionTime": 1.49,
  "SAR": 0.0288666,
  "ScanOptions": "FS",
  "ScanningSequence": "EP",
  "SequenceName": "epfid2d1_104",
  "SequenceVariant": "SK_SS",
  "SeriesDescription": "func_task-friends-s04e15a",
  "SeriesNumber": 9,
  "ShimSetting": [607, -7246, -8845, 655, -74, -286, 27, 51],
  "SliceThickness": 2,
  "SliceTiming": [0, 0.7825, 0.0975, 0.88, 0.195, 0.98, 0.2925, 1.0775, 0.39, 1.175, 0.49, 1.2725, 0.5875, 1.37, 0.685, 0, 0.7825, 0.0975, 0.88, 0.195, 0.98, 0.2925, 1.0775, 0.39, 1.175, 0.49, 1.2725, 0.5875, 1.37, 0.685, 0, 0.7825, 0.0975, 0.88, 0.195, 0.98, 0.2925, 1.0775, 0.39, 1.175, 0.49, 1.2725, 0.5875, 1.37, 0.685, 0, 0.7825, 0.0975, 0.88, 0.195, 0.98, 0.2925, 1.0775, 0.39, 1.175, 0.49, 1.2725, 0.5875, 1.37, 0.685],
  "SoftwareVersions": "syngo_MR_E11",
  "SpacingBetweenSlices": 2,
  "StationName": "MRC35049",
  "TaskName": "s04e15a",
  "TotalReadoutTime": 0.0576811,
  "TxRefAmp": 217.369,
  "WipMemBlock": "65b35052-3b57-4082-bf95-20b86f334806||Sequence: R016 ve11c/master r/e634e98; Dec 19 2017 11:00:25 by eja",
  "dcmmeta_affine": [
    [-1.9970567226409912, -0.00034844595938920975, -0.10846399515867233, 101.42972564697266],
    [0.02330753393471241, 1.9518895149230957, -0.43541261553764343, -84.86229705810547],
    [-0.10593073070049286, 0.4360358417034149, 1.9490129947662354, -54.73286819458008],
    [0.0, 0.0, 0.0, 1.0]
],
  "dcmmeta_reorient_transform": [
    [0.0, -1.0, 0.0, 103.0],
    [1.0, 0.0, 0.0, 0.0],
    [0.0, 0.0, 1.0, 0.0],
    [0.0, 0.0, 0.0, 1.0]
],
  "dcmmeta_shape": [104, 104, 60, 444],
  "dcmmeta_slice_dim": 2,
  "dcmmeta_version": 0.6,
  "global": {
    "const": {
      "AcquisitionMatrix": [104, 0, 0, 104],
      "AngioFlag": "N",
      "BitsAllocated": 16,
      "BitsStored": 16,
      "BodyPartExamined": "BRAIN",
      "Columns": 832,
      "EchoNumbers": 1,
      "EchoTime": 37.0,
      "EchoTrainLength": 104,
      "FlipAngle": 52.0,
      "HighBit": 15,
      "ImageOrientationPatient": [0.99852834707983, -0.0116537665256, -0.0529653641901, -0.0001742229789, 0.97594474932155, -0.2180179256806],
      "ImagePositionPatient": [-828.19563965384, -818.18615767616, 187.45466013012],
      "ImageType": [
        "ORIGINAL",
        "PRIMARY",
        "M",
        "MB",
        "ND",
        "MOSAIC"
],
      "ImagedNucleus": "1H",
      "ImagingFrequency": 123.259025,
      "InPlanePhaseEncodingDirection": "COL",
      "MRAcquisitionType": "2D",
      "MagneticFieldStrength": 3.0,
      "Manufacturer": "SIEMENS",
      "ManufacturerModelName": "Prisma_fit",
      "Modality": "MR",
      "NumberOfAverages": 1.0,
      "NumberOfPhaseEncodingSteps": 104,
      "PercentPhaseFieldOfView": 100.0,
      "PercentSampling": 100.0,
      "PerformedProcedureStepStartTime": "090956.115000",
      "PhotometricInterpretation": "MONOCHROME2",
      "PixelBandwidth": 2290.0,
      "PixelRepresentation": 0,
      "PixelSpacing": [2.0, 2.0],
      "ProtocolName": "func_task-friends-s04e15a",
      "RepetitionTime": 1490.0,
      "Rows": 832,
      "SAR": 0.02886659691682,
      "SamplesPerPixel": 1,
      "ScanOptions": "FS",
      "ScanningSequence": "EP",
      "SequenceName": "epfid2d1_104",
      "SequenceVariant": [
        "SK",
        "SS"
],
      "SeriesDescription": "func_task-friends-s04e15a",
      "SeriesNumber": 9,
      "SeriesTime": "104902.702000",
      "SliceLocation": -40.363213217052,
      "SliceThickness": 2.0,
      "SmallestImagePixelValue": 0,
      "SoftwareVersions": "syngo MR E11",
      "SpacingBetweenSlices": 2.0000000080707,
      "SpecificCharacterSet": "ISO_IR 100",
      "StudyID": "1",
      "StudyTime": "090955.973000",
      "TransmitCoilName": "Body",
      "VariableFlipAngleFlag": "N",
      "WindowCenterWidthExplanation": "Algo1",
      "dBdt": 0.0},
    "slices": {}
  },
  "time": {
    "samples": {
      "AcquisitionNumber": [1, 2, 3, 4, 5, 6, 7, 8, 9, 10, 11, 12, 13, 14, 15, 16, 17, 18, 19, 20, 21, 22, 23, 24, 25, 26, 27, 28, 29, 30, 31, 32, 33, 34, 35, 36, 37, 38, 39, 40, 41, 42, 43, 44, 45, 46, 47, 48, 49, 50, 51, 52, 53, 54, 55, 56, 57, 58, 59, 60, 61, 62, 63, 64, 65, 66, 67, 68, 69, 70, 71, 72, 73, 74, 75, 76, 77, 78, 79, 80, 81, 82, 83, 84, 85, 86, 87, 88, 89, 90, 91, 92, 93, 94, 95, 96, 97, 98, 99, 100, 101, 102, 103, 104, 105, 106, 107, 108, 109, 110, 111, 112, 113, 114, 115, 116, 117, 118, 119, 120, 121, 122, 123, 124, 125, 126, 127, 128, 129, 130, 131, 132, 133, 134, 135, 136, 137, 138, 139, 140, 141, 142, 143, 144, 145, 146, 147, 148, 149, 150, 151, 152, 153, 154, 155, 156, 157, 158, 159, 160, 161, 162, 163, 164, 165, 166, 167, 168, 169, 170, 171, 172, 173, 174, 175, 176, 177, 178, 179, 180, 181, 182, 183, 184, 185, 186, 187, 188, 189, 190, 191, 192, 193, 194, 195, 196, 197, 198, 199, 200, 201, 202, 203, 204, 205, 206, 207, 208, 209, 210, 211, 212, 213, 214, 215, 216, 217, 218, 219, 220, 221, 222, 223, 224, 225, 226, 227, 228, 229, 230, 231, 232, 233, 234, 235, 236, 237, 238, 239, 240, 241, 242, 243, 244, 245, 246, 247, 248, 249, 250, 251, 252, 253, 254, 255, 256, 257, 258, 259, 260, 261, 262, 263, 264, 265, 266, 267, 268, 269, 270, 271, 272, 273, 274, 275, 276, 277, 278, 279, 280, 281, 282, 283, 284, 285, 286, 287, 288, 289, 290, 291, 292, 293, 294, 295, 296, 297, 298, 299, 300, 301, 302, 303, 304, 305, 306, 307, 308, 309, 310, 311, 312, 313, 314, 315, 316, 317, 318, 319, 320, 321, 322, 323, 324, 325, 326, 327, 328, 329, 330, 331, 332, 333, 334, 335, 336, 337, 338, 339, 340, 341, 342, 343, 344, 345, 346, 347, 348, 349, 350, 351, 352, 353, 354, 355, 356, 357, 358, 359, 360, 361, 362, 363, 364, 365, 366, 367, 368, 369, 370, 371, 372, 373, 374, 375, 376, 377, 378, 379, 380, 381, 382, 383, 384, 385, 386, 387, 388, 389, 390, 391, 392, 393, 394, 395, 396, 397, 398, 399, 400, 401, 402, 403, 404, 405, 406, 407, 408, 409, 410, 411, 412, 413, 414, 415, 416, 417, 418, 419, 420, 421, 422, 423, 424, 425, 426, 427, 428, 429, 430, 431, 432, 433, 434, 435, 436, 437, 438, 439, 440, 441, 442, 443, 444],
      "AcquisitionTime": ["104729.040000", "104730.530000", "104732.020000", "104733.510000", "104735.000000", "104736.490000", "104737.980000", "104739.470000", "104740.960000", "104742.450000", "104743.940000", "104745.430000", "104746.920000", "104748.410000", "104749.900000", "104751.390000", "104752.880000", "104754.370000", "104755.860000", "104757.350000", "104758.840000", "104800.330000", "104801.820000", "104803.310000", "104804.800000", "104806.290000", "104807.780000", "104809.270000", "104810.760000", "104812.250000", "104813.740000", "104815.230000", "104816.720000", "104818.210000", "104819.700000", "104821.190000", "104822.680000", "104824.170000", "104825.660000", "104827.150000", "104828.640000", "104830.130000", "104831.620000", "104833.110000", "104834.600000", "104836.090000", "104837.580000", "104839.070000", "104840.560000", "104842.050000", "104843.540000", "104845.030000", "104846.520000", "104848.010000", "104849.500000", "104850.990000", "104852.480000", "104853.970000", "104855.460000", "104856.950000", "104858.440000", "104859.930000", "104901.420000", "104902.910000", "104904.400000", "104905.890000", "104907.380000", "104908.870000", "104910.360000", "104911.850000", "104913.340000", "104914.830000", "104916.320000", "104917.810000", "104919.300000", "104920.790000", "104922.280000", "104923.770000", "104925.260000", "104926.750000", "104928.240000", "104929.730000", "104931.220000", "104932.710000", "104934.200000", "104935.690000", "104937.180000", "104938.670000", "104940.160000", "104941.650000", "104943.140000", "104944.630000", "104946.120000", "104947.610000", "104949.100000", "104950.590000", "104952.080000", "104953.570000", "104955.060000", "104956.550000", "104958.040000", "104959.530000", "105001.020000", "105002.510000", "105004.000000", "105005.490000", "105006.980000", "105008.470000", "105009.960000", "105011.450000", "105012.940000", "105014.430000", "105015.920000", "105017.410000", "105018.900000", "105020.390000", "105021.880000", "105023.370000", "105024.860000", "105026.350000", "105027.840000", "105029.330000", "105030.820000", "105032.310000", "105033.800000", "105035.290000", "105036.780000", "105038.270000", "105039.760000", "105041.250000", "105042.740000", "105044.230000", "105045.720000", "105047.210000", "105048.700000", "105050.190000", "105051.680000", "105053.170000", "105054.660000", "105056.150000", "105057.640000", "105059.130000", "105100.620000", "105102.110000", "105103.600000", "105105.090000", "105106.580000", "105108.070000", "105109.560000", "105111.050000", "105112.540000", "105114.030000", "105115.520000", "105117.010000", "105118.500000", "105119.990000", "105121.480000", "105122.970000", "105124.460000", "105125.950000", "105127.440000", "105128.930000", "105130.420000", "105131.910000", "105133.400000", "105134.890000", "105136.380000", "105137.870000", "105139.360000", "105140.850000", "105142.340000", "105143.830000", "105145.320000", "105146.810000", "105148.300000", "105149.790000", "105151.280000", "105152.770000", "105154.260000", "105155.750000", "105157.240000", "105158.730000", "105200.220000", "105201.710000", "105203.200000", "105204.690000", "105206.180000", "105207.670000", "105209.160000", "105210.650000", "105212.140000", "105213.630000", "105215.120000", "105216.610000", "105218.100000", "105219.590000", "105221.080000", "105222.570000", "105224.060000", "105225.550000", "105227.040000", "105228.530000", "105230.020000", "105231.510000", "105233.000000", "105234.490000", "105235.980000", "105237.470000", "105238.960000", "105240.450000", "105241.940000", "105243.430000", "105244.920000", "105246.410000", "105247.900000", "105249.390000", "105250.880000", "105252.370000", "105253.860000", "105255.350000", "105256.840000", "105258.330000", "105259.820000", "105301.310000", "105302.800000", "105304.290000", "105305.780000", "105307.270000", "105308.760000", "105310.250000", "105311.740000", "105313.230000", "105314.720000", "105316.210000", "105317.700000", "105319.190000", "105320.680000", "105322.170000", "105323.660000", "105325.150000", "105326.640000", "105328.130000", "105329.620000", "105331.110000", "105332.600000", "105334.090000", "105335.580000", "105337.070000", "105338.560000", "105340.050000", "105341.540000", "105343.030000", "105344.520000", "105346.010000", "105347.500000", "105348.990000", "105350.480000", "105351.970000", "105353.460000", "105354.950000", "105356.440000", "105357.930000", "105359.420000", "105400.910000", "105402.400000", "105403.890000", "105405.380000", "105406.870000", "105408.360000", "105409.850000", "105411.340000", "105412.830000", "105414.320000", "105415.810000", "105417.300000", "105418.790000", "105420.280000", "105421.770000", "105423.260000", "105424.750000", "105426.240000", "105427.730000", "105429.220000", "105430.710000", "105432.200000", "105433.690000", "105435.180000", "105436.670000", "105438.160000", "105439.650000", "105441.140000", "105442.630000", "105444.120000", "105445.610000", "105447.100000", "105448.590000", "105450.080000", "105451.570000", "105453.060000", "105454.550000", "105456.040000", "105457.530000", "105459.020000", "105500.510000", "105502.000000", "105503.490000", "105504.980000", "105506.470000", "105507.960000", "105509.450000", "105510.940000", "105512.430000", "105513.920000", "105515.410000", "105516.900000", "105518.390000", "105519.880000", "105521.370000", "105522.860000", "105524.350000", "105525.840000", "105527.330000", "105528.820000", "105530.310000", "105531.800000", "105533.290000", "105534.780000", "105536.270000", "105537.760000", "105539.250000", "105540.740000", "105542.230000", "105543.720000", "105545.210000", "105546.700000", "105548.190000", "105549.680000", "105551.170000", "105552.660000", "105554.150000", "105555.640000", "105557.130000", "105558.620000", "105600.110000", "105601.600000", "105603.090000", "105604.580000", "105606.070000", "105607.560000", "105609.050000", "105610.540000", "105612.030000", "105613.520000", "105615.010000", "105616.500000", "105617.990000", "105619.480000", "105620.970000", "105622.460000", "105623.950000", "105625.440000", "105626.930000", "105628.420000", "105629.910000", "105631.400000", "105632.890000", "105634.380000", "105635.870000", "105637.360000", "105638.850000", "105640.340000", "105641.830000", "105643.320000", "105644.810000", "105646.300000", "105647.790000", "105649.280000", "105650.770000", "105652.260000", "105653.750000", "105655.240000", "105656.730000", "105658.220000", "105659.710000", "105701.200000", "105702.690000", "105704.180000", "105705.670000", "105707.160000", "105708.650000", "105710.140000", "105711.630000", "105713.120000", "105714.610000", "105716.100000", "105717.590000", "105719.080000", "105720.570000", "105722.060000", "105723.550000", "105725.040000", "105726.530000", "105728.020000", "105729.510000", "105731.000000", "105732.490000", "105733.980000", "105735.470000", "105736.960000", "105738.450000", "105739.940000", "105741.430000", "105742.920000", "105744.410000", "105745.900000", "105747.390000", "105748.880000", "105750.370000", "105751.860000", "105753.350000", "105754.840000", "105756.330000", "105757.820000", "105759.310000", "105800.800000", "105802.290000", "105803.780000", "105805.270000", "105806.760000", "105808.250000", "105809.740000", "105811.230000", "105812.720000", "105814.210000", "105815.700000", "105817.190000", "105818.680000", "105820.170000", "105821.660000", "105823.150000", "105824.640000", "105826.130000", "105827.620000", "105829.110000"],
      "ContentTime": ["104902.705000", "104902.708000", "104902.717000", "104902.723000", "104902.726000", "104902.728000", "104902.731000", "104902.734000", "104902.737000", "104902.740000", "104902.743000", "104902.746000", "104902.749000", "104902.751000", "104902.754000", "104902.757000", "104902.760000", "104902.763000", "104902.766000", "104902.769000", "104902.772000", "104902.774000", "104942.670000", "104942.673000", "104942.676000", "104942.679000", "104942.682000", "104942.684000", "104942.687000", "104942.690000", "104942.693000", "104942.696000", "104942.699000", "104942.701000", "104942.704000", "104942.707000", "104942.710000", "104942.713000", "104942.716000", "104942.719000", "104942.721000", "104942.724000", "104942.727000", "104942.730000", "104942.733000", "104942.736000", "104942.738000", "104942.741000", "104942.744000", "104942.747000", "104942.750000", "104942.753000", "104942.756000", "104942.759000", "104942.761000", "104942.764000", "104942.767000", "104942.770000", "104942.773000", "104942.776000", "104942.779000", "105002.670000", "105002.673000", "105002.676000", "105002.692000", "105002.695000", "105002.697000", "105002.700000", "105002.703000", "105002.706000", "105002.709000", "105002.712000", "105002.715000", "105002.718000", "105002.721000", "105002.723000", "105002.726000", "105002.729000", "105002.732000", "105002.735000", "105002.738000", "105022.670000", "105022.673000", "105022.676000", "105022.679000", "105022.681000", "105022.684000", "105022.687000", "105022.690000", "105022.693000", "105022.696000", "105022.699000", "105022.701000", "105022.704000", "105022.707000", "105022.710000", "105022.713000", "105022.716000", "105022.718000", "105022.721000", "105022.725000", "105042.669000", "105042.672000", "105042.675000", "105042.678000", "105042.681000", "105042.683000", "105042.686000", "105042.689000", "105042.692000", "105042.695000", "105042.698000", "105042.701000", "105042.703000", "105042.706000", "105042.709000", "105042.712000", "105042.715000", "105042.718000", "105042.721000", "105042.723000", "105042.726000", "105102.669000", "105102.672000", "105102.675000", "105102.678000", "105102.681000", "105102.683000", "105102.686000", "105102.689000", "105102.692000", "105102.695000", "105102.698000", "105102.701000", "105102.703000", "105102.706000", "105102.709000", "105102.712000", "105102.715000", "105102.718000", "105102.721000", "105102.724000", "105142.669000", "105142.672000", "105142.675000", "105142.678000", "105142.681000", "105142.684000", "105142.686000", "105142.689000", "105142.692000", "105142.695000", "105142.698000", "105142.701000", "105142.704000", "105142.706000", "105142.709000", "105142.712000", "105142.715000", "105142.718000", "105142.721000", "105142.724000", "105142.727000", "105142.729000", "105142.732000", "105142.735000", "105142.738000", "105142.741000", "105142.744000", "105222.670000", "105222.673000", "105222.676000", "105222.679000", "105222.682000", "105222.685000", "105222.687000", "105222.690000", "105222.693000", "105222.696000", "105222.699000", "105222.702000", "105222.705000", "105222.708000", "105222.710000", "105222.713000", "105222.716000", "105222.719000", "105222.722000", "105222.725000", "105222.728000", "105222.731000", "105222.734000", "105222.736000", "105222.739000", "105222.742000", "105222.745000", "105302.669000", "105302.672000", "105302.675000", "105302.678000", "105302.681000", "105302.683000", "105302.686000", "105302.689000", "105302.692000", "105302.695000", "105302.698000", "105302.701000", "105302.704000", "105302.707000", "105302.709000", "105302.712000", "105302.715000", "105302.718000", "105302.721000", "105302.724000", "105302.727000", "105302.730000", "105302.733000", "105302.735000", "105302.738000", "105302.741000", "105302.744000", "105342.669000", "105342.672000", "105342.675000", "105342.678000", "105342.681000", "105342.683000", "105342.686000", "105342.689000", "105342.692000", "105342.695000", "105342.698000", "105342.701000", "105342.704000", "105342.706000", "105342.709000", "105342.712000", "105342.715000", "105342.718000", "105342.721000", "105342.724000", "105342.726000", "105342.729000", "105342.732000", "105342.735000", "105342.738000", "105342.741000", "105342.744000", "105422.670000", "105422.673000", "105422.676000", "105422.679000", "105422.682000", "105422.685000", "105422.687000", "105422.690000", "105422.693000", "105422.696000", "105422.717000", "105422.720000", "105422.723000", "105422.726000", "105422.730000", "105422.734000", "105422.737000", "105422.740000", "105422.743000", "105422.746000", "105422.749000", "105422.752000", "105422.755000", "105422.758000", "105422.761000", "105422.764000", "105502.670000", "105502.673000", "105502.676000", "105502.679000", "105502.682000", "105502.684000", "105502.687000", "105502.690000", "105502.693000", "105502.696000", "105502.699000", "105502.702000", "105502.705000", "105502.707000", "105502.710000", "105502.713000", "105502.716000", "105502.719000", "105502.722000", "105502.725000", "105502.728000", "105502.731000", "105502.733000", "105502.736000", "105502.739000", "105502.742000", "105502.745000", "105542.669000", "105542.672000", "105542.675000", "105542.678000", "105542.681000", "105542.684000", "105542.686000", "105542.689000", "105542.692000", "105542.695000", "105542.698000", "105542.701000", "105542.704000", "105542.707000", "105542.709000", "105542.712000", "105542.715000", "105542.718000", "105542.721000", "105542.724000", "105542.727000", "105542.730000", "105542.732000", "105542.735000", "105542.744000", "105542.747000", "105542.749000", "105622.669000", "105622.672000", "105622.675000", "105622.678000", "105622.681000", "105622.684000", "105622.686000", "105622.689000", "105622.692000", "105622.695000", "105622.698000", "105622.701000", "105622.704000", "105622.706000", "105622.709000", "105622.712000", "105622.715000", "105622.718000", "105622.721000", "105622.724000", "105622.727000", "105622.729000", "105622.732000", "105622.735000", "105622.738000", "105622.741000", "105622.744000", "105702.670000", "105702.673000", "105702.676000", "105702.679000", "105702.682000", "105702.685000", "105702.687000", "105702.690000", "105702.693000", "105702.696000", "105702.699000", "105702.702000", "105702.705000", "105702.708000", "105702.710000", "105702.713000", "105702.716000", "105702.719000", "105702.722000", "105702.725000", "105702.728000", "105702.731000", "105702.734000", "105702.736000", "105702.739000", "105702.742000", "105702.745000", "105742.669000", "105742.672000", "105742.675000", "105742.678000", "105742.681000", "105742.684000", "105742.687000", "105742.689000", "105742.692000", "105742.695000", "105742.698000", "105742.701000", "105742.704000", "105742.707000", "105742.710000", "105742.712000", "105742.715000", "105742.718000", "105742.721000", "105742.732000", "105742.735000", "105742.738000", "105742.741000", "105742.743000", "105742.746000", "105742.749000", "105742.752000", "105822.669000", "105822.672000", "105822.675000", "105822.678000", "105822.681000", "105822.684000", "105822.686000", "105822.689000", "105822.692000", "105822.695000", "105822.698000", "105822.701000", "105822.704000", "105822.707000", "105822.710000", "105822.712000", "105822.715000", "105822.718000", "105822.721000", "105822.724000", "105822.727000", "105822.730000", "105822.733000", "105822.735000", "105822.738000", "105822.741000", "105822.744000", "105831.632000", "105831.635000", "105831.638000", "105831.641000", "105831.644000", "105831.647000"],
