{
  "AcquisitionMatrixPE": 104,
  "AcquisitionNumber": 1,
  "AcquisitionTime": "11:23:38.805000",
  "BandwidthPerPixelPhaseEncode": 17.17,
  "BaseResolution": 104,
  "BodyPartExamined": "BRAIN",
  "CoilString": "HC1-7;NC1_2",
  "ConsistencyInfo": "N4_VE11C_LATEST_20160120",
  "ConversionSoftware": "dcm2niix",
  "ConversionSoftwareVersion": "v1.0.20190902",
  "DerivedVendorReportedEchoSpacing": 0.000560011,
  "DeviceSerialNumber": "167006",
  "DwellTime": 2.1e-06,
  "EchoTime": 0.037,
  "EchoTrainLength": 104,
  "EffectiveEchoSpacing": 0.000560011,
  "FlipAngle": 52,
  "ImageComments": "Unaliased_MB4_PE3_LB",
  "ImageOrientationPatientDICOM": [0.998528, -0.0116538, -0.0529654, -0.000174223, 0.975945, -0.218018],
  "ImageType": [
    "ORIGINAL",
    "PRIMARY",
    "M",
    "MB",
    "ND",
    "MOSAIC"
],
  "ImagingFrequency": 123.259,
  "InPlanePhaseEncodingDirectionDICOM": "COL",
  "InstitutionAddress": "Chemin_Queen-Mary_4565_Montreal_District_CA_H3W_1W5",
  "InstitutionName": "IUGM",
  "InstitutionalDepartmentName": "Department",
  "MRAcquisitionType": "2D",
  "MagneticFieldStrength": 3,
  "Manufacturer": "Siemens",
  "ManufacturersModelName": "Prisma_fit",
  "Modality": "MR",
  "MultibandAccelerationFactor": 4,
  "PartialFourier": 1,
  "PatientPosition": "HFS",
  "PercentPhaseFOV": 100,
  "PhaseEncodingDirection": "j",
  "PhaseEncodingSteps": 104,
  "PhaseResolution": 1,
  "PixelBandwidth": 2290,
  "ProcedureStepDescription": "video_friends",
  "ProtocolName": "func_task-friends-s04e16b",
  "PulseSequenceDetails": "%CustomerSeq%_cmrr_mbep2d_bold",
  "ReceiveCoilActiveElements": "HC1-7;NC1,2",
  "ReceiveCoilName": "HeadNeck_64",
  "ReconMatrixPE": 104,
  "RepetitionTime": 1.49,
  "SAR": 0.0288779,
  "ScanOptions": "FS",
  "ScanningSequence": "EP",
  "SequenceName": "epfid2d1_104",
  "SequenceVariant": "SK_SS",
  "SeriesDescription": "func_task-friends-s04e16b",
  "SeriesNumber": 15,
  "ShimSetting": [607, -7246, -8845, 655, -74, -286, 27, 51],
  "SliceThickness": 2,
  "SliceTiming": [0, 0.7825, 0.0975, 0.8825, 0.195, 0.98, 0.2925, 1.0775, 0.3925, 1.175, 0.49, 1.2725, 0.5875, 1.3725, 0.685, 0, 0.7825, 0.0975, 0.8825, 0.195, 0.98, 0.2925, 1.0775, 0.3925, 1.175, 0.49, 1.2725, 0.5875, 1.3725, 0.685, 0, 0.7825, 0.0975, 0.8825, 0.195, 0.98, 0.2925, 1.0775, 0.3925, 1.175, 0.49, 1.2725, 0.5875, 1.3725, 0.685, 0, 0.7825, 0.0975, 0.8825, 0.195, 0.98, 0.2925, 1.0775, 0.3925, 1.175, 0.49, 1.2725, 0.5875, 1.3725, 0.685],
  "SoftwareVersions": "syngo_MR_E11",
  "SpacingBetweenSlices": 2,
  "StationName": "MRC35049",
  "TaskName": "s04e16b",
  "TotalReadoutTime": 0.0576811,
  "TxRefAmp": 217.369,
  "WipMemBlock": "3a6bc2f7-62f9-46e0-b10f-785139052361||Sequence: R016 ve11c/master r/e634e98; Dec 19 2017 11:00:25 by eja",
  "dcmmeta_affine": [
    [-1.9970567226409912, -0.00034844595938920975, -0.10846399515867233, 101.42972564697266],
    [0.02330753393471241, 1.9518895149230957, -0.43541261553764343, -84.86229705810547],
    [-0.10593073070049286, 0.4360358417034149, 1.9490129947662354, -54.73286819458008],
    [0.0, 0.0, 0.0, 1.0]
],
  "dcmmeta_reorient_transform": [
    [0.0, -1.0, 0.0, 103.0],
    [1.0, 0.0, 0.0, 0.0],
    [0.0, 0.0, 1.0, 0.0],
    [0.0, 0.0, 0.0, 1.0]
],
  "dcmmeta_shape": [104, 104, 60, 487],
  "dcmmeta_slice_dim": 2,
  "dcmmeta_version": 0.6,
  "global": {
    "const": {
      "AcquisitionMatrix": [104, 0, 0, 104],
      "AngioFlag": "N",
      "BitsAllocated": 16,
      "BitsStored": 16,
      "BodyPartExamined": "BRAIN",
      "Columns": 832,
      "EchoNumbers": 1,
      "EchoTime": 37.0,
      "EchoTrainLength": 104,
      "FlipAngle": 52.0,
      "HighBit": 15,
      "ImageOrientationPatient": [0.99852834707983, -0.0116537665256, -0.0529653641901, -0.0001742229789, 0.97594474932155, -0.2180179256806],
      "ImagePositionPatient": [-828.19563965384, -818.18615767616, 187.45466013012],
      "ImageType": [
        "ORIGINAL",
        "PRIMARY",
        "M",
        "MB",
        "ND",
        "MOSAIC"
],
      "ImagedNucleus": "1H",
      "ImagingFrequency": 123.259043,
      "InPlanePhaseEncodingDirection": "COL",
      "MRAcquisitionType": "2D",
      "MagneticFieldStrength": 3.0,
      "Manufacturer": "SIEMENS",
      "ManufacturerModelName": "Prisma_fit",
      "Modality": "MR",
      "NumberOfAverages": 1.0,
      "NumberOfPhaseEncodingSteps": 104,
      "PercentPhaseFieldOfView": 100.0,
      "PercentSampling": 100.0,
      "PerformedProcedureStepStartTime": "090956.115000",
      "PhotometricInterpretation": "MONOCHROME2",
      "PixelBandwidth": 2290.0,
      "PixelRepresentation": 0,
      "PixelSpacing": [2.0, 2.0],
      "ProtocolName": "func_task-friends-s04e16b",
      "RepetitionTime": 1490.0,
      "Rows": 832,
      "SAR": 0.02887793886728,
      "SamplesPerPixel": 1,
      "ScanOptions": "FS",
      "ScanningSequence": "EP",
      "SequenceName": "epfid2d1_104",
      "SequenceVariant": [
        "SK",
        "SS"
],
      "SeriesDescription": "func_task-friends-s04e16b",
      "SeriesNumber": 15,
      "SeriesTime": "112502.705000",
      "SliceLocation": -40.363213217052,
      "SliceThickness": 2.0,
      "SmallestImagePixelValue": 0,
      "SoftwareVersions": "syngo MR E11",
      "SpacingBetweenSlices": 2.0000000080707,
      "SpecificCharacterSet": "ISO_IR 100",
      "StudyID": "1",
      "StudyTime": "090955.973000",
      "TransmitCoilName": "Body",
      "VariableFlipAngleFlag": "N",
      "WindowCenterWidthExplanation": "Algo1",
      "dBdt": 0.0},
    "slices": {}
  },
  "time": {
    "samples": {
      "AcquisitionNumber": [1, 2, 3, 4, 5, 6, 7, 8, 9, 10, 11, 12, 13, 14, 15, 16, 17, 18, 19, 20, 21, 22, 23, 24, 25, 26, 27, 28, 29, 30, 31, 32, 33, 34, 35, 36, 37, 38, 39, 40, 41, 42, 43, 44, 45, 46, 47, 48, 49, 50, 51, 52, 53, 54, 55, 56, 57, 58, 59, 60, 61, 62, 63, 64, 65, 66, 67, 68, 69, 70, 71, 72, 73, 74, 75, 76, 77, 78, 79, 80, 81, 82, 83, 84, 85, 86, 87, 88, 89, 90, 91, 92, 93, 94, 95, 96, 97, 98, 99, 100, 101, 102, 103, 104, 105, 106, 107, 108, 109, 110, 111, 112, 113, 114, 115, 116, 117, 118, 119, 120, 121, 122, 123, 124, 125, 126, 127, 128, 129, 130, 131, 132, 133, 134, 135, 136, 137, 138, 139, 140, 141, 142, 143, 144, 145, 146, 147, 148, 149, 150, 151, 152, 153, 154, 155, 156, 157, 158, 159, 160, 161, 162, 163, 164, 165, 166, 167, 168, 169, 170, 171, 172, 173, 174, 175, 176, 177, 178, 179, 180, 181, 182, 183, 184, 185, 186, 187, 188, 189, 190, 191, 192, 193, 194, 195, 196, 197, 198, 199, 200, 201, 202, 203, 204, 205, 206, 207, 208, 209, 210, 211, 212, 213, 214, 215, 216, 217, 218, 219, 220, 221, 222, 223, 224, 225, 226, 227, 228, 229, 230, 231, 232, 233, 234, 235, 236, 237, 238, 239, 240, 241, 242, 243, 244, 245, 246, 247, 248, 249, 250, 251, 252, 253, 254, 255, 256, 257, 258, 259, 260, 261, 262, 263, 264, 265, 266, 267, 268, 269, 270, 271, 272, 273, 274, 275, 276, 277, 278, 279, 280, 281, 282, 283, 284, 285, 286, 287, 288, 289, 290, 291, 292, 293, 294, 295, 296, 297, 298, 299, 300, 301, 302, 303, 304, 305, 306, 307, 308, 309, 310, 311, 312, 313, 314, 315, 316, 317, 318, 319, 320, 321, 322, 323, 324, 325, 326, 327, 328, 329, 330, 331, 332, 333, 334, 335, 336, 337, 338, 339, 340, 341, 342, 343, 344, 345, 346, 347, 348, 349, 350, 351, 352, 353, 354, 355, 356, 357, 358, 359, 360, 361, 362, 363, 364, 365, 366, 367, 368, 369, 370, 371, 372, 373, 374, 375, 376, 377, 378, 379, 380, 381, 382, 383, 384, 385, 386, 387, 388, 389, 390, 391, 392, 393, 394, 395, 396, 397, 398, 399, 400, 401, 402, 403, 404, 405, 406, 407, 408, 409, 410, 411, 412, 413, 414, 415, 416, 417, 418, 419, 420, 421, 422, 423, 424, 425, 426, 427, 428, 429, 430, 431, 432, 433, 434, 435, 436, 437, 438, 439, 440, 441, 442, 443, 444, 445, 446, 447, 448, 449, 450, 451, 452, 453, 454, 455, 456, 457, 458, 459, 460, 461, 462, 463, 464, 465, 466, 467, 468, 469, 470, 471, 472, 473, 474, 475, 476, 477, 478, 479, 480, 481, 482, 483, 484, 485, 486, 487],
      "AcquisitionTime": ["112338.805000", "112340.295000", "112341.785000", "112343.275000", "112344.765000", "112346.255000", "112347.745000", "112349.235000", "112350.725000", "112352.215000", "112353.705000", "112355.195000", "112356.685000", "112358.175000", "112359.665000", "112401.155000", "112402.645000", "112404.135000", "112405.625000", "112407.115000", "112408.605000", "112410.095000", "112411.585000", "112413.075000", "112414.565000", "112416.055000", "112417.545000", "112419.035000", "112420.525000", "112422.015000", "112423.505000", "112424.995000", "112426.485000", "112427.975000", "112429.465000", "112430.955000", "112432.445000", "112433.935000", "112435.425000", "112436.915000", "112438.405000", "112439.895000", "112441.385000", "112442.875000", "112444.365000", "112445.855000", "112447.345000", "112448.835000", "112450.325000", "112451.815000", "112453.305000", "112454.795000", "112456.285000", "112457.775000", "112459.265000", "112500.755000", "112502.245000", "112503.735000", "112505.225000", "112506.715000", "112508.205000", "112509.695000", "112511.185000", "112512.675000", "112514.165000", "112515.655000", "112517.145000", "112518.635000", "112520.125000", "112521.615000", "112523.105000", "112524.595000", "112526.085000", "112527.575000", "112529.065000", "112530.555000", "112532.045000", "112533.535000", "112535.025000", "112536.515000", "112538.005000", "112539.495000", "112540.985000", "112542.475000", "112543.965000", "112545.455000", "112546.945000", "112548.435000", "112549.925000", "112551.415000", "112552.905000", "112554.395000", "112555.885000", "112557.375000", "112558.865000", "112600.355000", "112601.845000", "112603.335000", "112604.825000", "112606.315000", "112607.805000", "112609.295000", "112610.785000", "112612.275000", "112613.765000", "112615.255000", "112616.745000", "112618.235000", "112619.725000", "112621.215000", "112622.705000", "112624.195000", "112625.685000", "112627.175000", "112628.665000", "112630.155000", "112631.645000", "112633.135000", "112634.625000", "112636.115000", "112637.605000", "112639.095000", "112640.585000", "112642.075000", "112643.565000", "112645.055000", "112646.545000", "112648.035000", "112649.525000", "112651.015000", "112652.505000", "112653.995000", "112655.485000", "112656.975000", "112658.465000", "112659.955000", "112701.445000", "112702.935000", "112704.425000", "112705.915000", "112707.405000", "112708.895000", "112710.385000", "112711.875000", "112713.365000", "112714.855000", "112716.345000", "112717.835000", "112719.325000", "112720.815000", "112722.305000", "112723.795000", "112725.285000", "112726.775000", "112728.265000", "112729.755000", "112731.245000", "112732.735000", "112734.225000", "112735.715000", "112737.205000", "112738.695000", "112740.185000", "112741.675000", "112743.165000", "112744.655000", "112746.145000", "112747.635000", "112749.125000", "112750.615000", "112752.105000", "112753.595000", "112755.085000", "112756.575000", "112758.065000", "112759.555000", "112801.045000", "112802.535000", "112804.025000", "112805.515000", "112807.005000", "112808.495000", "112809.985000", "112811.475000", "112812.965000", "112814.455000", "112815.945000", "112817.435000", "112818.925000", "112820.415000", "112821.905000", "112823.395000", "112824.885000", "112826.375000", "112827.865000", "112829.355000", "112830.845000", "112832.335000", "112833.825000", "112835.315000", "112836.805000", "112838.295000", "112839.785000", "112841.275000", "112842.765000", "112844.255000", "112845.745000", "112847.235000", "112848.725000", "112850.215000", "112851.705000", "112853.195000", "112854.685000", "112856.175000", "112857.665000", "112859.155000", "112900.645000", "112902.135000", "112903.625000", "112905.115000", "112906.605000", "112908.095000", "112909.585000", "112911.075000", "112912.565000", "112914.055000", "112915.545000", "112917.035000", "112918.525000", "112920.015000", "112921.505000", "112922.995000", "112924.485000", "112925.975000", "112927.465000", "112928.955000", "112930.445000", "112931.935000", "112933.425000", "112934.915000", "112936.405000", "112937.895000", "112939.385000", "112940.875000", "112942.365000", "112943.855000", "112945.345000", "112946.835000", "112948.325000", "112949.815000", "112951.305000", "112952.795000", "112954.285000", "112955.775000", "112957.265000", "112958.755000", "113000.245000", "113001.735000", "113003.225000", "113004.715000", "113006.205000", "113007.695000", "113009.185000", "113010.675000", "113012.165000", "113013.655000", "113015.145000", "113016.635000", "113018.125000", "113019.615000", "113021.105000", "113022.595000", "113024.085000", "113025.575000", "113027.065000", "113028.555000", "113030.045000", "113031.535000", "113033.025000", "113034.515000", "113036.005000", "113037.495000", "113038.985000", "113040.475000", "113041.965000", "113043.455000", "113044.945000", "113046.435000", "113047.925000", "113049.415000", "113050.905000", "113052.395000", "113053.885000", "113055.375000", "113056.865000", "113058.355000", "113059.845000", "113101.335000", "113102.825000", "113104.315000", "113105.805000", "113107.295000", "113108.785000", "113110.275000", "113111.765000", "113113.255000", "113114.745000", "113116.235000", "113117.725000", "113119.215000", "113120.705000", "113122.195000", "113123.685000", "113125.175000", "113126.665000", "113128.155000", "113129.645000", "113131.135000", "113132.625000", "113134.115000", "113135.605000", "113137.095000", "113138.585000", "113140.075000", "113141.565000", "113143.055000", "113144.545000", "113146.035000", "113147.525000", "113149.015000", "113150.505000", "113151.995000", "113153.485000", "113154.975000", "113156.465000", "113157.955000", "113159.445000", "113200.935000", "113202.425000", "113203.915000", "113205.405000", "113206.895000", "113208.385000", "113209.875000", "113211.365000", "113212.855000", "113214.345000", "113215.835000", "113217.325000", "113218.815000", "113220.305000", "113221.795000", "113223.285000", "113224.775000", "113226.265000", "113227.755000", "113229.245000", "113230.735000", "113232.225000", "113233.715000", "113235.205000", "113236.695000", "113238.185000", "113239.675000", "113241.165000", "113242.655000", "113244.145000", "113245.635000", "113247.125000", "113248.615000", "113250.105000", "113251.595000", "113253.085000", "113254.575000", "113256.065000", "113257.555000", "113259.045000", "113300.535000", "113302.025000", "113303.515000", "113305.005000", "113306.495000", "113307.985000", "113309.475000", "113310.965000", "113312.455000", "113313.945000", "113315.435000", "113316.925000", "113318.415000", "113319.905000", "113321.395000", "113322.885000", "113324.375000", "113325.865000", "113327.355000", "113328.845000", "113330.335000", "113331.825000", "113333.315000", "113334.805000", "113336.295000", "113337.785000", "113339.275000", "113340.765000", "113342.255000", "113343.745000", "113345.235000", "113346.725000", "113348.215000", "113349.705000", "113351.195000", "113352.685000", "113354.175000", "113355.665000", "113357.155000", "113358.645000", "113400.135000", "113401.625000", "113403.115000", "113404.605000", "113406.095000", "113407.585000", "113409.075000", "113410.565000", "113412.055000", "113413.545000", "113415.035000", "113416.525000", "113418.015000", "113419.505000", "113420.995000", "113422.485000", "113423.975000", "113425.465000", "113426.955000", "113428.445000", "113429.935000", "113431.425000", "113432.915000", "113434.405000", "113435.895000", "113437.385000", "113438.875000", "113440.365000", "113441.855000", "113443.345000", "113444.835000", "113446.325000", "113447.815000", "113449.305000", "113450.795000", "113452.285000", "113453.775000", "113455.265000", "113456.755000", "113458.245000", "113459.735000", "113501.225000", "113502.715000", "113504.205000", "113505.695000", "113507.185000", "113508.675000", "113510.165000", "113511.655000", "113513.145000", "113514.635000", "113516.125000", "113517.615000", "113519.105000", "113520.595000", "113522.085000", "113523.575000", "113525.065000", "113526.555000", "113528.045000", "113529.535000", "113531.025000", "113532.515000", "113534.005000", "113535.495000", "113536.985000", "113538.475000", "113539.965000", "113541.455000", "113542.945000"],
      "ContentTime": ["112502.708000", "112502.711000", "112502.714000", "112502.717000", "112502.720000", "112502.722000", "112502.725000", "112502.728000", "112502.731000", "112502.734000", "112502.737000", "112502.740000", "112502.743000", "112502.745000", "112502.748000", "112502.751000", "112502.754000", "112502.757000", "112502.760000", "112502.763000", "112502.765000", "112502.768000", "112502.771000", "112502.781000", "112502.784000", "112502.787000", "112502.790000", "112502.793000", "112502.796000", "112502.798000", "112522.670000", "112522.673000", "112522.676000", "112522.679000", "112522.682000", "112522.684000", "112522.687000", "112522.690000", "112522.699000", "112522.701000", "112522.704000", "112522.707000", "112522.710000", "112522.713000", "112522.716000", "112522.718000", "112522.721000", "112522.724000", "112522.727000", "112522.730000", "112542.669000", "112542.672000", "112542.675000", "112542.678000", "112542.681000", "112542.684000", "112542.686000", "112542.689000", "112542.692000", "112542.695000", "112542.698000", "112542.701000", "112542.704000", "112542.706000", "112542.709000", "112542.712000", "112542.715000", "112542.718000", "112542.721000", "112542.723000", "112542.726000", "112602.669000", "112602.672000", "112602.675000", "112602.678000", "112602.681000", "112602.683000", "112602.686000", "112602.689000", "112602.692000", "112602.695000", "112602.698000", "112602.701000", "112602.703000", "112602.706000", "112602.709000", "112602.712000", "112602.715000", "112602.718000", "112602.728000", "112602.730000", "112642.670000", "112642.679000", "112642.682000", "112642.685000", "112642.688000", "112642.691000", "112642.694000", "112642.697000", "112642.700000", "112642.703000", "112642.705000", "112642.708000", "112642.711000", "112642.714000", "112642.717000", "112642.720000", "112642.723000", "112642.726000", "112642.729000", "112642.731000", "112642.734000", "112642.737000", "112642.740000", "112642.743000", "112642.746000", "112642.748000", "112642.751000", "112642.754000", "112642.757000", "112642.760000", "112642.763000", "112642.766000", "112722.670000", "112722.673000", "112722.676000", "112722.679000", "112722.682000", "112722.685000", "112722.687000", "112722.690000", "112722.693000", "112722.696000", "112722.699000", "112722.702000", "112722.705000", "112722.708000", "112722.710000", "112722.714000", "112722.716000", "112722.719000", "112722.722000", "112722.725000", "112722.728000", "112722.731000", "112722.734000", "112722.737000", "112722.740000", "112722.743000", "112722.745000", "112802.669000", "112802.672000", "112802.675000", "112802.678000", "112802.681000", "112802.684000", "112802.687000", "112802.690000", "112802.692000", "112802.695000", "112802.698000", "112802.701000", "112802.711000", "112802.714000", "112802.716000", "112802.719000", "112802.722000", "112802.725000", "112802.728000", "112802.731000", "112802.734000", "112802.737000", "112802.743000", "112802.746000", "112802.749000", "112802.753000", "112842.669000", "112842.672000", "112842.675000", "112842.678000", "112842.681000", "112842.684000", "112842.686000", "112842.689000", "112842.692000", "112842.695000", "112842.698000", "112842.712000", "112842.715000", "112842.718000", "112842.721000", "112842.724000", "112842.727000", "112842.730000", "112842.732000", "112842.735000", "112842.738000", "112842.741000", "112842.744000", "112842.747000", "112842.750000", "112842.753000", "112842.756000", "112922.670000", "112922.682000", "112922.685000", "112922.688000", "112922.691000", "112922.694000", "112922.697000", "112922.700000", "112922.703000", "112922.706000", "112922.709000", "112922.712000", "112922.715000", "112922.717000", "112922.720000", "112922.723000", "112922.726000", "112922.729000", "112922.732000", "112922.735000", "112922.738000", "112922.741000", "112922.744000", "112922.747000", "112922.750000", "112922.752000", "112922.755000", "113002.670000", "113002.673000", "113002.676000", "113002.679000", "113002.682000", "113002.685000", "113002.688000", "113002.691000", "113002.694000", "113002.696000", "113002.700000", "113002.702000", "113002.705000", "113002.708000", "113002.711000", "113002.714000", "113002.717000", "113002.720000", "113002.723000", "113002.726000", "113002.729000", "113002.731000", "113002.734000", "113002.737000", "113002.740000", "113002.743000", "113002.746000", "113042.669000", "113042.672000", "113042.675000", "113042.678000", "113042.681000", "113042.684000", "113042.687000", "113042.690000", "113042.693000", "113042.696000", "113042.699000", "113042.701000", "113042.704000", "113042.707000", "113042.710000", "113042.713000", "113042.716000", "113042.719000", "113042.722000", "113042.725000", "113042.728000", "113042.731000", "113042.733000", "113042.736000", "113042.739000", "113042.742000", "113042.745000", "113122.670000", "113122.673000", "113122.676000", "113122.679000", "113122.682000", "113122.685000", "113122.688000", "113122.691000", "113122.694000", "113122.697000", "113122.700000", "113122.702000", "113122.706000", "113122.708000", "113122.711000", "113122.714000", "113122.717000", "113122.720000", "113122.723000", "113122.726000", "113122.729000", "113122.732000", "113122.735000", "113122.737000", "113122.740000", "113122.743000", "113122.746000", "113202.670000", "113202.673000", "113202.676000", "113202.679000", "113202.682000", "113202.685000", "113202.688000", "113202.691000", "113202.694000", "113202.697000", "113202.700000", "113202.703000", "113202.705000", "113202.708000", "113202.711000", "113202.714000", "113202.717000", "113202.720000", "113202.723000", "113202.726000", "113202.729000", "113202.732000", "113202.734000", "113202.737000", "113202.740000", "113202.743000", "113202.746000", "113242.669000", "113242.672000", "113242.675000", "113242.678000", "113242.681000", "113242.684000", "113242.687000", "113242.689000", "113242.692000", "113242.695000", "113242.698000", "113242.701000", "113242.704000", "113242.707000", "113242.710000", "113242.713000", "113242.716000", "113242.719000", "113242.722000", "113242.724000", "113242.727000", "113242.730000", "113242.733000", "113242.737000", "113242.740000", "113242.743000", "113322.669000", "113322.672000", "113322.675000", "113322.678000", "113322.681000", "113322.684000", "113322.687000", "113322.690000", "113322.693000", "113322.695000", "113322.698000", "113322.701000", "113322.704000", "113322.707000", "113322.710000", "113322.713000", "113322.718000", "113322.721000", "113322.724000", "113322.727000", "113322.730000", "113322.733000", "113322.736000", "113322.739000", "113322.742000", "113322.744000", "113322.747000", "113402.670000", "113402.673000", "113402.676000", "113402.679000", "113402.682000", "113402.685000", "113402.688000", "113402.691000", "113402.694000", "113402.696000", "113402.699000", "113402.702000", "113402.705000", "113402.708000", "113402.711000", "113402.714000", "113402.717000", "113402.720000", "113402.723000", "113402.726000", "113402.729000", "113402.731000", "113402.734000", "113402.737000", "113402.740000", "113402.743000", "113402.746000", "113442.669000", "113442.672000", "113442.675000", "113442.678000", "113442.681000", "113442.684000", "113442.687000", "113442.690000", "113442.693000", "113442.696000", "113442.699000", "113442.701000", "113442.704000", "113442.707000", "113442.710000", "113442.713000", "113442.716000", "113442.719000", "113442.722000", "113442.725000", "113442.728000", "113442.730000", "113442.733000", "113442.736000", "113442.739000", "113442.742000", "113442.745000", "113522.669000", "113522.672000", "113522.675000", "113522.678000", "113522.681000", "113522.684000", "113522.687000", "113522.690000", "113522.693000", "113522.696000", "113522.698000", "113522.701000", "113522.704000", "113522.707000", "113522.710000", "113522.713000", "113522.716000", "113522.719000", "113522.722000", "113522.725000", "113522.728000", "113522.731000", "113522.734000", "113522.736000", "113522.739000", "113522.742000", "113522.745000", "113542.669000", "113542.672000", "113542.675000", "113542.678000", "113542.681000", "113542.684000", "113542.687000", "113542.690000", "113542.693000", "113542.696000", "113542.699000", "113542.701000", "113542.705000", "113544.709000", "113544.712000"],
