{
  "AcquisitionMatrixPE": 104,
  "AcquisitionNumber": 1,
  "AcquisitionTime": "13:54:31.842500",
  "BandwidthPerPixelPhaseEncode": 17.17,
  "BaseResolution": 104,
  "BodyPartExamined": "BRAIN",
  "CoilString": "HC1-7;NC1_2",
  "ConsistencyInfo": "N4_VE11C_LATEST_20160120",
  "ConversionSoftware": "dcm2niix",
  "ConversionSoftwareVersion": "v1.0.20190902",
  "DerivedVendorReportedEchoSpacing": 0.000560011,
  "DeviceSerialNumber": "167006",
  "DwellTime": 2.1e-06,
  "EchoTime": 0.037,
  "EchoTrainLength": 104,
  "EffectiveEchoSpacing": 0.000560011,
  "FlipAngle": 52,
  "ImageComments": "Unaliased_MB4_PE3_LB",
  "ImageOrientationPatientDICOM": [0.9982, 0.00328453, -0.0598907, -0.015681, 0.978063, -0.207717],
  "ImageType": [
    "ORIGINAL",
    "PRIMARY",
    "M",
    "MB",
    "ND",
    "MOSAIC"
],
  "ImagingFrequency": 123.259,
  "InPlanePhaseEncodingDirectionDICOM": "COL",
  "InstitutionAddress": "Chemin_Queen-Mary_4565_Montreal_District_CA_H3W_1W5",
  "InstitutionName": "IUGM",
  "InstitutionalDepartmentName": "Department",
  "MRAcquisitionType": "2D",
  "MagneticFieldStrength": 3,
  "Manufacturer": "Siemens",
  "ManufacturersModelName": "Prisma_fit",
  "Modality": "MR",
  "MultibandAccelerationFactor": 4,
  "PartialFourier": 1,
  "PatientPosition": "HFS",
  "PercentPhaseFOV": 100,
  "PhaseEncodingDirection": "j",
  "PhaseEncodingSteps": 104,
  "PhaseResolution": 1,
  "PixelBandwidth": 2290,
  "ProcedureStepDescription": "video_friends",
  "ProtocolName": "func_task-friends-s04e03b",
  "PulseSequenceDetails": "%CustomerSeq%_cmrr_mbep2d_bold",
  "ReceiveCoilActiveElements": "HC1-7;NC1,2",
  "ReceiveCoilName": "HeadNeck_64",
  "ReconMatrixPE": 104,
  "RepetitionTime": 1.49,
  "SAR": 0.0293064,
  "ScanOptions": "FS",
  "ScanningSequence": "EP",
  "SequenceName": "epfid2d1_104",
  "SequenceVariant": "SK_SS",
  "SeriesDescription": "func_task-friends-s04e03b",
  "SeriesNumber": 15,
  "ShimSetting": [609, -7253, -8840, 613, -15, -291, 31, 30],
  "SliceThickness": 2,
  "SliceTiming": [0, 0.7825, 0.0975, 0.8825, 0.195, 0.98, 0.2925, 1.0775, 0.3925, 1.175, 0.49, 1.2725, 0.5875, 1.3725, 0.685, 0, 0.7825, 0.0975, 0.8825, 0.195, 0.98, 0.2925, 1.0775, 0.3925, 1.175, 0.49, 1.2725, 0.5875, 1.3725, 0.685, 0, 0.7825, 0.0975, 0.8825, 0.195, 0.98, 0.2925, 1.0775, 0.3925, 1.175, 0.49, 1.2725, 0.5875, 1.3725, 0.685, 0, 0.7825, 0.0975, 0.8825, 0.195, 0.98, 0.2925, 1.0775, 0.3925, 1.175, 0.49, 1.2725, 0.5875, 1.3725, 0.685],
  "SoftwareVersions": "syngo_MR_E11",
  "SpacingBetweenSlices": 2,
  "StationName": "MRC35049",
  "TaskName": "s04e03b",
  "TotalReadoutTime": 0.0576811,
  "TxRefAmp": 217.235,
  "WipMemBlock": "b33ec104-4fd8-4169-a91b-4f195e6c9bbc||Sequence: R016 ve11c/master r/e634e98; Dec 19 2017 11:00:25 by eja",
  "dcmmeta_affine": [
    [-1.9963990449905396, -0.031362004578113556, -0.11578921228647232, 104.01973724365234],
    [-0.0065690516494214535, 1.9561265707015991, -0.41656389832496643, -83.33181762695312],
    [-0.11978131532669067, 0.4154335558414459, 1.9527077674865723, -49.704742431640625],
    [0.0, 0.0, 0.0, 1.0]
],
  "dcmmeta_reorient_transform": [
    [0.0, -1.0, 0.0, 103.0],
    [1.0, 0.0, 0.0, 0.0],
    [0.0, 0.0, 1.0, 0.0],
    [0.0, 0.0, 0.0, 1.0]
],
  "dcmmeta_shape": [104, 104, 60, 445],
  "dcmmeta_slice_dim": 2,
  "dcmmeta_version": 0.6,
  "global": {
    "const": {
      "AcquisitionMatrix": [104, 0, 0, 104],
      "AngioFlag": "N",
      "BitsAllocated": 16,
      "BitsStored": 16,
      "BodyPartExamined": "BRAIN",
      "Columns": 832,
      "EchoNumbers": 1,
      "EchoTime": 37.0,
      "EchoTrainLength": 104,
      "FlipAngle": 52.0,
      "HighBit": 15,
      "ImageOrientationPatient": [0.99819953963227, 0.00328452584837, -0.0598906584358, -0.0156810021681, 0.97806331296053, -0.2077167831729],
      "ImagePositionPatient": [-816.06294351208, -832.57045218197, 187.90313363644],
      "ImageType": [
        "ORIGINAL",
        "PRIMARY",
        "M",
        "MB",
        "ND",
        "MOSAIC"
],
      "ImagedNucleus": "1H",
      "ImagingFrequency": 123.25908,
      "InPlanePhaseEncodingDirection": "COL",
      "MRAcquisitionType": "2D",
      "MagneticFieldStrength": 3.0,
      "Manufacturer": "SIEMENS",
      "ManufacturerModelName": "Prisma_fit",
      "Modality": "MR",
      "NumberOfAverages": 1.0,
      "NumberOfPhaseEncodingSteps": 104,
      "PercentPhaseFieldOfView": 100.0,
      "PercentSampling": 100.0,
      "PerformedProcedureStepStartTime": "131554.837000",
      "PhotometricInterpretation": "MONOCHROME2",
      "PixelBandwidth": 2290.0,
      "PixelRepresentation": 0,
      "PixelSpacing": [2.0, 2.0],
      "ProtocolName": "func_task-friends-s04e03b",
      "RepetitionTime": 1490.0,
      "Rows": 832,
      "SAR": 0.02930642811328,
      "SamplesPerPixel": 1,
      "ScanOptions": "FS",
      "ScanningSequence": "EP",
      "SequenceName": "epfid2d1_104",
      "SequenceVariant": [
        "SK",
        "SS"
],
      "SeriesDescription": "func_task-friends-s04e03b",
      "SeriesNumber": 15,
      "SeriesTime": "135530.444000",
      "SliceLocation": -37.195084270996,
      "SliceThickness": 2.0,
      "SmallestImagePixelValue": 0,
      "SoftwareVersions": "syngo MR E11",
      "SpacingBetweenSlices": 2.0000000613623,
      "SpecificCharacterSet": "ISO_IR 100",
      "StudyID": "1",
      "StudyTime": "131554.748000",
      "TransmitCoilName": "Body",
      "VariableFlipAngleFlag": "N",
      "WindowCenterWidthExplanation": "Algo1",
      "dBdt": 0.0},
    "slices": {}
  },
  "time": {
    "samples": {
      "AcquisitionNumber": [1, 2, 3, 4, 5, 6, 7, 8, 9, 10, 11, 12, 13, 14, 15, 16, 17, 18, 19, 20, 21, 22, 23, 24, 25, 26, 27, 28, 29, 30, 31, 32, 33, 34, 35, 36, 37, 38, 39, 40, 41, 42, 43, 44, 45, 46, 47, 48, 49, 50, 51, 52, 53, 54, 55, 56, 57, 58, 59, 60, 61, 62, 63, 64, 65, 66, 67, 68, 69, 70, 71, 72, 73, 74, 75, 76, 77, 78, 79, 80, 81, 82, 83, 84, 85, 86, 87, 88, 89, 90, 91, 92, 93, 94, 95, 96, 97, 98, 99, 100, 101, 102, 103, 104, 105, 106, 107, 108, 109, 110, 111, 112, 113, 114, 115, 116, 117, 118, 119, 120, 121, 122, 123, 124, 125, 126, 127, 128, 129, 130, 131, 132, 133, 134, 135, 136, 137, 138, 139, 140, 141, 142, 143, 144, 145, 146, 147, 148, 149, 150, 151, 152, 153, 154, 155, 156, 157, 158, 159, 160, 161, 162, 163, 164, 165, 166, 167, 168, 169, 170, 171, 172, 173, 174, 175, 176, 177, 178, 179, 180, 181, 182, 183, 184, 185, 186, 187, 188, 189, 190, 191, 192, 193, 194, 195, 196, 197, 198, 199, 200, 201, 202, 203, 204, 205, 206, 207, 208, 209, 210, 211, 212, 213, 214, 215, 216, 217, 218, 219, 220, 221, 222, 223, 224, 225, 226, 227, 228, 229, 230, 231, 232, 233, 234, 235, 236, 237, 238, 239, 240, 241, 242, 243, 244, 245, 246, 247, 248, 249, 250, 251, 252, 253, 254, 255, 256, 257, 258, 259, 260, 261, 262, 263, 264, 265, 266, 267, 268, 269, 270, 271, 272, 273, 274, 275, 276, 277, 278, 279, 280, 281, 282, 283, 284, 285, 286, 287, 288, 289, 290, 291, 292, 293, 294, 295, 296, 297, 298, 299, 300, 301, 302, 303, 304, 305, 306, 307, 308, 309, 310, 311, 312, 313, 314, 315, 316, 317, 318, 319, 320, 321, 322, 323, 324, 325, 326, 327, 328, 329, 330, 331, 332, 333, 334, 335, 336, 337, 338, 339, 340, 341, 342, 343, 344, 345, 346, 347, 348, 349, 350, 351, 352, 353, 354, 355, 356, 357, 358, 359, 360, 361, 362, 363, 364, 365, 366, 367, 368, 369, 370, 371, 372, 373, 374, 375, 376, 377, 378, 379, 380, 381, 382, 383, 384, 385, 386, 387, 388, 389, 390, 391, 392, 393, 394, 395, 396, 397, 398, 399, 400, 401, 402, 403, 404, 405, 406, 407, 408, 409, 410, 411, 412, 413, 414, 415, 416, 417, 418, 419, 420, 421, 422, 423, 424, 425, 426, 427, 428, 429, 430, 431, 432, 433, 434, 435, 436, 437, 438, 439, 440, 441, 442, 443, 444, 445],
      "AcquisitionTime": ["135431.842500", "135433.332500", "135434.822500", "135436.312500", "135437.802500", "135439.292500", "135440.782500", "135442.272500", "135443.762500", "135445.252500", "135446.742500", "135448.232500", "135449.722500", "135451.212500", "135452.702500", "135454.192500", "135455.682500", "135457.172500", "135458.662500", "135500.152500", "135501.642500", "135503.132500", "135504.622500", "135506.112500", "135507.602500", "135509.092500", "135510.582500", "135512.072500", "135513.562500", "135515.052500", "135516.542500", "135518.032500", "135519.522500", "135521.012500", "135522.502500", "135523.992500", "135525.482500", "135526.972500", "135528.462500", "135529.952500", "135531.442500", "135532.932500", "135534.422500", "135535.912500", "135537.402500", "135538.892500", "135540.382500", "135541.872500", "135543.362500", "135544.852500", "135546.342500", "135547.832500", "135549.322500", "135550.812500", "135552.302500", "135553.792500", "135555.282500", "135556.772500", "135558.262500", "135559.752500", "135601.242500", "135602.732500", "135604.222500", "135605.712500", "135607.202500", "135608.692500", "135610.182500", "135611.672500", "135613.162500", "135614.652500", "135616.142500", "135617.632500", "135619.122500", "135620.612500", "135622.102500", "135623.592500", "135625.082500", "135626.572500", "135628.062500", "135629.552500", "135631.042500", "135632.532500", "135634.022500", "135635.512500", "135637.002500", "135638.492500", "135639.982500", "135641.472500", "135642.962500", "135644.452500", "135645.942500", "135647.432500", "135648.922500", "135650.412500", "135651.902500", "135653.392500", "135654.882500", "135656.372500", "135657.862500", "135659.352500", "135700.842500", "135702.332500", "135703.822500", "135705.312500", "135706.802500", "135708.292500", "135709.782500", "135711.272500", "135712.762500", "135714.252500", "135715.742500", "135717.232500", "135718.722500", "135720.212500", "135721.702500", "135723.192500", "135724.682500", "135726.172500", "135727.662500", "135729.152500", "135730.642500", "135732.132500", "135733.622500", "135735.112500", "135736.602500", "135738.092500", "135739.582500", "135741.072500", "135742.562500", "135744.052500", "135745.542500", "135747.032500", "135748.522500", "135750.012500", "135751.502500", "135752.992500", "135754.482500", "135755.972500", "135757.462500", "135758.952500", "135800.442500", "135801.932500", "135803.422500", "135804.912500", "135806.402500", "135807.892500", "135809.382500", "135810.872500", "135812.362500", "135813.852500", "135815.342500", "135816.832500", "135818.322500", "135819.812500", "135821.302500", "135822.792500", "135824.282500", "135825.772500", "135827.262500", "135828.752500", "135830.242500", "135831.732500", "135833.222500", "135834.712500", "135836.202500", "135837.692500", "135839.182500", "135840.672500", "135842.162500", "135843.652500", "135845.142500", "135846.632500", "135848.122500", "135849.612500", "135851.102500", "135852.592500", "135854.082500", "135855.572500", "135857.062500", "135858.552500", "135900.042500", "135901.532500", "135903.022500", "135904.512500", "135906.002500", "135907.492500", "135908.982500", "135910.472500", "135911.962500", "135913.452500", "135914.942500", "135916.432500", "135917.922500", "135919.412500", "135920.902500", "135922.392500", "135923.882500", "135925.372500", "135926.862500", "135928.352500", "135929.842500", "135931.332500", "135932.822500", "135934.312500", "135935.802500", "135937.292500", "135938.782500", "135940.272500", "135941.762500", "135943.252500", "135944.742500", "135946.232500", "135947.722500", "135949.212500", "135950.702500", "135952.192500", "135953.682500", "135955.172500", "135956.662500", "135958.152500", "135959.642500", "140001.132500", "140002.622500", "140004.112500", "140005.602500", "140007.092500", "140008.582500", "140010.072500", "140011.562500", "140013.052500", "140014.542500", "140016.032500", "140017.522500", "140019.012500", "140020.502500", "140021.992500", "140023.482500", "140024.972500", "140026.462500", "140027.952500", "140029.442500", "140030.932500", "140032.422500", "140033.912500", "140035.402500", "140036.892500", "140038.382500", "140039.872500", "140041.362500", "140042.852500", "140044.342500", "140045.832500", "140047.322500", "140048.812500", "140050.302500", "140051.792500", "140053.282500", "140054.772500", "140056.262500", "140057.752500", "140059.242500", "140100.732500", "140102.222500", "140103.712500", "140105.202500", "140106.692500", "140108.182500", "140109.672500", "140111.162500", "140112.652500", "140114.142500", "140115.632500", "140117.122500", "140118.612500", "140120.102500", "140121.592500", "140123.082500", "140124.572500", "140126.062500", "140127.552500", "140129.042500", "140130.532500", "140132.022500", "140133.512500", "140135.002500", "140136.492500", "140137.982500", "140139.472500", "140140.962500", "140142.452500", "140143.942500", "140145.432500", "140146.922500", "140148.412500", "140149.902500", "140151.392500", "140152.882500", "140154.372500", "140155.862500", "140157.352500", "140158.842500", "140200.332500", "140201.822500", "140203.312500", "140204.802500", "140206.292500", "140207.782500", "140209.272500", "140210.762500", "140212.252500", "140213.742500", "140215.232500", "140216.722500", "140218.212500", "140219.702500", "140221.192500", "140222.682500", "140224.172500", "140225.662500", "140227.152500", "140228.642500", "140230.132500", "140231.622500", "140233.112500", "140234.602500", "140236.092500", "140237.582500", "140239.072500", "140240.562500", "140242.052500", "140243.542500", "140245.032500", "140246.522500", "140248.012500", "140249.502500", "140250.992500", "140252.482500", "140253.972500", "140255.462500", "140256.952500", "140258.442500", "140259.932500", "140301.422500", "140302.912500", "140304.402500", "140305.892500", "140307.382500", "140308.872500", "140310.362500", "140311.852500", "140313.342500", "140314.832500", "140316.322500", "140317.812500", "140319.302500", "140320.792500", "140322.282500", "140323.772500", "140325.262500", "140326.752500", "140328.242500", "140329.732500", "140331.222500", "140332.712500", "140334.202500", "140335.692500", "140337.182500", "140338.672500", "140340.162500", "140341.652500", "140343.142500", "140344.632500", "140346.122500", "140347.612500", "140349.102500", "140350.592500", "140352.082500", "140353.572500", "140355.062500", "140356.552500", "140358.042500", "140359.532500", "140401.022500", "140402.512500", "140404.002500", "140405.492500", "140406.982500", "140408.472500", "140409.962500", "140411.452500", "140412.942500", "140414.432500", "140415.922500", "140417.412500", "140418.902500", "140420.392500", "140421.882500", "140423.372500", "140424.862500", "140426.352500", "140427.842500", "140429.332500", "140430.822500", "140432.312500", "140433.802500", "140435.292500", "140436.782500", "140438.272500", "140439.762500", "140441.252500", "140442.742500", "140444.232500", "140445.722500", "140447.212500", "140448.702500", "140450.192500", "140451.682500", "140453.172500", "140454.662500", "140456.152500", "140457.642500", "140459.132500", "140500.622500", "140502.112500", "140503.602500", "140505.092500", "140506.582500", "140508.072500", "140509.562500", "140511.052500", "140512.542500", "140514.032500", "140515.522500", "140517.012500", "140518.502500", "140519.992500", "140521.482500", "140522.972500", "140524.462500", "140525.952500", "140527.442500", "140528.932500", "140530.422500", "140531.912500", "140533.402500"],
      "ContentTime": ["135530.447000", "135530.461000", "135530.464000", "135530.467000", "135550.418000", "135550.425000", "135550.428000", "135550.430000", "135550.433000", "135550.436000", "135550.439000", "135550.442000", "135550.455000", "135550.458000", "135550.461000", "135550.464000", "135550.466000", "135550.480000", "135550.482000", "135550.485000", "135550.488000", "135550.491000", "135550.497000", "135550.500000", "135610.417000", "135610.420000", "135610.423000", "135610.426000", "135610.429000", "135610.431000", "135610.434000", "135610.437000", "135610.440000", "135610.443000", "135610.446000", "135610.448000", "135610.460000", "135610.463000", "135610.466000", "135610.469000", "135610.472000", "135610.475000", "135610.477000", "135610.480000", "135630.416000", "135630.419000", "135630.422000", "135630.425000", "135630.428000", "135630.430000", "135630.433000", "135630.436000", "135630.439000", "135630.442000", "135630.445000", "135630.447000", "135630.453000", "135630.456000", "135630.459000", "135630.461000", "135630.464000", "135630.467000", "135630.470000", "135630.473000", "135650.416000", "135650.419000", "135650.422000", "135650.425000", "135650.428000", "135650.432000", "135650.435000", "135650.438000", "135650.441000", "135650.444000", "135650.448000", "135650.451000", "135650.454000", "135650.457000", "135650.459000", "135650.462000", "135650.465000", "135650.468000", "135650.471000", "135650.474000", "135710.416000", "135710.419000", "135710.422000", "135710.424000", "135710.428000", "135710.430000", "135710.433000", "135710.436000", "135710.439000", "135710.442000", "135710.445000", "135710.447000", "135710.450000", "135710.453000", "135710.456000", "135710.459000", "135710.462000", "135710.464000", "135710.467000", "135710.470000", "135710.473000", "135750.417000", "135750.420000", "135750.423000", "135750.426000", "135750.429000", "135750.431000", "135750.434000", "135750.437000", "135750.440000", "135750.443000", "135750.445000", "135750.448000", "135750.451000", "135750.454000", "135750.457000", "135750.460000", "135750.463000", "135750.466000", "135750.468000", "135750.471000", "135750.474000", "135750.477000", "135750.480000", "135750.487000", "135750.490000", "135750.493000", "135750.496000", "135750.499000", "135830.417000", "135830.420000", "135830.423000", "135830.426000", "135830.429000", "135830.431000", "135830.434000", "135830.437000", "135830.440000", "135830.443000", "135830.446000", "135830.449000", "135830.452000", "135830.455000", "135830.457000", "135830.460000", "135830.463000", "135830.466000", "135830.469000", "135830.472000", "135830.475000", "135830.477000", "135830.480000", "135830.483000", "135830.486000", "135830.489000", "135910.416000", "135910.419000", "135910.422000", "135910.425000", "135910.428000", "135910.430000", "135910.433000", "135910.436000", "135910.439000", "135910.442000", "135910.445000", "135910.448000", "135910.450000", "135910.453000", "135910.456000", "135910.459000", "135910.462000", "135910.465000", "135910.468000", "135910.470000", "135910.473000", "135910.476000", "135910.479000", "135910.482000", "135910.485000", "135910.487000", "135910.490000", "135950.417000", "135950.421000", "135950.424000", "135950.427000", "135950.430000", "135950.433000", "135950.436000", "135950.438000", "135950.441000", "135950.444000", "135950.447000", "135950.450000", "135950.453000", "135950.456000", "135950.459000", "135950.461000", "135950.464000", "135950.467000", "135950.470000", "135950.473000", "135950.476000", "135950.478000", "135950.481000", "135950.484000", "135950.487000", "135950.490000", "135950.493000", "140030.426000", "140030.429000", "140030.432000", "140030.435000", "140030.438000", "140030.441000", "140030.443000", "140030.446000", "140030.449000", "140030.452000", "140030.455000", "140030.458000", "140030.461000", "140030.464000", "140030.466000", "140030.469000", "140030.472000", "140030.475000", "140030.478000", "140030.481000", "140030.484000", "140030.486000", "140030.489000", "140030.492000", "140030.495000", "140030.498000", "140030.501000", "140110.416000", "140110.419000", "140110.422000", "140110.425000", "140110.428000", "140110.431000", "140110.433000", "140110.436000", "140110.439000", "140110.442000", "140110.445000", "140110.448000", "140110.451000", "140110.453000", "140110.456000", "140110.459000", "140110.462000", "140110.465000", "140110.468000", "140110.471000", "140110.474000", "140110.477000", "140110.479000", "140110.482000", "140110.485000", "140110.488000", "140110.491000", "140150.416000", "140150.419000", "140150.422000", "140150.425000", "140150.428000", "140150.431000", "140150.434000", "140150.436000", "140150.456000", "140150.458000", "140150.461000", "140150.464000", "140150.467000", "140150.470000", "140150.473000", "140150.476000", "140150.479000", "140150.482000", "140150.484000", "140150.487000", "140150.490000", "140150.493000", "140150.496000", "140150.499000", "140150.502000", "140150.504000", "140150.507000", "140230.417000", "140230.420000", "140230.423000", "140230.426000", "140230.428000", "140230.431000", "140230.434000", "140230.437000", "140230.440000", "140230.443000", "140230.446000", "140230.449000", "140230.451000", "140230.454000", "140230.457000", "140230.460000", "140230.463000", "140230.466000", "140230.469000", "140230.471000", "140230.474000", "140230.477000", "140230.480000", "140230.483000", "140230.486000", "140230.488000", "140230.491000", "140310.417000", "140310.420000", "140310.423000", "140310.426000", "140310.429000", "140310.431000", "140310.434000", "140310.437000", "140310.440000", "140310.443000", "140310.446000", "140310.449000", "140310.451000", "140310.454000", "140310.457000", "140310.460000", "140310.463000", "140310.466000", "140310.469000", "140310.472000", "140310.475000", "140310.477000", "140310.480000", "140310.483000", "140310.486000", "140310.489000", "140350.416000", "140350.419000", "140350.422000", "140350.425000", "140350.428000", "140350.431000", "140350.434000", "140350.437000", "140350.439000", "140350.442000", "140350.445000", "140350.448000", "140350.451000", "140350.454000", "140350.457000", "140350.460000", "140350.462000", "140350.465000", "140350.468000", "140350.471000", "140350.474000", "140350.477000", "140350.479000", "140350.482000", "140350.485000", "140350.488000", "140350.491000", "140430.417000", "140430.420000", "140430.423000", "140430.426000", "140430.429000", "140430.431000", "140430.434000", "140430.437000", "140430.440000", "140430.443000", "140430.446000", "140430.449000", "140430.452000", "140430.454000", "140430.457000", "140430.460000", "140430.463000", "140430.466000", "140430.469000", "140430.472000", "140430.475000", "140430.477000", "140430.480000", "140430.483000", "140430.486000", "140430.489000", "140430.492000", "140450.417000", "140450.435000", "140450.437000", "140450.440000", "140450.443000", "140450.446000", "140450.449000", "140450.452000", "140450.454000", "140450.458000", "140450.461000", "140450.463000", "140450.466000", "140530.417000", "140530.420000", "140530.423000", "140530.426000", "140530.429000", "140530.431000", "140530.434000", "140530.437000", "140530.440000", "140530.443000", "140530.446000", "140530.449000", "140530.452000", "140530.455000", "140530.458000", "140530.460000", "140530.463000", "140530.466000", "140530.469000", "140530.472000", "140530.475000", "140530.478000", "140530.480000", "140530.483000", "140530.486000", "140530.489000", "140530.492000", "140535.218000", "140535.221000", "140535.224000", "140535.227000"],
