{
  "AcquisitionMatrixPE": 104,
  "AcquisitionNumber": 1,
  "AcquisitionTime": "13:18:33.665000",
  "BandwidthPerPixelPhaseEncode": 17.17,
  "BaseResolution": 104,
  "BodyPartExamined": "BRAIN",
  "CoilString": "HC1-7;NC1_2",
  "ConsistencyInfo": "N4_VE11C_LATEST_20160120",
  "ConversionSoftware": "dcm2niix",
  "ConversionSoftwareVersion": "v1.0.20190902",
  "DerivedVendorReportedEchoSpacing": 0.000560011,
  "DeviceSerialNumber": "167006",
  "DwellTime": 2.1e-06,
  "EchoTime": 0.037,
  "EchoTrainLength": 104,
  "EffectiveEchoSpacing": 0.000560011,
  "FlipAngle": 52,
  "ImageComments": "Unaliased_MB4_PE3_LB",
  "ImageOrientationPatientDICOM": [0.9982, 0.00328453, -0.0598907, -0.015681, 0.978063, -0.207717],
  "ImageType": [
    "ORIGINAL",
    "PRIMARY",
    "M",
    "MB",
    "ND",
    "MOSAIC"
],
  "ImagingFrequency": 123.259,
  "InPlanePhaseEncodingDirectionDICOM": "COL",
  "InstitutionAddress": "Chemin_Queen-Mary_4565_Montreal_District_CA_H3W_1W5",
  "InstitutionName": "IUGM",
  "InstitutionalDepartmentName": "Department",
  "MRAcquisitionType": "2D",
  "MagneticFieldStrength": 3,
  "Manufacturer": "Siemens",
  "ManufacturersModelName": "Prisma_fit",
  "Modality": "MR",
  "MultibandAccelerationFactor": 4,
  "PartialFourier": 1,
  "PatientPosition": "HFS",
  "PercentPhaseFOV": 100,
  "PhaseEncodingDirection": "j",
  "PhaseEncodingSteps": 104,
  "PhaseResolution": 1,
  "PixelBandwidth": 2290,
  "ProcedureStepDescription": "video_friends",
  "ProtocolName": "func_task-friends-s04e02a",
  "PulseSequenceDetails": "%CustomerSeq%_cmrr_mbep2d_bold",
  "ReceiveCoilActiveElements": "HC1-7;NC1,2",
  "ReceiveCoilName": "HeadNeck_64",
  "ReconMatrixPE": 104,
  "RepetitionTime": 1.49,
  "SAR": 0.0293154,
  "ScanOptions": "FS",
  "ScanningSequence": "EP",
  "SequenceName": "epfid2d1_104",
  "SequenceVariant": "SK_SS",
  "SeriesDescription": "func_task-friends-s04e02a",
  "SeriesNumber": 9,
  "ShimSetting": [609, -7253, -8840, 613, -15, -291, 31, 30],
  "SliceThickness": 2,
  "SliceTiming": [0, 0.785, 0.0975, 0.8825, 0.195, 0.98, 0.295, 1.0775, 0.3925, 1.175, 0.49, 1.275, 0.5875, 1.3725, 0.685, 0, 0.785, 0.0975, 0.8825, 0.195, 0.98, 0.295, 1.0775, 0.3925, 1.175, 0.49, 1.275, 0.5875, 1.3725, 0.685, 0, 0.785, 0.0975, 0.8825, 0.195, 0.98, 0.295, 1.0775, 0.3925, 1.175, 0.49, 1.275, 0.5875, 1.3725, 0.685, 0, 0.785, 0.0975, 0.8825, 0.195, 0.98, 0.295, 1.0775, 0.3925, 1.175, 0.49, 1.275, 0.5875, 1.3725, 0.685],
  "SoftwareVersions": "syngo_MR_E11",
  "SpacingBetweenSlices": 2,
  "StationName": "MRC35049",
  "TaskName": "s04e02a",
  "TotalReadoutTime": 0.0576811,
  "TxRefAmp": 217.235,
  "WipMemBlock": "dd995cf8-4944-43e7-b04f-97734973135b||Sequence: R016 ve11c/master r/e634e98; Dec 19 2017 11:00:25 by eja",
  "dcmmeta_affine": [
    [-1.9963990449905396, -0.031362004578113556, -0.11578921228647232, 104.01973724365234],
    [-0.0065690516494214535, 1.9561265707015991, -0.41656389832496643, -83.33181762695312],
    [-0.11978131532669067, 0.4154335558414459, 1.9527077674865723, -49.704742431640625],
    [0.0, 0.0, 0.0, 1.0]
],
  "dcmmeta_reorient_transform": [
    [0.0, -1.0, 0.0, 103.0],
    [1.0, 0.0, 0.0, 0.0],
    [0.0, 0.0, 1.0, 0.0],
    [0.0, 0.0, 0.0, 1.0]
],
  "dcmmeta_shape": [104, 104, 60, 478],
  "dcmmeta_slice_dim": 2,
  "dcmmeta_version": 0.6,
  "global": {
    "const": {
      "AcquisitionMatrix": [104, 0, 0, 104],
      "AngioFlag": "N",
      "BitsAllocated": 16,
      "BitsStored": 16,
      "BodyPartExamined": "BRAIN",
      "Columns": 832,
      "EchoNumbers": 1,
      "EchoTime": 37.0,
      "EchoTrainLength": 104,
      "FlipAngle": 52.0,
      "HighBit": 15,
      "ImageOrientationPatient": [0.99819953963227, 0.00328452584837, -0.0598906584358, -0.0156810021681, 0.97806331296053, -0.2077167831729],
      "ImagePositionPatient": [-816.06294351208, -832.57045218197, 187.90313363644],
      "ImageType": [
        "ORIGINAL",
        "PRIMARY",
        "M",
        "MB",
        "ND",
        "MOSAIC"
],
      "ImagedNucleus": "1H",
      "ImagingFrequency": 123.259071,
      "InPlanePhaseEncodingDirection": "COL",
      "MRAcquisitionType": "2D",
      "MagneticFieldStrength": 3.0,
      "Manufacturer": "SIEMENS",
      "ManufacturerModelName": "Prisma_fit",
      "Modality": "MR",
      "NumberOfAverages": 1.0,
      "NumberOfPhaseEncodingSteps": 104,
      "PercentPhaseFieldOfView": 100.0,
      "PercentSampling": 100.0,
      "PerformedProcedureStepStartTime": "131554.837000",
      "PhotometricInterpretation": "MONOCHROME2",
      "PixelBandwidth": 2290.0,
      "PixelRepresentation": 0,
      "PixelSpacing": [2.0, 2.0],
      "ProtocolName": "func_task-friends-s04e02a",
      "RepetitionTime": 1490.0,
      "Rows": 832,
      "SAR": 0.02931540771335,
      "SamplesPerPixel": 1,
      "ScanOptions": "FS",
      "ScanningSequence": "EP",
      "SequenceName": "epfid2d1_104",
      "SequenceVariant": [
        "SK",
        "SS"
],
      "SeriesDescription": "func_task-friends-s04e02a",
      "SeriesNumber": 9,
      "SeriesTime": "132010.440000",
      "SliceLocation": -37.195084270996,
      "SliceThickness": 2.0,
      "SmallestImagePixelValue": 0,
      "SoftwareVersions": "syngo MR E11",
      "SpacingBetweenSlices": 2.0000000613623,
      "SpecificCharacterSet": "ISO_IR 100",
      "StudyID": "1",
      "StudyTime": "131554.748000",
      "TransmitCoilName": "Body",
      "VariableFlipAngleFlag": "N",
      "WindowCenterWidthExplanation": "Algo1",
      "dBdt": 0.0},
    "slices": {}
  },
  "time": {
    "samples": {
      "AcquisitionNumber": [1, 2, 3, 4, 5, 6, 7, 8, 9, 10, 11, 12, 13, 14, 15, 16, 17, 18, 19, 20, 21, 22, 23, 24, 25, 26, 27, 28, 29, 30, 31, 32, 33, 34, 35, 36, 37, 38, 39, 40, 41, 42, 43, 44, 45, 46, 47, 48, 49, 50, 51, 52, 53, 54, 55, 56, 57, 58, 59, 60, 61, 62, 63, 64, 65, 66, 67, 68, 69, 70, 71, 72, 73, 74, 75, 76, 77, 78, 79, 80, 81, 82, 83, 84, 85, 86, 87, 88, 89, 90, 91, 92, 93, 94, 95, 96, 97, 98, 99, 100, 101, 102, 103, 104, 105, 106, 107, 108, 109, 110, 111, 112, 113, 114, 115, 116, 117, 118, 119, 120, 121, 122, 123, 124, 125, 126, 127, 128, 129, 130, 131, 132, 133, 134, 135, 136, 137, 138, 139, 140, 141, 142, 143, 144, 145, 146, 147, 148, 149, 150, 151, 152, 153, 154, 155, 156, 157, 158, 159, 160, 161, 162, 163, 164, 165, 166, 167, 168, 169, 170, 171, 172, 173, 174, 175, 176, 177, 178, 179, 180, 181, 182, 183, 184, 185, 186, 187, 188, 189, 190, 191, 192, 193, 194, 195, 196, 197, 198, 199, 200, 201, 202, 203, 204, 205, 206, 207, 208, 209, 210, 211, 212, 213, 214, 215, 216, 217, 218, 219, 220, 221, 222, 223, 224, 225, 226, 227, 228, 229, 230, 231, 232, 233, 234, 235, 236, 237, 238, 239, 240, 241, 242, 243, 244, 245, 246, 247, 248, 249, 250, 251, 252, 253, 254, 255, 256, 257, 258, 259, 260, 261, 262, 263, 264, 265, 266, 267, 268, 269, 270, 271, 272, 273, 274, 275, 276, 277, 278, 279, 280, 281, 282, 283, 284, 285, 286, 287, 288, 289, 290, 291, 292, 293, 294, 295, 296, 297, 298, 299, 300, 301, 302, 303, 304, 305, 306, 307, 308, 309, 310, 311, 312, 313, 314, 315, 316, 317, 318, 319, 320, 321, 322, 323, 324, 325, 326, 327, 328, 329, 330, 331, 332, 333, 334, 335, 336, 337, 338, 339, 340, 341, 342, 343, 344, 345, 346, 347, 348, 349, 350, 351, 352, 353, 354, 355, 356, 357, 358, 359, 360, 361, 362, 363, 364, 365, 366, 367, 368, 369, 370, 371, 372, 373, 374, 375, 376, 377, 378, 379, 380, 381, 382, 383, 384, 385, 386, 387, 388, 389, 390, 391, 392, 393, 394, 395, 396, 397, 398, 399, 400, 401, 402, 403, 404, 405, 406, 407, 408, 409, 410, 411, 412, 413, 414, 415, 416, 417, 418, 419, 420, 421, 422, 423, 424, 425, 426, 427, 428, 429, 430, 431, 432, 433, 434, 435, 436, 437, 438, 439, 440, 441, 442, 443, 444, 445, 446, 447, 448, 449, 450, 451, 452, 453, 454, 455, 456, 457, 458, 459, 460, 461, 462, 463, 464, 465, 466, 467, 468, 469, 470, 471, 472, 473, 474, 475, 476, 477, 478],
      "AcquisitionTime": ["131833.665000", "131835.155000", "131836.645000", "131838.135000", "131839.625000", "131841.115000", "131842.605000", "131844.095000", "131845.585000", "131847.075000", "131848.565000", "131850.055000", "131851.545000", "131853.035000", "131854.525000", "131856.015000", "131857.505000", "131858.995000", "131900.485000", "131901.975000", "131903.465000", "131904.955000", "131906.445000", "131907.935000", "131909.425000", "131910.915000", "131912.405000", "131913.895000", "131915.385000", "131916.875000", "131918.365000", "131919.855000", "131921.345000", "131922.835000", "131924.325000", "131925.815000", "131927.305000", "131928.795000", "131930.285000", "131931.775000", "131933.265000", "131934.755000", "131936.245000", "131937.735000", "131939.225000", "131940.715000", "131942.205000", "131943.695000", "131945.185000", "131946.675000", "131948.165000", "131949.655000", "131951.145000", "131952.635000", "131954.125000", "131955.615000", "131957.105000", "131958.595000", "132000.085000", "132001.575000", "132003.065000", "132004.555000", "132006.045000", "132007.535000", "132009.025000", "132010.515000", "132012.005000", "132013.495000", "132014.985000", "132016.475000", "132017.965000", "132019.455000", "132020.945000", "132022.435000", "132023.925000", "132025.415000", "132026.905000", "132028.395000", "132029.885000", "132031.375000", "132032.865000", "132034.355000", "132035.845000", "132037.335000", "132038.825000", "132040.315000", "132041.805000", "132043.295000", "132044.785000", "132046.275000", "132047.765000", "132049.255000", "132050.745000", "132052.235000", "132053.725000", "132055.215000", "132056.705000", "132058.195000", "132059.685000", "132101.175000", "132102.665000", "132104.155000", "132105.645000", "132107.135000", "132108.625000", "132110.115000", "132111.605000", "132113.095000", "132114.585000", "132116.075000", "132117.565000", "132119.055000", "132120.545000", "132122.035000", "132123.525000", "132125.015000", "132126.505000", "132127.995000", "132129.485000", "132130.975000", "132132.465000", "132133.955000", "132135.445000", "132136.935000", "132138.425000", "132139.915000", "132141.405000", "132142.895000", "132144.385000", "132145.875000", "132147.365000", "132148.855000", "132150.345000", "132151.835000", "132153.325000", "132154.815000", "132156.305000", "132157.795000", "132159.285000", "132200.775000", "132202.265000", "132203.755000", "132205.245000", "132206.735000", "132208.225000", "132209.715000", "132211.205000", "132212.695000", "132214.185000", "132215.675000", "132217.165000", "132218.655000", "132220.145000", "132221.635000", "132223.125000", "132224.615000", "132226.105000", "132227.595000", "132229.085000", "132230.575000", "132232.065000", "132233.555000", "132235.045000", "132236.535000", "132238.025000", "132239.515000", "132241.005000", "132242.495000", "132243.985000", "132245.475000", "132246.965000", "132248.455000", "132249.945000", "132251.435000", "132252.925000", "132254.415000", "132255.905000", "132257.395000", "132258.885000", "132300.375000", "132301.865000", "132303.355000", "132304.845000", "132306.335000", "132307.825000", "132309.315000", "132310.805000", "132312.295000", "132313.785000", "132315.275000", "132316.765000", "132318.255000", "132319.745000", "132321.235000", "132322.725000", "132324.215000", "132325.705000", "132327.195000", "132328.685000", "132330.175000", "132331.665000", "132333.155000", "132334.645000", "132336.135000", "132337.625000", "132339.115000", "132340.605000", "132342.095000", "132343.585000", "132345.075000", "132346.565000", "132348.055000", "132349.545000", "132351.035000", "132352.525000", "132354.015000", "132355.505000", "132356.995000", "132358.485000", "132359.975000", "132401.465000", "132402.955000", "132404.445000", "132405.935000", "132407.425000", "132408.915000", "132410.405000", "132411.895000", "132413.385000", "132414.875000", "132416.365000", "132417.855000", "132419.345000", "132420.835000", "132422.325000", "132423.815000", "132425.305000", "132426.795000", "132428.285000", "132429.775000", "132431.265000", "132432.755000", "132434.245000", "132435.735000", "132437.225000", "132438.715000", "132440.205000", "132441.695000", "132443.185000", "132444.675000", "132446.165000", "132447.655000", "132449.145000", "132450.635000", "132452.125000", "132453.615000", "132455.105000", "132456.595000", "132458.085000", "132459.575000", "132501.065000", "132502.555000", "132504.045000", "132505.535000", "132507.025000", "132508.515000", "132510.005000", "132511.495000", "132512.985000", "132514.475000", "132515.965000", "132517.455000", "132518.945000", "132520.435000", "132521.925000", "132523.415000", "132524.905000", "132526.395000", "132527.885000", "132529.375000", "132530.865000", "132532.355000", "132533.845000", "132535.335000", "132536.825000", "132538.315000", "132539.805000", "132541.295000", "132542.785000", "132544.275000", "132545.765000", "132547.255000", "132548.745000", "132550.235000", "132551.725000", "132553.215000", "132554.705000", "132556.195000", "132557.685000", "132559.175000", "132600.665000", "132602.155000", "132603.645000", "132605.135000", "132606.625000", "132608.115000", "132609.605000", "132611.095000", "132612.585000", "132614.075000", "132615.565000", "132617.055000", "132618.545000", "132620.035000", "132621.525000", "132623.015000", "132624.505000", "132625.995000", "132627.485000", "132628.975000", "132630.465000", "132631.955000", "132633.445000", "132634.935000", "132636.425000", "132637.915000", "132639.405000", "132640.895000", "132642.385000", "132643.875000", "132645.365000", "132646.855000", "132648.345000", "132649.835000", "132651.325000", "132652.815000", "132654.305000", "132655.795000", "132657.285000", "132658.775000", "132700.265000", "132701.755000", "132703.245000", "132704.735000", "132706.225000", "132707.715000", "132709.205000", "132710.695000", "132712.185000", "132713.675000", "132715.165000", "132716.655000", "132718.145000", "132719.635000", "132721.125000", "132722.615000", "132724.105000", "132725.595000", "132727.085000", "132728.575000", "132730.065000", "132731.555000", "132733.045000", "132734.535000", "132736.025000", "132737.515000", "132739.005000", "132740.495000", "132741.985000", "132743.475000", "132744.965000", "132746.455000", "132747.945000", "132749.435000", "132750.925000", "132752.415000", "132753.905000", "132755.395000", "132756.885000", "132758.375000", "132759.865000", "132801.355000", "132802.845000", "132804.335000", "132805.825000", "132807.315000", "132808.805000", "132810.295000", "132811.785000", "132813.275000", "132814.765000", "132816.255000", "132817.745000", "132819.235000", "132820.725000", "132822.215000", "132823.705000", "132825.195000", "132826.685000", "132828.175000", "132829.665000", "132831.155000", "132832.645000", "132834.135000", "132835.625000", "132837.115000", "132838.605000", "132840.095000", "132841.585000", "132843.075000", "132844.565000", "132846.055000", "132847.545000", "132849.035000", "132850.525000", "132852.015000", "132853.505000", "132854.995000", "132856.485000", "132857.975000", "132859.465000", "132900.955000", "132902.445000", "132903.935000", "132905.425000", "132906.915000", "132908.405000", "132909.895000", "132911.385000", "132912.875000", "132914.365000", "132915.855000", "132917.345000", "132918.835000", "132920.325000", "132921.815000", "132923.305000", "132924.795000", "132926.285000", "132927.775000", "132929.265000", "132930.755000", "132932.245000", "132933.735000", "132935.225000", "132936.715000", "132938.205000", "132939.695000", "132941.185000", "132942.675000", "132944.165000", "132945.655000", "132947.145000", "132948.635000", "132950.125000", "132951.615000", "132953.105000", "132954.595000", "132956.085000", "132957.575000", "132959.065000", "133000.555000", "133002.045000", "133003.535000", "133005.025000", "133006.515000", "133008.005000", "133009.495000", "133010.985000", "133012.475000", "133013.965000", "133015.455000", "133016.945000", "133018.435000", "133019.925000", "133021.415000", "133022.905000", "133024.395000"],
      "ContentTime": ["132010.443000", "132010.446000", "132010.449000", "132010.452000", "132010.455000", "132010.458000", "132010.460000", "132010.463000", "132010.473000", "132010.476000", "132010.479000", "132010.482000", "132010.485000", "132010.487000", "132010.490000", "132010.493000", "132010.499000", "132010.502000", "132010.504000", "132010.507000", "132010.510000", "132010.513000", "132010.516000", "132010.519000", "132030.417000", "132030.420000", "132030.423000", "132030.426000", "132030.428000", "132030.431000", "132030.434000", "132030.437000", "132030.441000", "132030.444000", "132030.447000", "132030.459000", "132030.462000", "132030.465000", "132030.468000", "132030.471000", "132030.474000", "132030.477000", "132030.479000", "132030.482000", "132050.417000", "132050.420000", "132050.423000", "132050.426000", "132050.429000", "132050.431000", "132050.434000", "132050.437000", "132050.441000", "132050.444000", "132050.447000", "132050.450000", "132050.453000", "132050.456000", "132050.458000", "132050.461000", "132050.464000", "132050.467000", "132050.470000", "132050.479000", "132110.417000", "132110.420000", "132110.423000", "132110.426000", "132110.428000", "132110.431000", "132110.434000", "132110.437000", "132110.440000", "132110.443000", "132110.446000", "132110.448000", "132110.451000", "132110.454000", "132110.457000", "132110.460000", "132110.464000", "132110.467000", "132110.470000", "132110.473000", "132110.475000", "132130.417000", "132130.420000", "132130.423000", "132130.425000", "132130.428000", "132130.431000", "132130.434000", "132130.437000", "132130.440000", "132130.443000", "132130.445000", "132130.448000", "132130.451000", "132130.454000", "132130.457000", "132130.460000", "132130.463000", "132130.465000", "132130.468000", "132130.471000", "132150.416000", "132150.419000", "132150.422000", "132150.425000", "132150.432000", "132150.435000", "132150.437000", "132150.440000", "132150.443000", "132150.446000", "132150.449000", "132150.452000", "132150.455000", "132150.457000", "132150.460000", "132150.463000", "132150.466000", "132150.477000", "132150.479000", "132150.482000", "132230.416000", "132230.419000", "132230.422000", "132230.425000", "132230.427000", "132230.430000", "132230.433000", "132230.436000", "132230.439000", "132230.442000", "132230.445000", "132230.447000", "132230.450000", "132230.453000", "132230.456000", "132230.459000", "132230.462000", "132230.464000", "132230.467000", "132230.470000", "132230.473000", "132230.476000", "132230.479000", "132230.482000", "132230.484000", "132230.487000", "132230.490000", "132230.493000", "132230.496000", "132230.499000", "132230.502000", "132230.504000", "132230.507000", "132310.417000", "132310.420000", "132310.423000", "132310.426000", "132310.429000", "132310.432000", "132310.438000", "132310.441000", "132310.444000", "132310.447000", "132310.449000", "132310.452000", "132310.455000", "132310.458000", "132310.461000", "132310.464000", "132310.467000", "132310.469000", "132310.472000", "132310.475000", "132310.478000", "132310.481000", "132310.484000", "132310.487000", "132310.489000", "132310.492000", "132310.495000", "132350.417000", "132350.420000", "132350.450000", "132350.453000", "132350.456000", "132350.459000", "132350.462000", "132350.464000", "132350.467000", "132350.470000", "132350.473000", "132350.476000", "132350.479000", "132350.482000", "132350.485000", "132350.487000", "132350.490000", "132350.493000", "132350.496000", "132350.499000", "132350.502000", "132350.505000", "132350.507000", "132350.510000", "132350.513000", "132350.516000", "132430.416000", "132430.419000", "132430.422000", "132430.425000", "132430.428000", "132430.430000", "132430.433000", "132430.436000", "132430.439000", "132430.442000", "132430.445000", "132430.447000", "132430.450000", "132430.453000", "132430.456000", "132430.459000", "132430.462000", "132430.465000", "132430.468000", "132430.470000", "132430.473000", "132430.476000", "132430.479000", "132430.482000", "132430.485000", "132430.488000", "132430.490000", "132450.416000", "132450.419000", "132450.422000", "132450.425000", "132450.428000", "132450.431000", "132450.433000", "132450.436000", "132450.439000", "132450.442000", "132450.445000", "132450.448000", "132450.450000", "132450.453000", "132530.417000", "132530.426000", "132530.429000", "132530.432000", "132530.435000", "132530.438000", "132530.441000", "132530.443000", "132530.446000", "132530.449000", "132530.452000", "132530.455000", "132530.457000", "132530.460000", "132530.463000", "132530.466000", "132530.469000", "132530.472000", "132530.475000", "132530.478000", "132530.480000", "132530.483000", "132530.486000", "132530.489000", "132530.492000", "132530.495000", "132530.498000", "132610.417000", "132610.420000", "132610.423000", "132610.426000", "132610.429000", "132610.431000", "132610.434000", "132610.437000", "132610.440000", "132610.443000", "132610.446000", "132610.449000", "132610.452000", "132610.454000", "132610.459000", "132610.462000", "132610.465000", "132610.468000", "132610.471000", "132610.474000", "132610.477000", "132610.479000", "132610.482000", "132610.485000", "132610.488000", "132610.491000", "132650.416000", "132650.419000", "132650.422000", "132650.425000", "132650.428000", "132650.430000", "132650.433000", "132650.436000", "132650.439000", "132650.442000", "132650.445000", "132650.448000", "132650.450000", "132650.465000", "132650.468000", "132650.471000", "132650.474000", "132650.477000", "132650.480000", "132650.483000", "132650.485000", "132650.488000", "132650.491000", "132650.494000", "132650.497000", "132650.499000", "132650.502000", "132730.417000", "132730.420000", "132730.423000", "132730.426000", "132730.429000", "132730.432000", "132730.435000", "132730.437000", "132730.440000", "132730.443000", "132730.446000", "132730.449000", "132730.452000", "132730.455000", "132730.458000", "132730.460000", "132730.463000", "132730.466000", "132730.469000", "132730.472000", "132730.475000", "132730.478000", "132730.481000", "132730.484000", "132730.487000", "132730.490000", "132730.493000", "132810.417000", "132810.420000", "132810.423000", "132810.426000", "132810.429000", "132810.432000", "132810.434000", "132810.437000", "132810.440000", "132810.443000", "132810.446000", "132810.448000", "132810.451000", "132810.454000", "132810.457000", "132810.460000", "132810.479000", "132810.482000", "132810.485000", "132810.488000", "132810.491000", "132810.493000", "132810.496000", "132810.499000", "132810.502000", "132810.505000", "132810.507000", "132850.416000", "132850.419000", "132850.422000", "132850.425000", "132850.428000", "132850.431000", "132850.434000", "132850.436000", "132850.439000", "132850.442000", "132850.445000", "132850.448000", "132850.451000", "132850.454000", "132850.456000", "132850.459000", "132850.462000", "132850.465000", "132850.468000", "132850.471000", "132850.474000", "132850.476000", "132850.479000", "132850.482000", "132850.485000", "132850.488000", "132850.491000", "132930.416000", "132930.419000", "132930.422000", "132930.425000", "132930.428000", "132930.431000", "132930.434000", "132930.437000", "132930.439000", "132930.442000", "132930.445000", "132930.448000", "132930.451000", "132930.454000", "132930.457000", "132930.459000", "132930.462000", "132930.465000", "132930.468000", "132930.471000", "132930.474000", "132930.476000", "132930.479000", "132930.482000", "132930.485000", "132930.488000", "132930.491000", "133010.417000", "133010.420000", "133010.423000", "133010.426000", "133010.429000", "133010.432000", "133010.435000", "133010.438000", "133010.440000", "133010.443000", "133010.446000", "133010.449000", "133010.452000", "133010.455000", "133010.457000", "133010.461000", "133010.463000", "133010.466000", "133010.469000", "133010.472000", "133010.475000", "133010.478000", "133010.482000", "133010.485000", "133010.488000", "133010.491000", "133026.922000", "133026.932000", "133026.935000", "133026.938000", "133026.941000", "133026.944000", "133026.947000", "133026.950000", "133026.953000", "133026.956000", "133026.959000", "133026.961000"],
