{
  "AcquisitionMatrixPE": 104,
  "AcquisitionNumber": 1,
  "AcquisitionTime": "14:06:38.445000",
  "BandwidthPerPixelPhaseEncode": 17.17,
  "BaseResolution": 104,
  "BodyPartExamined": "BRAIN",
  "CoilString": "HC1-7;NC1_2",
  "ConsistencyInfo": "N4_VE11C_LATEST_20160120",
  "ConversionSoftware": "dcm2niix",
  "ConversionSoftwareVersion": "v1.0.20190902",
  "DerivedVendorReportedEchoSpacing": 0.000560011,
  "DeviceSerialNumber": "167006",
  "DwellTime": 2.1e-06,
  "EchoTime": 0.037,
  "EchoTrainLength": 104,
  "EffectiveEchoSpacing": 0.000560011,
  "FlipAngle": 52,
  "ImageComments": "Unaliased_MB4_PE3_LB",
  "ImageOrientationPatientDICOM": [0.9982, 0.00328453, -0.0598907, -0.015681, 0.978063, -0.207717],
  "ImageType": [
    "ORIGINAL",
    "PRIMARY",
    "M",
    "MB",
    "ND",
    "MOSAIC"
],
  "ImagingFrequency": 123.259,
  "InPlanePhaseEncodingDirectionDICOM": "COL",
  "InstitutionAddress": "Chemin_Queen-Mary_4565_Montreal_District_CA_H3W_1W5",
  "InstitutionName": "IUGM",
  "InstitutionalDepartmentName": "Department",
  "MRAcquisitionType": "2D",
  "MagneticFieldStrength": 3,
  "Manufacturer": "Siemens",
  "ManufacturersModelName": "Prisma_fit",
  "Modality": "MR",
  "MultibandAccelerationFactor": 4,
  "PartialFourier": 1,
  "PatientPosition": "HFS",
  "PercentPhaseFOV": 100,
  "PhaseEncodingDirection": "j",
  "PhaseEncodingSteps": 104,
  "PhaseResolution": 1,
  "PixelBandwidth": 2290,
  "ProcedureStepDescription": "video_friends",
  "ProtocolName": "func_task-friends-s04e04a",
  "PulseSequenceDetails": "%CustomerSeq%_cmrr_mbep2d_bold",
  "ReceiveCoilActiveElements": "HC1-7;NC1,2",
  "ReceiveCoilName": "HeadNeck_64",
  "ReconMatrixPE": 104,
  "RepetitionTime": 1.49,
  "SAR": 0.0293087,
  "ScanOptions": "FS",
  "ScanningSequence": "EP",
  "SequenceName": "epfid2d1_104",
  "SequenceVariant": "SK_SS",
  "SeriesDescription": "func_task-friends-s04e04a",
  "SeriesNumber": 17,
  "ShimSetting": [609, -7253, -8840, 613, -15, -291, 31, 30],
  "SliceThickness": 2,
  "SliceTiming": [0, 0.785, 0.1, 0.8825, 0.1975, 0.98, 0.295, 1.08, 0.3925, 1.1775, 0.49, 1.275, 0.59, 1.3725, 0.6875, 0, 0.785, 0.1, 0.8825, 0.1975, 0.98, 0.295, 1.08, 0.3925, 1.1775, 0.49, 1.275, 0.59, 1.3725, 0.6875, 0, 0.785, 0.1, 0.8825, 0.1975, 0.98, 0.295, 1.08, 0.3925, 1.1775, 0.49, 1.275, 0.59, 1.3725, 0.6875, 0, 0.785, 0.1, 0.8825, 0.1975, 0.98, 0.295, 1.08, 0.3925, 1.1775, 0.49, 1.275, 0.59, 1.3725, 0.6875],
  "SoftwareVersions": "syngo_MR_E11",
  "SpacingBetweenSlices": 2,
  "StationName": "MRC35049",
  "TaskName": "s04e04a",
  "TotalReadoutTime": 0.0576811,
  "TxRefAmp": 217.235,
  "WipMemBlock": "2f3e3d18-eae7-4bb7-bf10-a169b7b72d27||Sequence: R016 ve11c/master r/e634e98; Dec 19 2017 11:00:25 by eja",
  "dcmmeta_affine": [
    [-1.9963990449905396, -0.031362004578113556, -0.11578921228647232, 104.01973724365234],
    [-0.0065690516494214535, 1.9561265707015991, -0.41656389832496643, -83.33181762695312],
    [-0.11978131532669067, 0.4154335558414459, 1.9527077674865723, -49.704742431640625],
    [0.0, 0.0, 0.0, 1.0]
],
  "dcmmeta_reorient_transform": [
    [0.0, -1.0, 0.0, 103.0],
    [1.0, 0.0, 0.0, 0.0],
    [0.0, 0.0, 1.0, 0.0],
    [0.0, 0.0, 0.0, 1.0]
],
  "dcmmeta_shape": [104, 104, 60, 453],
  "dcmmeta_slice_dim": 2,
  "dcmmeta_version": 0.6,
  "global": {
    "const": {
      "AcquisitionMatrix": [104, 0, 0, 104],
      "AngioFlag": "N",
      "BitsAllocated": 16,
      "BitsStored": 16,
      "BodyPartExamined": "BRAIN",
      "Columns": 832,
      "EchoNumbers": 1,
      "EchoTime": 37.0,
      "EchoTrainLength": 104,
      "FlipAngle": 52.0,
      "HighBit": 15,
      "ImageOrientationPatient": [0.99819953963227, 0.00328452584837, -0.0598906584358, -0.0156810021681, 0.97806331296053, -0.2077167831729],
      "ImagePositionPatient": [-816.06294351208, -832.57045218197, 187.90313363644],
      "ImageType": [
        "ORIGINAL",
        "PRIMARY",
        "M",
        "MB",
        "ND",
        "MOSAIC"
],
      "ImagedNucleus": "1H",
      "ImagingFrequency": 123.259089,
      "InPlanePhaseEncodingDirection": "COL",
      "MRAcquisitionType": "2D",
      "MagneticFieldStrength": 3.0,
      "Manufacturer": "SIEMENS",
      "ManufacturerModelName": "Prisma_fit",
      "Modality": "MR",
      "NumberOfAverages": 1.0,
      "NumberOfPhaseEncodingSteps": 104,
      "PercentPhaseFieldOfView": 100.0,
      "PercentSampling": 100.0,
      "PerformedProcedureStepStartTime": "131554.837000",
      "PhotometricInterpretation": "MONOCHROME2",
      "PixelBandwidth": 2290.0,
      "PixelRepresentation": 0,
      "PixelSpacing": [2.0, 2.0],
      "ProtocolName": "func_task-friends-s04e04a",
      "RepetitionTime": 1490.0,
      "Rows": 832,
      "SAR": 0.02930872411214,
      "SamplesPerPixel": 1,
      "ScanOptions": "FS",
      "ScanningSequence": "EP",
      "SequenceName": "epfid2d1_104",
      "SequenceVariant": [
        "SK",
        "SS"
],
      "SeriesDescription": "func_task-friends-s04e04a",
      "SeriesNumber": 17,
      "SeriesTime": "140806.932000",
      "SliceLocation": -37.195084270996,
      "SliceThickness": 2.0,
      "SmallestImagePixelValue": 0,
      "SoftwareVersions": "syngo MR E11",
      "SpacingBetweenSlices": 2.0000000613623,
      "SpecificCharacterSet": "ISO_IR 100",
      "StudyID": "1",
      "StudyTime": "131554.748000",
      "TransmitCoilName": "Body",
      "VariableFlipAngleFlag": "N",
      "WindowCenterWidthExplanation": "Algo1",
      "dBdt": 0.0},
    "slices": {}
  },
  "time": {
    "samples": {
      "AcquisitionNumber": [1, 2, 3, 4, 5, 6, 7, 8, 9, 10, 11, 12, 13, 14, 15, 16, 17, 18, 19, 20, 21, 22, 23, 24, 25, 26, 27, 28, 29, 30, 31, 32, 33, 34, 35, 36, 37, 38, 39, 40, 41, 42, 43, 44, 45, 46, 47, 48, 49, 50, 51, 52, 53, 54, 55, 56, 57, 58, 59, 60, 61, 62, 63, 64, 65, 66, 67, 68, 69, 70, 71, 72, 73, 74, 75, 76, 77, 78, 79, 80, 81, 82, 83, 84, 85, 86, 87, 88, 89, 90, 91, 92, 93, 94, 95, 96, 97, 98, 99, 100, 101, 102, 103, 104, 105, 106, 107, 108, 109, 110, 111, 112, 113, 114, 115, 116, 117, 118, 119, 120, 121, 122, 123, 124, 125, 126, 127, 128, 129, 130, 131, 132, 133, 134, 135, 136, 137, 138, 139, 140, 141, 142, 143, 144, 145, 146, 147, 148, 149, 150, 151, 152, 153, 154, 155, 156, 157, 158, 159, 160, 161, 162, 163, 164, 165, 166, 167, 168, 169, 170, 171, 172, 173, 174, 175, 176, 177, 178, 179, 180, 181, 182, 183, 184, 185, 186, 187, 188, 189, 190, 191, 192, 193, 194, 195, 196, 197, 198, 199, 200, 201, 202, 203, 204, 205, 206, 207, 208, 209, 210, 211, 212, 213, 214, 215, 216, 217, 218, 219, 220, 221, 222, 223, 224, 225, 226, 227, 228, 229, 230, 231, 232, 233, 234, 235, 236, 237, 238, 239, 240, 241, 242, 243, 244, 245, 246, 247, 248, 249, 250, 251, 252, 253, 254, 255, 256, 257, 258, 259, 260, 261, 262, 263, 264, 265, 266, 267, 268, 269, 270, 271, 272, 273, 274, 275, 276, 277, 278, 279, 280, 281, 282, 283, 284, 285, 286, 287, 288, 289, 290, 291, 292, 293, 294, 295, 296, 297, 298, 299, 300, 301, 302, 303, 304, 305, 306, 307, 308, 309, 310, 311, 312, 313, 314, 315, 316, 317, 318, 319, 320, 321, 322, 323, 324, 325, 326, 327, 328, 329, 330, 331, 332, 333, 334, 335, 336, 337, 338, 339, 340, 341, 342, 343, 344, 345, 346, 347, 348, 349, 350, 351, 352, 353, 354, 355, 356, 357, 358, 359, 360, 361, 362, 363, 364, 365, 366, 367, 368, 369, 370, 371, 372, 373, 374, 375, 376, 377, 378, 379, 380, 381, 382, 383, 384, 385, 386, 387, 388, 389, 390, 391, 392, 393, 394, 395, 396, 397, 398, 399, 400, 401, 402, 403, 404, 405, 406, 407, 408, 409, 410, 411, 412, 413, 414, 415, 416, 417, 418, 419, 420, 421, 422, 423, 424, 425, 426, 427, 428, 429, 430, 431, 432, 433, 434, 435, 436, 437, 438, 439, 440, 441, 442, 443, 444, 445, 446, 447, 448, 449, 450, 451, 452, 453],
      "AcquisitionTime": ["140638.445000", "140639.935000", "140641.425000", "140642.915000", "140644.405000", "140645.895000", "140647.385000", "140648.875000", "140650.365000", "140651.855000", "140653.345000", "140654.835000", "140656.325000", "140657.815000", "140659.305000", "140700.795000", "140702.285000", "140703.775000", "140705.265000", "140706.755000", "140708.245000", "140709.735000", "140711.225000", "140712.715000", "140714.205000", "140715.695000", "140717.185000", "140718.675000", "140720.165000", "140721.655000", "140723.145000", "140724.635000", "140726.125000", "140727.615000", "140729.105000", "140730.595000", "140732.085000", "140733.575000", "140735.065000", "140736.555000", "140738.045000", "140739.535000", "140741.025000", "140742.515000", "140744.005000", "140745.495000", "140746.985000", "140748.475000", "140749.965000", "140751.455000", "140752.945000", "140754.435000", "140755.925000", "140757.415000", "140758.905000", "140800.395000", "140801.885000", "140803.375000", "140804.865000", "140806.355000", "140807.845000", "140809.335000", "140810.825000", "140812.315000", "140813.805000", "140815.295000", "140816.785000", "140818.275000", "140819.765000", "140821.255000", "140822.745000", "140824.235000", "140825.725000", "140827.215000", "140828.705000", "140830.195000", "140831.685000", "140833.175000", "140834.665000", "140836.155000", "140837.645000", "140839.135000", "140840.625000", "140842.115000", "140843.605000", "140845.095000", "140846.585000", "140848.075000", "140849.565000", "140851.055000", "140852.545000", "140854.035000", "140855.525000", "140857.015000", "140858.505000", "140859.995000", "140901.485000", "140902.975000", "140904.465000", "140905.955000", "140907.445000", "140908.935000", "140910.425000", "140911.915000", "140913.405000", "140914.895000", "140916.385000", "140917.875000", "140919.365000", "140920.855000", "140922.345000", "140923.835000", "140925.325000", "140926.815000", "140928.305000", "140929.795000", "140931.285000", "140932.775000", "140934.265000", "140935.755000", "140937.245000", "140938.735000", "140940.225000", "140941.715000", "140943.205000", "140944.695000", "140946.185000", "140947.675000", "140949.165000", "140950.655000", "140952.145000", "140953.635000", "140955.125000", "140956.615000", "140958.105000", "140959.595000", "141001.085000", "141002.575000", "141004.065000", "141005.555000", "141007.045000", "141008.535000", "141010.025000", "141011.515000", "141013.005000", "141014.495000", "141015.985000", "141017.475000", "141018.965000", "141020.455000", "141021.945000", "141023.435000", "141024.925000", "141026.415000", "141027.905000", "141029.395000", "141030.885000", "141032.375000", "141033.865000", "141035.355000", "141036.845000", "141038.335000", "141039.825000", "141041.315000", "141042.805000", "141044.295000", "141045.785000", "141047.275000", "141048.765000", "141050.255000", "141051.745000", "141053.235000", "141054.725000", "141056.215000", "141057.705000", "141059.195000", "141100.685000", "141102.175000", "141103.665000", "141105.155000", "141106.645000", "141108.135000", "141109.625000", "141111.115000", "141112.605000", "141114.095000", "141115.585000", "141117.075000", "141118.565000", "141120.055000", "141121.545000", "141123.035000", "141124.525000", "141126.015000", "141127.505000", "141128.995000", "141130.485000", "141131.975000", "141133.465000", "141134.955000", "141136.445000", "141137.935000", "141139.425000", "141140.915000", "141142.405000", "141143.895000", "141145.385000", "141146.875000", "141148.365000", "141149.855000", "141151.345000", "141152.835000", "141154.325000", "141155.815000", "141157.305000", "141158.795000", "141200.285000", "141201.775000", "141203.265000", "141204.755000", "141206.245000", "141207.735000", "141209.225000", "141210.715000", "141212.205000", "141213.695000", "141215.185000", "141216.675000", "141218.165000", "141219.655000", "141221.145000", "141222.635000", "141224.125000", "141225.615000", "141227.105000", "141228.595000", "141230.085000", "141231.575000", "141233.065000", "141234.555000", "141236.045000", "141237.535000", "141239.025000", "141240.515000", "141242.005000", "141243.495000", "141244.985000", "141246.475000", "141247.965000", "141249.455000", "141250.945000", "141252.435000", "141253.925000", "141255.415000", "141256.905000", "141258.395000", "141259.885000", "141301.375000", "141302.865000", "141304.355000", "141305.845000", "141307.335000", "141308.825000", "141310.315000", "141311.805000", "141313.295000", "141314.785000", "141316.275000", "141317.765000", "141319.255000", "141320.745000", "141322.235000", "141323.725000", "141325.215000", "141326.705000", "141328.195000", "141329.685000", "141331.175000", "141332.665000", "141334.155000", "141335.645000", "141337.135000", "141338.625000", "141340.115000", "141341.605000", "141343.095000", "141344.585000", "141346.075000", "141347.565000", "141349.055000", "141350.545000", "141352.035000", "141353.525000", "141355.015000", "141356.505000", "141357.995000", "141359.485000", "141400.975000", "141402.465000", "141403.955000", "141405.445000", "141406.935000", "141408.425000", "141409.915000", "141411.405000", "141412.895000", "141414.385000", "141415.875000", "141417.365000", "141418.855000", "141420.345000", "141421.835000", "141423.325000", "141424.815000", "141426.305000", "141427.795000", "141429.285000", "141430.775000", "141432.265000", "141433.755000", "141435.245000", "141436.735000", "141438.225000", "141439.715000", "141441.205000", "141442.695000", "141444.185000", "141445.675000", "141447.165000", "141448.655000", "141450.145000", "141451.635000", "141453.125000", "141454.615000", "141456.105000", "141457.595000", "141459.085000", "141500.575000", "141502.065000", "141503.555000", "141505.045000", "141506.535000", "141508.025000", "141509.515000", "141511.005000", "141512.495000", "141513.985000", "141515.475000", "141516.965000", "141518.455000", "141519.945000", "141521.435000", "141522.925000", "141524.415000", "141525.905000", "141527.395000", "141528.885000", "141530.375000", "141531.865000", "141533.355000", "141534.845000", "141536.335000", "141537.825000", "141539.315000", "141540.805000", "141542.295000", "141543.785000", "141545.275000", "141546.765000", "141548.255000", "141549.745000", "141551.235000", "141552.725000", "141554.215000", "141555.705000", "141557.195000", "141558.685000", "141600.175000", "141601.665000", "141603.155000", "141604.645000", "141606.135000", "141607.625000", "141609.115000", "141610.605000", "141612.095000", "141613.585000", "141615.075000", "141616.565000", "141618.055000", "141619.545000", "141621.035000", "141622.525000", "141624.015000", "141625.505000", "141626.995000", "141628.485000", "141629.975000", "141631.465000", "141632.955000", "141634.445000", "141635.935000", "141637.425000", "141638.915000", "141640.405000", "141641.895000", "141643.385000", "141644.875000", "141646.365000", "141647.855000", "141649.345000", "141650.835000", "141652.325000", "141653.815000", "141655.305000", "141656.795000", "141658.285000", "141659.775000", "141701.265000", "141702.755000", "141704.245000", "141705.735000", "141707.225000", "141708.715000", "141710.205000", "141711.695000", "141713.185000", "141714.675000", "141716.165000", "141717.655000", "141719.145000", "141720.635000", "141722.125000", "141723.615000", "141725.105000", "141726.595000", "141728.085000", "141729.575000", "141731.065000", "141732.555000", "141734.045000", "141735.535000", "141737.025000", "141738.515000", "141740.005000", "141741.495000", "141742.985000", "141744.475000", "141745.965000", "141747.455000", "141748.945000", "141750.435000", "141751.925000"],
      "ContentTime": ["140806.935000", "140806.938000", "140806.941000", "140806.944000", "140806.947000", "140806.950000", "140806.953000", "140806.955000", "140806.958000", "140806.961000", "140806.964000", "140806.967000", "140806.970000", "140806.986000", "140806.989000", "140806.991000", "140806.994000", "140806.997000", "140807.001000", "140807.004000", "140807.007000", "140807.010000", "140807.012000", "140807.015000", "140807.018000", "140807.021000", "140807.024000", "140807.026000", "140807.049000", "140807.052000", "140807.055000", "140807.057000", "140807.060000", "140807.063000", "140807.066000", "140826.857000", "140826.860000", "140826.863000", "140826.866000", "140826.894000", "140826.897000", "140826.900000", "140826.903000", "140826.906000", "140826.908000", "140826.911000", "140826.922000", "140826.925000", "140826.928000", "140826.931000", "140826.934000", "140826.937000", "140826.940000", "140826.943000", "140826.945000", "140846.857000", "140846.860000", "140846.863000", "140846.865000", "140846.868000", "140846.871000", "140846.874000", "140846.877000", "140846.880000", "140846.883000", "140846.886000", "140846.888000", "140846.891000", "140846.894000", "140846.897000", "140846.900000", "140846.903000", "140846.906000", "140846.909000", "140846.912000", "140906.857000", "140906.860000", "140906.876000", "140906.879000", "140906.882000", "140906.885000", "140906.888000", "140906.891000", "140906.894000", "140906.896000", "140906.899000", "140906.902000", "140906.905000", "140906.908000", "140906.911000", "140906.913000", "140906.916000", "140906.919000", "140906.922000", "140906.925000", "140906.928000", "140946.858000", "140946.861000", "140946.864000", "140946.867000", "140946.870000", "140946.872000", "140946.875000", "140946.878000", "140946.881000", "140946.884000", "140946.886000", "140946.889000", "140946.892000", "140946.895000", "140946.898000", "140946.901000", "140946.903000", "140946.906000", "140946.909000", "140946.912000", "140946.915000", "140946.918000", "140946.921000", "140946.923000", "140946.941000", "140946.944000", "140946.946000", "140946.949000", "140946.952000", "140946.955000", "141026.857000", "141026.860000", "141026.863000", "141026.866000", "141026.869000", "141026.871000", "141026.874000", "141026.877000", "141026.880000", "141026.883000", "141026.885000", "141026.888000", "141026.891000", "141026.894000", "141026.897000", "141026.899000", "141026.902000", "141026.905000", "141026.908000", "141026.911000", "141026.914000", "141026.917000", "141026.919000", "141026.922000", "141026.925000", "141026.928000", "141106.857000", "141106.860000", "141106.863000", "141106.866000", "141106.869000", "141106.872000", "141106.875000", "141106.878000", "141106.881000", "141106.883000", "141106.886000", "141106.889000", "141106.892000", "141106.895000", "141106.898000", "141106.900000", "141106.903000", "141106.906000", "141106.909000", "141106.912000", "141106.915000", "141106.918000", "141106.921000", "141106.924000", "141106.926000", "141106.929000", "141106.932000", "141146.858000", "141146.861000", "141146.864000", "141146.867000", "141146.869000", "141146.872000", "141146.875000", "141146.878000", "141146.881000", "141146.884000", "141146.887000", "141146.889000", "141146.892000", "141146.895000", "141146.898000", "141146.901000", "141146.904000", "141146.906000", "141146.909000", "141146.912000", "141146.915000", "141146.918000", "141146.921000", "141146.924000", "141146.926000", "141146.929000", "141146.932000", "141226.858000", "141226.861000", "141226.864000", "141226.867000", "141226.870000", "141226.872000", "141226.875000", "141226.878000", "141226.881000", "141226.884000", "141226.887000", "141226.889000", "141226.892000", "141226.895000", "141226.898000", "141226.901000", "141226.903000", "141226.906000", "141226.909000", "141226.912000", "141226.915000", "141226.918000", "141226.921000", "141226.924000", "141226.927000", "141226.930000", "141226.933000", "141306.857000", "141306.860000", "141306.863000", "141306.866000", "141306.868000", "141306.871000", "141306.874000", "141306.877000", "141306.880000", "141306.883000", "141306.885000", "141306.888000", "141306.891000", "141306.894000", "141306.897000", "141306.900000", "141306.903000", "141306.905000", "141306.908000", "141306.922000", "141306.925000", "141306.928000", "141306.932000", "141306.935000", "141306.938000", "141306.941000", "141306.944000", "141346.857000", "141346.860000", "141346.863000", "141346.865000", "141346.868000", "141346.871000", "141346.874000", "141346.877000", "141346.879000", "141346.882000", "141346.885000", "141346.888000", "141346.891000", "141346.894000", "141346.896000", "141346.899000", "141346.902000", "141346.905000", "141346.908000", "141346.910000", "141346.913000", "141346.916000", "141346.919000", "141346.922000", "141346.925000", "141346.927000", "141346.930000", "141426.858000", "141426.861000", "141426.864000", "141426.867000", "141426.869000", "141426.872000", "141426.875000", "141426.878000", "141426.881000", "141426.884000", "141426.887000", "141426.890000", "141426.893000", "141426.896000", "141426.898000", "141426.901000", "141426.904000", "141426.907000", "141426.909000", "141426.912000", "141426.915000", "141426.918000", "141426.921000", "141426.924000", "141426.926000", "141426.929000", "141446.858000", "141446.861000", "141446.864000", "141446.867000", "141446.869000", "141446.872000", "141446.875000", "141446.878000", "141446.881000", "141446.884000", "141446.886000", "141446.889000", "141446.892000", "141446.895000", "141526.857000", "141526.860000", "141526.863000", "141526.866000", "141526.868000", "141526.871000", "141526.874000", "141526.877000", "141526.880000", "141526.883000", "141526.885000", "141526.888000", "141526.891000", "141526.894000", "141526.897000", "141526.899000", "141526.902000", "141526.905000", "141526.908000", "141526.911000", "141526.914000", "141526.916000", "141526.919000", "141526.922000", "141526.925000", "141526.928000", "141526.930000", "141606.857000", "141606.860000", "141606.863000", "141606.865000", "141606.868000", "141606.871000", "141606.874000", "141606.877000", "141606.879000", "141606.882000", "141606.885000", "141606.888000", "141606.891000", "141606.893000", "141606.896000", "141606.899000", "141606.902000", "141606.905000", "141606.907000", "141606.910000", "141606.913000", "141606.916000", "141606.919000", "141606.922000", "141606.925000", "141606.927000", "141606.930000", "141646.858000", "141646.861000", "141646.864000", "141646.867000", "141646.869000", "141646.872000", "141646.875000", "141646.879000", "141646.882000", "141646.885000", "141646.888000", "141646.891000", "141646.894000", "141646.896000", "141646.899000", "141646.902000", "141646.905000", "141646.907000", "141646.910000", "141646.913000", "141646.916000", "141646.919000", "141646.922000", "141646.924000", "141646.927000", "141646.939000", "141726.857000", "141726.860000", "141726.863000", "141726.866000", "141726.868000", "141726.871000", "141726.874000", "141726.877000", "141726.880000", "141726.883000", "141726.885000", "141726.888000", "141726.891000", "141726.894000", "141726.897000", "141726.899000", "141726.902000", "141726.905000", "141726.908000", "141726.911000", "141726.913000", "141726.916000", "141726.919000", "141726.922000", "141726.925000", "141726.928000", "141726.930000", "141754.120000", "141754.123000", "141754.126000", "141754.129000", "141754.131000", "141754.134000", "141754.137000", "141754.140000", "141754.143000", "141754.146000", "141754.149000", "141754.152000", "141754.155000", "141754.158000", "141754.161000", "141754.164000", "141754.166000", "141754.169000", "141754.172000"],
