{
  "AcquisitionMatrixPE": 104,
  "AcquisitionNumber": 1,
  "AcquisitionTime": "14:18:15.347500",
  "BandwidthPerPixelPhaseEncode": 17.17,
  "BaseResolution": 104,
  "BodyPartExamined": "BRAIN",
  "CoilString": "HC1-7;NC1_2",
  "ConsistencyInfo": "N4_VE11C_LATEST_20160120",
  "ConversionSoftware": "dcm2niix",
  "ConversionSoftwareVersion": "v1.0.20190902",
  "DerivedVendorReportedEchoSpacing": 0.000560011,
  "DeviceSerialNumber": "167006",
  "DwellTime": 2.1e-06,
  "EchoTime": 0.037,
  "EchoTrainLength": 104,
  "EffectiveEchoSpacing": 0.000560011,
  "FlipAngle": 52,
  "ImageComments": "Unaliased_MB4_PE3_LB",
  "ImageOrientationPatientDICOM": [0.9982, 0.00328453, -0.0598907, -0.015681, 0.978063, -0.207717],
  "ImageType": [
    "ORIGINAL",
    "PRIMARY",
    "M",
    "MB",
    "ND",
    "MOSAIC"
],
  "ImagingFrequency": 123.259,
  "InPlanePhaseEncodingDirectionDICOM": "COL",
  "InstitutionAddress": "Chemin_Queen-Mary_4565_Montreal_District_CA_H3W_1W5",
  "InstitutionName": "IUGM",
  "InstitutionalDepartmentName": "Department",
  "MRAcquisitionType": "2D",
  "MagneticFieldStrength": 3,
  "Manufacturer": "Siemens",
  "ManufacturersModelName": "Prisma_fit",
  "Modality": "MR",
  "MultibandAccelerationFactor": 4,
  "PartialFourier": 1,
  "PatientPosition": "HFS",
  "PercentPhaseFOV": 100,
  "PhaseEncodingDirection": "j",
  "PhaseEncodingSteps": 104,
  "PhaseResolution": 1,
  "PixelBandwidth": 2290,
  "ProcedureStepDescription": "video_friends",
  "ProtocolName": "func_task-friends-s04e04b",
  "PulseSequenceDetails": "%CustomerSeq%_cmrr_mbep2d_bold",
  "ReceiveCoilActiveElements": "HC1-7;NC1,2",
  "ReceiveCoilName": "HeadNeck_64",
  "ReconMatrixPE": 104,
  "RepetitionTime": 1.49,
  "SAR": 0.0293087,
  "ScanOptions": "FS",
  "ScanningSequence": "EP",
  "SequenceName": "epfid2d1_104",
  "SequenceVariant": "SK_SS",
  "SeriesDescription": "func_task-friends-s04e04b",
  "SeriesNumber": 19,
  "ShimSetting": [609, -7253, -8840, 613, -15, -291, 31, 30],
  "SliceThickness": 2,
  "SliceTiming": [0, 0.785, 0.1, 0.8825, 0.1975, 0.98, 0.295, 1.08, 0.3925, 1.1775, 0.49, 1.275, 0.59, 1.3725, 0.6875, 0, 0.785, 0.1, 0.8825, 0.1975, 0.98, 0.295, 1.08, 0.3925, 1.1775, 0.49, 1.275, 0.59, 1.3725, 0.6875, 0, 0.785, 0.1, 0.8825, 0.1975, 0.98, 0.295, 1.08, 0.3925, 1.1775, 0.49, 1.275, 0.59, 1.3725, 0.6875, 0, 0.785, 0.1, 0.8825, 0.1975, 0.98, 0.295, 1.08, 0.3925, 1.1775, 0.49, 1.275, 0.59, 1.3725, 0.6875],
  "SoftwareVersions": "syngo_MR_E11",
  "SpacingBetweenSlices": 2,
  "StationName": "MRC35049",
  "TaskName": "s04e04b",
  "TotalReadoutTime": 0.0576811,
  "TxRefAmp": 217.235,
  "WipMemBlock": "f91a9f2c-ac6b-4c9d-990e-0be25ce03084||Sequence: R016 ve11c/master r/e634e98; Dec 19 2017 11:00:25 by eja",
  "dcmmeta_affine": [
    [-1.9963990449905396, -0.031362004578113556, -0.11578921228647232, 104.01973724365234],
    [-0.0065690516494214535, 1.9561265707015991, -0.41656389832496643, -83.33181762695312],
    [-0.11978131532669067, 0.4154335558414459, 1.9527077674865723, -49.704742431640625],
    [0.0, 0.0, 0.0, 1.0]
],
  "dcmmeta_reorient_transform": [
    [0.0, -1.0, 0.0, 103.0],
    [1.0, 0.0, 0.0, 0.0],
    [0.0, 0.0, 1.0, 0.0],
    [0.0, 0.0, 0.0, 1.0]
],
  "dcmmeta_shape": [104, 104, 60, 453],
  "dcmmeta_slice_dim": 2,
  "dcmmeta_version": 0.6,
  "global": {
    "const": {
      "AcquisitionMatrix": [104, 0, 0, 104],
      "AngioFlag": "N",
      "BitsAllocated": 16,
      "BitsStored": 16,
      "BodyPartExamined": "BRAIN",
      "Columns": 832,
      "EchoNumbers": 1,
      "EchoTime": 37.0,
      "EchoTrainLength": 104,
      "FlipAngle": 52.0,
      "HighBit": 15,
      "ImageOrientationPatient": [0.99819953963227, 0.00328452584837, -0.0598906584358, -0.0156810021681, 0.97806331296053, -0.2077167831729],
      "ImagePositionPatient": [-816.06294351208, -832.57045218197, 187.90313363644],
      "ImageType": [
        "ORIGINAL",
        "PRIMARY",
        "M",
        "MB",
        "ND",
        "MOSAIC"
],
      "ImagedNucleus": "1H",
      "ImagingFrequency": 123.25909,
      "InPlanePhaseEncodingDirection": "COL",
      "MRAcquisitionType": "2D",
      "MagneticFieldStrength": 3.0,
      "Manufacturer": "SIEMENS",
      "ManufacturerModelName": "Prisma_fit",
      "Modality": "MR",
      "NumberOfAverages": 1.0,
      "NumberOfPhaseEncodingSteps": 104,
      "PercentPhaseFieldOfView": 100.0,
      "PercentSampling": 100.0,
      "PerformedProcedureStepStartTime": "131554.837000",
      "PhotometricInterpretation": "MONOCHROME2",
      "PixelBandwidth": 2290.0,
      "PixelRepresentation": 0,
      "PixelSpacing": [2.0, 2.0],
      "ProtocolName": "func_task-friends-s04e04b",
      "RepetitionTime": 1490.0,
      "Rows": 832,
      "SAR": 0.02930872411214,
      "SamplesPerPixel": 1,
      "ScanOptions": "FS",
      "ScanningSequence": "EP",
      "SequenceName": "epfid2d1_104",
      "SequenceVariant": [
        "SK",
        "SS"
],
      "SeriesDescription": "func_task-friends-s04e04b",
      "SeriesNumber": 19,
      "SeriesTime": "141944.273000",
      "SliceLocation": -37.195084270996,
      "SliceThickness": 2.0,
      "SmallestImagePixelValue": 0,
      "SoftwareVersions": "syngo MR E11",
      "SpacingBetweenSlices": 2.0000000613623,
      "SpecificCharacterSet": "ISO_IR 100",
      "StudyID": "1",
      "StudyTime": "131554.748000",
      "TransmitCoilName": "Body",
      "VariableFlipAngleFlag": "N",
      "WindowCenterWidthExplanation": "Algo1",
      "dBdt": 0.0},
    "slices": {}
  },
  "time": {
    "samples": {
      "AcquisitionNumber": [1, 2, 3, 4, 5, 6, 7, 8, 9, 10, 11, 12, 13, 14, 15, 16, 17, 18, 19, 20, 21, 22, 23, 24, 25, 26, 27, 28, 29, 30, 31, 32, 33, 34, 35, 36, 37, 38, 39, 40, 41, 42, 43, 44, 45, 46, 47, 48, 49, 50, 51, 52, 53, 54, 55, 56, 57, 58, 59, 60, 61, 62, 63, 64, 65, 66, 67, 68, 69, 70, 71, 72, 73, 74, 75, 76, 77, 78, 79, 80, 81, 82, 83, 84, 85, 86, 87, 88, 89, 90, 91, 92, 93, 94, 95, 96, 97, 98, 99, 100, 101, 102, 103, 104, 105, 106, 107, 108, 109, 110, 111, 112, 113, 114, 115, 116, 117, 118, 119, 120, 121, 122, 123, 124, 125, 126, 127, 128, 129, 130, 131, 132, 133, 134, 135, 136, 137, 138, 139, 140, 141, 142, 143, 144, 145, 146, 147, 148, 149, 150, 151, 152, 153, 154, 155, 156, 157, 158, 159, 160, 161, 162, 163, 164, 165, 166, 167, 168, 169, 170, 171, 172, 173, 174, 175, 176, 177, 178, 179, 180, 181, 182, 183, 184, 185, 186, 187, 188, 189, 190, 191, 192, 193, 194, 195, 196, 197, 198, 199, 200, 201, 202, 203, 204, 205, 206, 207, 208, 209, 210, 211, 212, 213, 214, 215, 216, 217, 218, 219, 220, 221, 222, 223, 224, 225, 226, 227, 228, 229, 230, 231, 232, 233, 234, 235, 236, 237, 238, 239, 240, 241, 242, 243, 244, 245, 246, 247, 248, 249, 250, 251, 252, 253, 254, 255, 256, 257, 258, 259, 260, 261, 262, 263, 264, 265, 266, 267, 268, 269, 270, 271, 272, 273, 274, 275, 276, 277, 278, 279, 280, 281, 282, 283, 284, 285, 286, 287, 288, 289, 290, 291, 292, 293, 294, 295, 296, 297, 298, 299, 300, 301, 302, 303, 304, 305, 306, 307, 308, 309, 310, 311, 312, 313, 314, 315, 316, 317, 318, 319, 320, 321, 322, 323, 324, 325, 326, 327, 328, 329, 330, 331, 332, 333, 334, 335, 336, 337, 338, 339, 340, 341, 342, 343, 344, 345, 346, 347, 348, 349, 350, 351, 352, 353, 354, 355, 356, 357, 358, 359, 360, 361, 362, 363, 364, 365, 366, 367, 368, 369, 370, 371, 372, 373, 374, 375, 376, 377, 378, 379, 380, 381, 382, 383, 384, 385, 386, 387, 388, 389, 390, 391, 392, 393, 394, 395, 396, 397, 398, 399, 400, 401, 402, 403, 404, 405, 406, 407, 408, 409, 410, 411, 412, 413, 414, 415, 416, 417, 418, 419, 420, 421, 422, 423, 424, 425, 426, 427, 428, 429, 430, 431, 432, 433, 434, 435, 436, 437, 438, 439, 440, 441, 442, 443, 444, 445, 446, 447, 448, 449, 450, 451, 452, 453],
      "AcquisitionTime": ["141815.347500", "141816.837500", "141818.327500", "141819.817500", "141821.307500", "141822.797500", "141824.287500", "141825.777500", "141827.267500", "141828.757500", "141830.247500", "141831.737500", "141833.227500", "141834.717500", "141836.207500", "141837.697500", "141839.187500", "141840.677500", "141842.167500", "141843.657500", "141845.147500", "141846.637500", "141848.127500", "141849.617500", "141851.107500", "141852.597500", "141854.087500", "141855.577500", "141857.067500", "141858.557500", "141900.047500", "141901.537500", "141903.027500", "141904.517500", "141906.007500", "141907.497500", "141908.987500", "141910.477500", "141911.967500", "141913.457500", "141914.947500", "141916.437500", "141917.927500", "141919.417500", "141920.907500", "141922.397500", "141923.887500", "141925.377500", "141926.867500", "141928.357500", "141929.847500", "141931.337500", "141932.827500", "141934.317500", "141935.807500", "141937.297500", "141938.787500", "141940.277500", "141941.767500", "141943.257500", "141944.747500", "141946.237500", "141947.727500", "141949.217500", "141950.707500", "141952.197500", "141953.687500", "141955.177500", "141956.667500", "141958.157500", "141959.647500", "142001.137500", "142002.627500", "142004.117500", "142005.607500", "142007.097500", "142008.587500", "142010.077500", "142011.567500", "142013.057500", "142014.547500", "142016.037500", "142017.527500", "142019.017500", "142020.507500", "142021.997500", "142023.487500", "142024.977500", "142026.467500", "142027.957500", "142029.447500", "142030.937500", "142032.427500", "142033.917500", "142035.407500", "142036.897500", "142038.387500", "142039.877500", "142041.367500", "142042.857500", "142044.347500", "142045.837500", "142047.327500", "142048.817500", "142050.307500", "142051.797500", "142053.287500", "142054.777500", "142056.267500", "142057.757500", "142059.247500", "142100.737500", "142102.227500", "142103.717500", "142105.207500", "142106.697500", "142108.187500", "142109.677500", "142111.167500", "142112.657500", "142114.147500", "142115.637500", "142117.127500", "142118.617500", "142120.107500", "142121.597500", "142123.087500", "142124.577500", "142126.067500", "142127.557500", "142129.047500", "142130.537500", "142132.027500", "142133.517500", "142135.007500", "142136.497500", "142137.987500", "142139.477500", "142140.967500", "142142.457500", "142143.947500", "142145.437500", "142146.927500", "142148.417500", "142149.907500", "142151.397500", "142152.887500", "142154.377500", "142155.867500", "142157.357500", "142158.847500", "142200.337500", "142201.827500", "142203.317500", "142204.807500", "142206.297500", "142207.787500", "142209.277500", "142210.767500", "142212.257500", "142213.747500", "142215.237500", "142216.727500", "142218.217500", "142219.707500", "142221.197500", "142222.687500", "142224.177500", "142225.667500", "142227.157500", "142228.647500", "142230.137500", "142231.627500", "142233.117500", "142234.607500", "142236.097500", "142237.587500", "142239.077500", "142240.567500", "142242.057500", "142243.547500", "142245.037500", "142246.527500", "142248.017500", "142249.507500", "142250.997500", "142252.487500", "142253.977500", "142255.467500", "142256.957500", "142258.447500", "142259.937500", "142301.427500", "142302.917500", "142304.407500", "142305.897500", "142307.387500", "142308.877500", "142310.367500", "142311.857500", "142313.347500", "142314.837500", "142316.327500", "142317.817500", "142319.307500", "142320.797500", "142322.287500", "142323.777500", "142325.267500", "142326.757500", "142328.247500", "142329.737500", "142331.227500", "142332.717500", "142334.207500", "142335.697500", "142337.187500", "142338.677500", "142340.167500", "142341.657500", "142343.147500", "142344.637500", "142346.127500", "142347.617500", "142349.107500", "142350.597500", "142352.087500", "142353.577500", "142355.067500", "142356.557500", "142358.047500", "142359.537500", "142401.027500", "142402.517500", "142404.007500", "142405.497500", "142406.987500", "142408.477500", "142409.967500", "142411.457500", "142412.947500", "142414.437500", "142415.927500", "142417.417500", "142418.907500", "142420.397500", "142421.887500", "142423.377500", "142424.867500", "142426.357500", "142427.847500", "142429.337500", "142430.827500", "142432.317500", "142433.807500", "142435.297500", "142436.787500", "142438.277500", "142439.767500", "142441.257500", "142442.747500", "142444.237500", "142445.727500", "142447.217500", "142448.707500", "142450.197500", "142451.687500", "142453.177500", "142454.667500", "142456.157500", "142457.647500", "142459.137500", "142500.627500", "142502.117500", "142503.607500", "142505.097500", "142506.587500", "142508.077500", "142509.567500", "142511.057500", "142512.547500", "142514.037500", "142515.527500", "142517.017500", "142518.507500", "142519.997500", "142521.487500", "142522.977500", "142524.467500", "142525.957500", "142527.447500", "142528.937500", "142530.427500", "142531.917500", "142533.407500", "142534.897500", "142536.387500", "142537.877500", "142539.367500", "142540.857500", "142542.347500", "142543.837500", "142545.327500", "142546.817500", "142548.307500", "142549.797500", "142551.287500", "142552.777500", "142554.267500", "142555.757500", "142557.247500", "142558.737500", "142600.227500", "142601.717500", "142603.207500", "142604.697500", "142606.187500", "142607.677500", "142609.167500", "142610.657500", "142612.147500", "142613.637500", "142615.127500", "142616.617500", "142618.107500", "142619.597500", "142621.087500", "142622.577500", "142624.067500", "142625.557500", "142627.047500", "142628.537500", "142630.027500", "142631.517500", "142633.007500", "142634.497500", "142635.987500", "142637.477500", "142638.967500", "142640.457500", "142641.947500", "142643.437500", "142644.927500", "142646.417500", "142647.907500", "142649.397500", "142650.887500", "142652.377500", "142653.867500", "142655.357500", "142656.847500", "142658.337500", "142659.827500", "142701.317500", "142702.807500", "142704.297500", "142705.787500", "142707.277500", "142708.767500", "142710.257500", "142711.747500", "142713.237500", "142714.727500", "142716.217500", "142717.707500", "142719.197500", "142720.687500", "142722.177500", "142723.667500", "142725.157500", "142726.647500", "142728.137500", "142729.627500", "142731.117500", "142732.607500", "142734.097500", "142735.587500", "142737.077500", "142738.567500", "142740.057500", "142741.547500", "142743.037500", "142744.527500", "142746.017500", "142747.507500", "142748.997500", "142750.487500", "142751.977500", "142753.467500", "142754.957500", "142756.447500", "142757.937500", "142759.427500", "142800.917500", "142802.407500", "142803.897500", "142805.387500", "142806.877500", "142808.367500", "142809.857500", "142811.347500", "142812.837500", "142814.327500", "142815.817500", "142817.307500", "142818.797500", "142820.287500", "142821.777500", "142823.267500", "142824.757500", "142826.247500", "142827.737500", "142829.227500", "142830.717500", "142832.207500", "142833.697500", "142835.187500", "142836.677500", "142838.167500", "142839.657500", "142841.147500", "142842.637500", "142844.127500", "142845.617500", "142847.107500", "142848.597500", "142850.087500", "142851.577500", "142853.067500", "142854.557500", "142856.047500", "142857.537500", "142859.027500", "142900.517500", "142902.007500", "142903.497500", "142904.987500", "142906.477500", "142907.967500", "142909.457500", "142910.947500", "142912.437500", "142913.927500", "142915.417500", "142916.907500", "142918.397500", "142919.887500", "142921.377500", "142922.867500", "142924.357500", "142925.847500", "142927.337500", "142928.827500"],
      "ContentTime": ["141944.276000", "141944.279000", "141944.283000", "141944.285000", "141944.288000", "141944.291000", "141944.294000", "141944.297000", "141944.299000", "141944.302000", "141944.305000", "141944.308000", "141944.311000", "141944.316000", "141944.319000", "141944.322000", "141944.325000", "141944.327000", "141944.330000", "141944.333000", "141944.336000", "141944.338000", "141944.341000", "141944.344000", "141944.347000", "141944.361000", "141944.364000", "141944.367000", "141944.370000", "141944.373000", "141944.375000", "141944.378000", "141944.381000", "141944.384000", "142004.245000", "142004.248000", "142004.251000", "142004.253000", "142004.256000", "142004.259000", "142004.262000", "142004.265000", "142004.268000", "142004.270000", "142004.273000", "142004.276000", "142004.279000", "142004.281000", "142004.304000", "142004.307000", "142004.310000", "142004.313000", "142004.316000", "142004.318000", "142024.245000", "142024.248000", "142024.251000", "142024.253000", "142024.256000", "142024.259000", "142024.262000", "142024.265000", "142024.267000", "142024.270000", "142024.273000", "142024.276000", "142024.279000", "142024.282000", "142024.284000", "142024.287000", "142024.290000", "142024.293000", "142024.296000", "142024.298000", "142044.245000", "142044.248000", "142044.251000", "142044.253000", "142044.256000", "142044.259000", "142044.262000", "142044.265000", "142044.268000", "142044.270000", "142044.273000", "142044.276000", "142044.279000", "142044.282000", "142044.285000", "142044.287000", "142044.290000", "142044.293000", "142044.296000", "142044.299000", "142124.245000", "142124.248000", "142124.251000", "142124.253000", "142124.256000", "142124.259000", "142124.262000", "142124.265000", "142124.268000", "142124.270000", "142124.273000", "142124.276000", "142124.279000", "142124.282000", "142124.284000", "142124.287000", "142124.290000", "142124.293000", "142124.296000", "142124.298000", "142124.301000", "142124.304000", "142124.307000", "142124.310000", "142124.313000", "142124.315000", "142124.318000", "142124.321000", "142124.324000", "142124.327000", "142124.329000", "142124.332000", "142204.245000", "142204.248000", "142204.251000", "142204.254000", "142204.256000", "142204.259000", "142204.262000", "142204.265000", "142204.268000", "142204.271000", "142204.273000", "142204.276000", "142204.279000", "142204.282000", "142204.285000", "142204.287000", "142204.290000", "142204.293000", "142204.296000", "142204.299000", "142204.302000", "142204.304000", "142204.307000", "142204.310000", "142204.313000", "142204.316000", "142204.319000", "142244.245000", "142244.248000", "142244.251000", "142244.253000", "142244.256000", "142244.259000", "142244.262000", "142244.265000", "142244.268000", "142244.271000", "142244.273000", "142244.276000", "142244.279000", "142244.282000", "142244.285000", "142244.287000", "142244.290000", "142244.293000", "142244.303000", "142244.306000", "142244.309000", "142244.312000", "142244.315000", "142244.317000", "142244.320000", "142244.323000", "142244.326000", "142324.245000", "142324.248000", "142324.251000", "142324.254000", "142324.257000", "142324.260000", "142324.263000", "142324.266000", "142324.268000", "142324.271000", "142324.274000", "142324.277000", "142324.280000", "142324.283000", "142324.286000", "142324.289000", "142324.292000", "142324.295000", "142324.297000", "142324.300000", "142324.303000", "142324.306000", "142324.309000", "142324.312000", "142324.315000", "142324.317000", "142324.320000", "142404.245000", "142404.248000", "142404.251000", "142404.253000", "142404.256000", "142404.259000", "142404.262000", "142404.265000", "142404.268000", "142404.270000", "142404.273000", "142404.276000", "142404.279000", "142404.282000", "142404.285000", "142404.288000", "142404.291000", "142404.294000", "142404.297000", "142404.299000", "142404.302000", "142404.305000", "142404.308000", "142404.311000", "142404.314000", "142404.316000", "142444.245000", "142444.248000", "142444.251000", "142444.254000", "142444.256000", "142444.259000", "142444.262000", "142444.265000", "142444.268000", "142444.271000", "142444.273000", "142444.276000", "142444.279000", "142444.282000", "142444.285000", "142444.287000", "142444.290000", "142444.293000", "142444.296000", "142444.299000", "142444.308000", "142444.311000", "142444.314000", "142444.316000", "142444.319000", "142444.322000", "142444.325000", "142524.245000", "142524.248000", "142524.251000", "142524.254000", "142524.256000", "142524.259000", "142524.262000", "142524.265000", "142524.268000", "142524.271000", "142524.273000", "142524.276000", "142524.279000", "142524.282000", "142524.285000", "142524.288000", "142524.290000", "142524.293000", "142524.296000", "142524.299000", "142524.302000", "142524.305000", "142524.308000", "142524.311000", "142524.313000", "142524.316000", "142524.319000", "142604.245000", "142604.248000", "142604.251000", "142604.254000", "142604.256000", "142604.259000", "142604.262000", "142604.265000", "142604.268000", "142604.271000", "142604.274000", "142604.276000", "142604.279000", "142604.282000", "142604.285000", "142604.288000", "142604.291000", "142604.294000", "142604.297000", "142604.299000", "142604.302000", "142604.305000", "142604.308000", "142604.311000", "142604.314000", "142604.316000", "142604.319000", "142644.245000", "142644.248000", "142644.251000", "142644.253000", "142644.256000", "142644.259000", "142644.262000", "142644.265000", "142644.268000", "142644.271000", "142644.273000", "142644.276000", "142644.279000", "142644.282000", "142644.285000", "142644.288000", "142644.290000", "142644.293000", "142644.296000", "142644.299000", "142644.302000", "142644.305000", "142644.307000", "142644.310000", "142644.313000", "142644.316000", "142644.319000", "142724.245000", "142724.248000", "142724.251000", "142724.254000", "142724.256000", "142724.259000", "142724.262000", "142724.265000", "142724.268000", "142724.271000", "142724.273000", "142724.276000", "142724.279000", "142724.282000", "142724.285000", "142724.288000", "142724.291000", "142724.293000", "142724.296000", "142724.299000", "142724.302000", "142724.305000", "142724.308000", "142724.310000", "142724.313000", "142724.316000", "142724.319000", "142804.244000", "142804.247000", "142804.250000", "142804.253000", "142804.255000", "142804.258000", "142804.261000", "142804.264000", "142804.267000", "142804.270000", "142804.272000", "142804.275000", "142804.278000", "142804.281000", "142804.284000", "142804.286000", "142804.289000", "142804.292000", "142804.295000", "142804.298000", "142804.306000", "142804.309000", "142804.312000", "142804.315000", "142804.318000", "142804.320000", "142844.245000", "142844.248000", "142844.251000", "142844.254000", "142844.256000", "142844.259000", "142844.262000", "142844.265000", "142844.268000", "142844.271000", "142844.273000", "142844.276000", "142844.279000", "142844.282000", "142844.284000", "142844.287000", "142844.290000", "142844.293000", "142844.296000", "142844.298000", "142844.301000", "142844.304000", "142844.307000", "142844.310000", "142844.313000", "142844.316000", "142844.318000", "142924.245000", "142924.248000", "142924.251000", "142924.254000", "142924.256000", "142924.259000", "142924.262000", "142924.265000", "142924.268000", "142924.271000", "142924.274000", "142924.276000", "142924.279000", "142924.282000", "142924.285000", "142924.288000", "142924.290000", "142924.293000", "142924.296000", "142924.299000", "142924.302000", "142924.305000", "142924.308000", "142924.310000", "142924.313000", "142924.316000", "142924.319000", "142930.782000", "142930.785000", "142930.788000", "142930.791000", "142930.794000"],
