{
  "AcquisitionMatrixPE": 104,
  "AcquisitionNumber": 1,
  "AcquisitionTime": "14:29:8.985000",
  "BandwidthPerPixelPhaseEncode": 17.17,
  "BaseResolution": 104,
  "BodyPartExamined": "BRAIN",
  "CoilString": "HC1-7;NC1_2",
  "ConsistencyInfo": "N4_VE11C_LATEST_20160120",
  "ConversionSoftware": "dcm2niix",
  "ConversionSoftwareVersion": "v1.0.20190902",
  "DerivedVendorReportedEchoSpacing": 0.000560011,
  "DeviceSerialNumber": "167006",
  "DwellTime": 2.1e-06,
  "EchoTime": 0.037,
  "EchoTrainLength": 104,
  "EffectiveEchoSpacing": 0.000560011,
  "FlipAngle": 52,
  "ImageComments": "Unaliased_MB4_PE3_LB",
  "ImageOrientationPatientDICOM": [0.999701, 0.0212098, 0.0121723, -0.0113417, 0.843117, -0.537611],
  "ImageType": [
    "ORIGINAL",
    "PRIMARY",
    "M",
    "MB",
    "ND",
    "MOSAIC"
],
  "ImagingFrequency": 123.259,
  "InPlanePhaseEncodingDirectionDICOM": "COL",
  "InstitutionAddress": "Chemin_Queen-Mary_4565_Montreal_District_CA_H3W_1W5",
  "InstitutionName": "IUGM",
  "InstitutionalDepartmentName": "Department",
  "MRAcquisitionType": "2D",
  "MagneticFieldStrength": 3,
  "Manufacturer": "Siemens",
  "ManufacturersModelName": "Prisma_fit",
  "Modality": "MR",
  "MultibandAccelerationFactor": 4,
  "PartialFourier": 1,
  "PatientPosition": "HFS",
  "PercentPhaseFOV": 100,
  "PhaseEncodingDirection": "j",
  "PhaseEncodingSteps": 104,
  "PhaseResolution": 1,
  "PixelBandwidth": 2290,
  "ProcedureStepDescription": "video_friends",
  "ProtocolName": "func_task-friends-s05e13b",
  "PulseSequenceDetails": "%CustomerSeq%_cmrr_mbep2d_bold",
  "ReceiveCoilActiveElements": "HC1-7;NC1,2",
  "ReceiveCoilName": "HeadNeck_64",
  "ReconMatrixPE": 104,
  "RepetitionTime": 1.49,
  "SAR": 0.0363921,
  "ScanOptions": "FS",
  "ScanningSequence": "EP",
  "SequenceName": "epfid2d1_104",
  "SequenceVariant": "SK_SS",
  "SeriesDescription": "func_task-friends-s05e13b",
  "SeriesNumber": 15,
  "ShimSetting": [631, -7194, -8868, 380, -8, -175, -15, -6],
  "SliceThickness": 2,
  "SliceTiming": [0, 0.7825, 0.0975, 0.8825, 0.195, 0.98, 0.2925, 1.0775, 0.3925, 1.175, 0.49, 1.2725, 0.5875, 1.3725, 0.685, 0, 0.7825, 0.0975, 0.8825, 0.195, 0.98, 0.2925, 1.0775, 0.3925, 1.175, 0.49, 1.2725, 0.5875, 1.3725, 0.685, 0, 0.7825, 0.0975, 0.8825, 0.195, 0.98, 0.2925, 1.0775, 0.3925, 1.175, 0.49, 1.2725, 0.5875, 1.3725, 0.685, 0, 0.7825, 0.0975, 0.8825, 0.195, 0.98, 0.2925, 1.0775, 0.3925, 1.175, 0.49, 1.2725, 0.5875, 1.3725, 0.685],
  "SoftwareVersions": "syngo_MR_E11",
  "SpacingBetweenSlices": 2,
  "StationName": "MRC35049",
  "TaskName": "s05e13b",
  "TotalReadoutTime": 0.0576811,
  "TxRefAmp": 250.686,
  "WipMemBlock": "67dc7cb3-9ec2-4c20-9aa7-0fe5146be091||Sequence: R016 ve11c/master r/e634e98; Dec 19 2017 11:00:25 by eja",
  "dcmmeta_affine": [
    [-1.9994019269943237, -0.02268346957862377, 0.04333052411675453, 103.92559051513672],
    [-0.04241952300071716, 1.6862330436706543, -1.0746248960494995, -54.32284927368164],
    [0.024344569072127342, 1.0752226114273071, 1.6862099170684814, -100.18424987792969],
    [0.0, 0.0, 0.0, 1.0]
],
  "dcmmeta_reorient_transform": [
    [0.0, -1.0, 0.0, 103.0],
    [1.0, 0.0, 0.0, 0.0],
    [0.0, 0.0, 1.0, 0.0],
    [0.0, 0.0, 0.0, 1.0]
],
  "dcmmeta_shape": [104, 104, 60, 494],
  "dcmmeta_slice_dim": 2,
  "dcmmeta_version": 0.6,
  "global": {
    "const": {
      "AcquisitionMatrix": [104, 0, 0, 104],
      "AngioFlag": "N",
      "BitsAllocated": 16,
      "BitsStored": 16,
      "BodyPartExamined": "BRAIN",
      "Columns": 832,
      "EchoNumbers": 1,
      "EchoTime": 37.0,
      "EchoTrainLength": 104,
      "FlipAngle": 52.0,
      "HighBit": 15,
      "ImageOrientationPatient": [0.99970094602201, 0.02120976198188, 0.0121722848872, -0.011341735019, 0.84311652724376, -0.5376112782812],
      "ImagePositionPatient": [-821.11470185903, -748.58869565819, 393.08325703021],
      "ImageType": [
        "ORIGINAL",
        "PRIMARY",
        "M",
        "MB",
        "ND",
        "MOSAIC"
],
      "ImagedNucleus": "1H",
      "ImagingFrequency": 123.258997,
      "InPlanePhaseEncodingDirection": "COL",
      "MRAcquisitionType": "2D",
      "MagneticFieldStrength": 3.0,
      "Manufacturer": "SIEMENS",
      "ManufacturerModelName": "Prisma_fit",
      "Modality": "MR",
      "NumberOfAverages": 1.0,
      "NumberOfPhaseEncodingSteps": 104,
      "PercentPhaseFieldOfView": 100.0,
      "PercentSampling": 100.0,
      "PerformedProcedureStepStartTime": "132321.032000",
      "PhotometricInterpretation": "MONOCHROME2",
      "PixelBandwidth": 2290.0,
      "PixelRepresentation": 0,
      "PixelSpacing": [2.0, 2.0],
      "ProtocolName": "func_task-friends-s05e13b",
      "RepetitionTime": 1490.0,
      "Rows": 832,
      "SAR": 0.03639209892762,
      "SamplesPerPixel": 1,
      "ScanOptions": "FS",
      "ScanningSequence": "EP",
      "SequenceName": "epfid2d1_104",
      "SequenceVariant": [
        "SK",
        "SS"
],
      "SeriesDescription": "func_task-friends-s05e13b",
      "SeriesNumber": 15,
      "SeriesTime": "143028.043000",
      "SliceLocation": -53.025922155204,
      "SliceThickness": 2.0,
      "SmallestImagePixelValue": 0,
      "SoftwareVersions": "syngo MR E11",
      "SpacingBetweenSlices": 2.0000000367448,
      "SpecificCharacterSet": "ISO_IR 100",
      "StudyID": "1",
      "StudyTime": "132320.885000",
      "TransmitCoilName": "Body",
      "VariableFlipAngleFlag": "N",
      "WindowCenterWidthExplanation": "Algo1",
      "dBdt": 0.0},
    "slices": {}
  },
  "time": {
    "samples": {
      "AcquisitionNumber": [1, 2, 3, 4, 5, 6, 7, 8, 9, 10, 11, 12, 13, 14, 15, 16, 17, 18, 19, 20, 21, 22, 23, 24, 25, 26, 27, 28, 29, 30, 31, 32, 33, 34, 35, 36, 37, 38, 39, 40, 41, 42, 43, 44, 45, 46, 47, 48, 49, 50, 51, 52, 53, 54, 55, 56, 57, 58, 59, 60, 61, 62, 63, 64, 65, 66, 67, 68, 69, 70, 71, 72, 73, 74, 75, 76, 77, 78, 79, 80, 81, 82, 83, 84, 85, 86, 87, 88, 89, 90, 91, 92, 93, 94, 95, 96, 97, 98, 99, 100, 101, 102, 103, 104, 105, 106, 107, 108, 109, 110, 111, 112, 113, 114, 115, 116, 117, 118, 119, 120, 121, 122, 123, 124, 125, 126, 127, 128, 129, 130, 131, 132, 133, 134, 135, 136, 137, 138, 139, 140, 141, 142, 143, 144, 145, 146, 147, 148, 149, 150, 151, 152, 153, 154, 155, 156, 157, 158, 159, 160, 161, 162, 163, 164, 165, 166, 167, 168, 169, 170, 171, 172, 173, 174, 175, 176, 177, 178, 179, 180, 181, 182, 183, 184, 185, 186, 187, 188, 189, 190, 191, 192, 193, 194, 195, 196, 197, 198, 199, 200, 201, 202, 203, 204, 205, 206, 207, 208, 209, 210, 211, 212, 213, 214, 215, 216, 217, 218, 219, 220, 221, 222, 223, 224, 225, 226, 227, 228, 229, 230, 231, 232, 233, 234, 235, 236, 237, 238, 239, 240, 241, 242, 243, 244, 245, 246, 247, 248, 249, 250, 251, 252, 253, 254, 255, 256, 257, 258, 259, 260, 261, 262, 263, 264, 265, 266, 267, 268, 269, 270, 271, 272, 273, 274, 275, 276, 277, 278, 279, 280, 281, 282, 283, 284, 285, 286, 287, 288, 289, 290, 291, 292, 293, 294, 295, 296, 297, 298, 299, 300, 301, 302, 303, 304, 305, 306, 307, 308, 309, 310, 311, 312, 313, 314, 315, 316, 317, 318, 319, 320, 321, 322, 323, 324, 325, 326, 327, 328, 329, 330, 331, 332, 333, 334, 335, 336, 337, 338, 339, 340, 341, 342, 343, 344, 345, 346, 347, 348, 349, 350, 351, 352, 353, 354, 355, 356, 357, 358, 359, 360, 361, 362, 363, 364, 365, 366, 367, 368, 369, 370, 371, 372, 373, 374, 375, 376, 377, 378, 379, 380, 381, 382, 383, 384, 385, 386, 387, 388, 389, 390, 391, 392, 393, 394, 395, 396, 397, 398, 399, 400, 401, 402, 403, 404, 405, 406, 407, 408, 409, 410, 411, 412, 413, 414, 415, 416, 417, 418, 419, 420, 421, 422, 423, 424, 425, 426, 427, 428, 429, 430, 431, 432, 433, 434, 435, 436, 437, 438, 439, 440, 441, 442, 443, 444, 445, 446, 447, 448, 449, 450, 451, 452, 453, 454, 455, 456, 457, 458, 459, 460, 461, 462, 463, 464, 465, 466, 467, 468, 469, 470, 471, 472, 473, 474, 475, 476, 477, 478, 479, 480, 481, 482, 483, 484, 485, 486, 487, 488, 489, 490, 491, 492, 493, 494],
      "AcquisitionTime": ["142908.985000", "142910.475000", "142911.965000", "142913.455000", "142914.945000", "142916.435000", "142917.925000", "142919.415000", "142920.905000", "142922.395000", "142923.885000", "142925.375000", "142926.865000", "142928.355000", "142929.845000", "142931.335000", "142932.825000", "142934.315000", "142935.805000", "142937.295000", "142938.785000", "142940.275000", "142941.765000", "142943.255000", "142944.745000", "142946.235000", "142947.725000", "142949.215000", "142950.705000", "142952.195000", "142953.685000", "142955.175000", "142956.665000", "142958.155000", "142959.645000", "143001.135000", "143002.625000", "143004.115000", "143005.605000", "143007.095000", "143008.585000", "143010.075000", "143011.565000", "143013.055000", "143014.545000", "143016.035000", "143017.525000", "143019.015000", "143020.505000", "143021.995000", "143023.485000", "143024.975000", "143026.465000", "143027.955000", "143029.445000", "143030.935000", "143032.425000", "143033.915000", "143035.405000", "143036.895000", "143038.385000", "143039.875000", "143041.365000", "143042.855000", "143044.345000", "143045.835000", "143047.325000", "143048.815000", "143050.305000", "143051.795000", "143053.285000", "143054.775000", "143056.265000", "143057.755000", "143059.245000", "143100.735000", "143102.225000", "143103.715000", "143105.205000", "143106.695000", "143108.185000", "143109.675000", "143111.165000", "143112.655000", "143114.145000", "143115.635000", "143117.125000", "143118.615000", "143120.105000", "143121.595000", "143123.085000", "143124.575000", "143126.065000", "143127.555000", "143129.045000", "143130.535000", "143132.025000", "143133.515000", "143135.005000", "143136.495000", "143137.985000", "143139.475000", "143140.965000", "143142.455000", "143143.945000", "143145.435000", "143146.925000", "143148.415000", "143149.905000", "143151.395000", "143152.885000", "143154.375000", "143155.865000", "143157.355000", "143158.845000", "143200.335000", "143201.825000", "143203.315000", "143204.805000", "143206.295000", "143207.785000", "143209.275000", "143210.765000", "143212.255000", "143213.745000", "143215.235000", "143216.725000", "143218.215000", "143219.705000", "143221.195000", "143222.685000", "143224.175000", "143225.665000", "143227.155000", "143228.645000", "143230.135000", "143231.625000", "143233.115000", "143234.605000", "143236.095000", "143237.585000", "143239.075000", "143240.565000", "143242.055000", "143243.545000", "143245.035000", "143246.525000", "143248.015000", "143249.505000", "143250.995000", "143252.485000", "143253.975000", "143255.465000", "143256.955000", "143258.445000", "143259.935000", "143301.425000", "143302.915000", "143304.405000", "143305.895000", "143307.385000", "143308.875000", "143310.365000", "143311.855000", "143313.345000", "143314.835000", "143316.325000", "143317.815000", "143319.305000", "143320.795000", "143322.285000", "143323.775000", "143325.265000", "143326.755000", "143328.245000", "143329.735000", "143331.225000", "143332.715000", "143334.205000", "143335.695000", "143337.185000", "143338.675000", "143340.165000", "143341.655000", "143343.145000", "143344.635000", "143346.125000", "143347.615000", "143349.105000", "143350.595000", "143352.085000", "143353.575000", "143355.065000", "143356.555000", "143358.045000", "143359.535000", "143401.025000", "143402.515000", "143404.005000", "143405.495000", "143406.985000", "143408.475000", "143409.965000", "143411.455000", "143412.945000", "143414.435000", "143415.925000", "143417.415000", "143418.905000", "143420.395000", "143421.885000", "143423.375000", "143424.865000", "143426.355000", "143427.845000", "143429.335000", "143430.825000", "143432.315000", "143433.805000", "143435.295000", "143436.785000", "143438.275000", "143439.765000", "143441.255000", "143442.745000", "143444.235000", "143445.725000", "143447.215000", "143448.705000", "143450.195000", "143451.685000", "143453.175000", "143454.665000", "143456.155000", "143457.645000", "143459.135000", "143500.625000", "143502.115000", "143503.605000", "143505.095000", "143506.585000", "143508.075000", "143509.565000", "143511.055000", "143512.545000", "143514.035000", "143515.525000", "143517.015000", "143518.505000", "143519.995000", "143521.485000", "143522.975000", "143524.465000", "143525.955000", "143527.445000", "143528.935000", "143530.425000", "143531.915000", "143533.405000", "143534.895000", "143536.385000", "143537.875000", "143539.365000", "143540.855000", "143542.345000", "143543.835000", "143545.325000", "143546.815000", "143548.305000", "143549.795000", "143551.285000", "143552.775000", "143554.265000", "143555.755000", "143557.245000", "143558.735000", "143600.225000", "143601.715000", "143603.205000", "143604.695000", "143606.185000", "143607.675000", "143609.165000", "143610.655000", "143612.145000", "143613.635000", "143615.125000", "143616.615000", "143618.105000", "143619.595000", "143621.085000", "143622.575000", "143624.065000", "143625.555000", "143627.045000", "143628.535000", "143630.025000", "143631.515000", "143633.005000", "143634.495000", "143635.985000", "143637.475000", "143638.965000", "143640.455000", "143641.945000", "143643.435000", "143644.925000", "143646.415000", "143647.905000", "143649.395000", "143650.885000", "143652.375000", "143653.865000", "143655.355000", "143656.845000", "143658.335000", "143659.825000", "143701.315000", "143702.805000", "143704.295000", "143705.785000", "143707.275000", "143708.765000", "143710.255000", "143711.745000", "143713.235000", "143714.725000", "143716.215000", "143717.705000", "143719.195000", "143720.685000", "143722.175000", "143723.665000", "143725.155000", "143726.645000", "143728.135000", "143729.625000", "143731.115000", "143732.605000", "143734.095000", "143735.585000", "143737.075000", "143738.565000", "143740.055000", "143741.545000", "143743.035000", "143744.525000", "143746.015000", "143747.505000", "143748.995000", "143750.485000", "143751.975000", "143753.465000", "143754.955000", "143756.445000", "143757.935000", "143759.425000", "143800.915000", "143802.405000", "143803.895000", "143805.385000", "143806.875000", "143808.365000", "143809.855000", "143811.345000", "143812.835000", "143814.325000", "143815.815000", "143817.305000", "143818.795000", "143820.285000", "143821.775000", "143823.265000", "143824.755000", "143826.245000", "143827.735000", "143829.225000", "143830.715000", "143832.205000", "143833.695000", "143835.185000", "143836.675000", "143838.165000", "143839.655000", "143841.145000", "143842.635000", "143844.125000", "143845.615000", "143847.105000", "143848.595000", "143850.085000", "143851.575000", "143853.065000", "143854.555000", "143856.045000", "143857.535000", "143859.025000", "143900.515000", "143902.005000", "143903.495000", "143904.985000", "143906.475000", "143907.965000", "143909.455000", "143910.945000", "143912.435000", "143913.925000", "143915.415000", "143916.905000", "143918.395000", "143919.885000", "143921.375000", "143922.865000", "143924.355000", "143925.845000", "143927.335000", "143928.825000", "143930.315000", "143931.805000", "143933.295000", "143934.785000", "143936.275000", "143937.765000", "143939.255000", "143940.745000", "143942.235000", "143943.725000", "143945.215000", "143946.705000", "143948.195000", "143949.685000", "143951.175000", "143952.665000", "143954.155000", "143955.645000", "143957.135000", "143958.625000", "144000.115000", "144001.605000", "144003.095000", "144004.585000", "144006.075000", "144007.565000", "144009.055000", "144010.545000", "144012.035000", "144013.525000", "144015.015000", "144016.505000", "144017.995000", "144019.485000", "144020.975000", "144022.465000", "144023.955000", "144025.445000", "144026.935000", "144028.425000", "144029.915000", "144031.405000", "144032.895000", "144034.385000", "144035.875000", "144037.365000", "144038.855000", "144040.345000", "144041.835000", "144043.325000", "144044.815000", "144046.305000", "144047.795000", "144049.285000", "144050.775000", "144052.265000", "144053.755000", "144055.245000", "144056.735000", "144058.225000", "144059.715000", "144101.205000", "144102.695000", "144104.185000", "144105.675000", "144107.165000", "144108.655000", "144110.145000", "144111.635000", "144113.125000", "144114.615000", "144116.105000", "144117.595000", "144119.085000", "144120.575000", "144122.065000", "144123.555000"],
      "ContentTime": ["143028.046000", "143028.049000", "143028.052000", "143028.061000", "143028.064000", "143028.067000", "143028.070000", "143028.073000", "143028.075000", "143028.078000", "143028.081000", "143028.091000", "143028.094000", "143028.097000", "143028.100000", "143028.103000", "143028.105000", "143028.108000", "143028.111000", "143028.114000", "143028.117000", "143028.119000", "143028.122000", "143028.125000", "143028.128000", "143028.131000", "143048.016000", "143048.019000", "143048.022000", "143048.025000", "143048.027000", "143048.030000", "143048.033000", "143048.036000", "143048.039000", "143048.042000", "143048.044000", "143048.047000", "143048.050000", "143048.053000", "143048.056000", "143048.063000", "143048.066000", "143048.069000", "143048.072000", "143048.075000", "143108.015000", "143108.018000", "143108.021000", "143108.023000", "143108.026000", "143108.029000", "143108.032000", "143108.035000", "143108.038000", "143108.040000", "143108.043000", "143108.046000", "143108.049000", "143108.059000", "143108.062000", "143108.065000", "143108.068000", "143108.071000", "143108.073000", "143108.076000", "143128.016000", "143128.019000", "143128.022000", "143128.024000", "143128.027000", "143128.030000", "143128.033000", "143128.036000", "143128.039000", "143128.041000", "143128.044000", "143128.047000", "143128.050000", "143128.053000", "143128.056000", "143128.059000", "143128.061000", "143128.064000", "143128.067000", "143128.070000", "143128.073000", "143208.016000", "143208.019000", "143208.022000", "143208.026000", "143208.029000", "143208.038000", "143208.041000", "143208.045000", "143208.048000", "143208.050000", "143208.053000", "143208.056000", "143208.059000", "143208.062000", "143208.066000", "143208.068000", "143208.082000", "143208.085000", "143208.088000", "143208.091000", "143208.094000", "143208.097000", "143208.100000", "143208.103000", "143208.105000", "143208.108000", "143208.111000", "143208.114000", "143208.117000", "143208.120000", "143208.123000", "143208.125000", "143208.128000", "143248.016000", "143248.019000", "143248.022000", "143248.024000", "143248.027000", "143248.030000", "143248.033000", "143248.036000", "143248.039000", "143248.041000", "143248.044000", "143248.047000", "143248.050000", "143248.053000", "143248.056000", "143248.058000", "143248.061000", "143248.064000", "143248.067000", "143248.070000", "143248.073000", "143248.075000", "143248.078000", "143248.081000", "143248.084000", "143248.087000", "143328.015000", "143328.018000", "143328.021000", "143328.024000", "143328.030000", "143328.033000", "143328.036000", "143328.039000", "143328.042000", "143328.044000", "143328.047000", "143328.050000", "143328.053000", "143328.056000", "143328.059000", "143328.061000", "143328.064000", "143328.067000", "143328.070000", "143328.073000", "143328.075000", "143328.078000", "143328.081000", "143328.084000", "143328.087000", "143328.090000", "143328.092000", "143408.016000", "143408.019000", "143408.022000", "143408.025000", "143408.027000", "143408.030000", "143408.033000", "143408.036000", "143408.039000", "143408.042000", "143408.044000", "143408.047000", "143408.050000", "143408.053000", "143408.056000", "143408.059000", "143408.061000", "143408.064000", "143408.067000", "143408.070000", "143408.073000", "143408.076000", "143408.078000", "143408.081000", "143408.084000", "143408.087000", "143408.090000", "143448.016000", "143448.019000", "143448.022000", "143448.025000", "143448.028000", "143448.030000", "143448.033000", "143448.036000", "143448.039000", "143448.042000", "143448.045000", "143448.047000", "143448.050000", "143448.053000", "143448.056000", "143448.059000", "143448.070000", "143448.073000", "143448.076000", "143448.079000", "143448.082000", "143448.084000", "143448.087000", "143448.090000", "143448.093000", "143448.096000", "143448.099000", "143528.016000", "143528.019000", "143528.022000", "143528.025000", "143528.028000", "143528.031000", "143528.034000", "143528.037000", "143528.040000", "143528.043000", "143528.046000", "143528.049000", "143528.051000", "143528.054000", "143528.057000", "143528.060000", "143528.063000", "143528.066000", "143528.069000", "143528.072000", "143528.074000", "143528.077000", "143528.080000", "143528.083000", "143528.086000", "143528.089000", "143528.092000", "143608.016000", "143608.019000", "143608.022000", "143608.025000", "143608.034000", "143608.037000", "143608.040000", "143608.042000", "143608.045000", "143608.048000", "143608.051000", "143608.054000", "143608.057000", "143608.060000", "143608.063000", "143608.066000", "143608.068000", "143608.071000", "143608.074000", "143608.077000", "143608.080000", "143608.083000", "143608.085000", "143608.088000", "143608.091000", "143608.094000", "143608.097000", "143648.016000", "143648.019000", "143648.022000", "143648.025000", "143648.027000", "143648.030000", "143648.033000", "143648.036000", "143648.039000", "143648.042000", "143648.045000", "143648.048000", "143648.051000", "143648.066000", "143648.069000", "143648.072000", "143648.074000", "143648.077000", "143648.080000", "143648.083000", "143648.086000", "143648.089000", "143648.091000", "143648.094000", "143648.098000", "143648.101000", "143728.016000", "143728.019000", "143728.022000", "143728.025000", "143728.028000", "143728.030000", "143728.033000", "143728.036000", "143728.039000", "143728.042000", "143728.045000", "143728.047000", "143728.050000", "143728.053000", "143728.056000", "143728.059000", "143728.062000", "143728.065000", "143728.068000", "143728.071000", "143728.073000", "143728.076000", "143728.079000", "143728.082000", "143728.085000", "143728.088000", "143728.091000", "143808.015000", "143808.018000", "143808.021000", "143808.024000", "143808.027000", "143808.029000", "143808.032000", "143808.035000", "143808.038000", "143808.041000", "143808.044000", "143808.046000", "143808.049000", "143808.052000", "143808.055000", "143808.058000", "143808.061000", "143808.064000", "143808.066000", "143808.069000", "143808.072000", "143808.075000", "143808.078000", "143808.081000", "143808.083000", "143808.086000", "143808.089000", "143848.016000", "143848.019000", "143848.022000", "143848.025000", "143848.027000", "143848.030000", "143848.033000", "143848.036000", "143848.039000", "143848.042000", "143848.044000", "143848.047000", "143848.050000", "143848.053000", "143848.056000", "143848.059000", "143848.061000", "143848.064000", "143848.067000", "143848.070000", "143848.073000", "143848.076000", "143848.078000", "143848.081000", "143848.084000", "143848.087000", "143848.090000", "143928.016000", "143928.019000", "143928.022000", "143928.025000", "143928.027000", "143928.030000", "143928.033000", "143928.036000", "143928.039000", "143928.042000", "143928.045000", "143928.047000", "143928.050000", "143928.053000", "143928.056000", "143928.059000", "143928.062000", "143928.064000", "143928.067000", "143928.070000", "143928.073000", "143928.076000", "143928.079000", "143928.082000", "143928.084000", "143928.087000", "143928.090000", "144008.015000", "144008.018000", "144008.021000", "144008.024000", "144008.027000", "144008.029000", "144008.032000", "144008.035000", "144008.038000", "144008.041000", "144008.044000", "144008.046000", "144008.049000", "144008.052000", "144008.055000", "144008.058000", "144008.061000", "144008.063000", "144008.066000", "144008.069000", "144008.072000", "144008.075000", "144008.078000", "144008.080000", "144008.083000", "144008.086000", "144008.089000", "144048.016000", "144048.019000", "144048.022000", "144048.025000", "144048.028000", "144048.031000", "144048.033000", "144048.036000", "144048.039000", "144048.042000", "144048.045000", "144048.047000", "144048.050000", "144048.053000", "144048.056000", "144048.059000", "144048.062000", "144048.065000", "144048.068000", "144048.071000", "144048.073000", "144048.076000", "144048.079000", "144048.082000", "144048.085000", "144048.088000", "144048.090000", "144125.312000", "144125.315000", "144125.318000", "144125.321000", "144125.324000", "144125.327000", "144125.330000", "144125.333000", "144125.336000", "144125.339000", "144125.342000", "144125.345000", "144125.348000", "144125.351000", "144125.354000", "144125.357000", "144125.360000", "144125.363000", "144125.366000", "144125.369000", "144125.372000", "144125.375000", "144125.377000", "144125.380000", "144125.383000"],
