{
  "AcquisitionMatrixPE": 104,
  "AcquisitionNumber": 1,
  "AcquisitionTime": "10:33:6.940000",
  "BandwidthPerPixelPhaseEncode": 17.17,
  "BaseResolution": 104,
  "BodyPartExamined": "BRAIN",
  "CoilString": "HC1-7;NC1_2",
  "ConsistencyInfo": "N4_VE11C_LATEST_20160120",
  "ConversionSoftware": "dcm2niix",
  "ConversionSoftwareVersion": "v1.0.20190720  (JP2:OpenJPEG) GCC7.3.0",
  "DerivedVendorReportedEchoSpacing": 0.000560011,
  "DeviceSerialNumber": "167006",
  "DwellTime": 2.1e-06,
  "EchoTime": 0.037,
  "EchoTrainLength": 104,
  "EffectiveEchoSpacing": 0.000560011,
  "FlipAngle": 52,
  "ImageComments": "Unaliased_MB4_PE3_LB",
  "ImageOrientationPatientDICOM": [0.999628, -0.0271562, -0.00255976, 0.0247795, 0.943336, -0.330913],
  "ImageType": [
    "ORIGINAL",
    "PRIMARY",
    "M",
    "MB",
    "ND",
    "MOSAIC"
],
  "ImagingFrequency": 123.259,
  "InPlanePhaseEncodingDirectionDICOM": "COL",
  "InstitutionAddress": "Chemin_Queen-Mary_4565_Montreal_District_CA_H3W_1W5",
  "InstitutionName": "IUGM",
  "InstitutionalDepartmentName": "Department",
  "MRAcquisitionType": "2D",
  "MagneticFieldStrength": 3,
  "Manufacturer": "Siemens",
  "ManufacturersModelName": "Prisma_fit",
  "Modality": "MR",
  "MultibandAccelerationFactor": 4,
  "PartialFourier": 1,
  "PatientPosition": "HFS",
  "PercentPhaseFOV": 100,
  "PhaseEncodingDirection": "j",
  "PhaseEncodingSteps": 104,
  "PhaseResolution": 1,
  "PixelBandwidth": 2290,
  "ProcedureStepDescription": "video_friends",
  "ProtocolName": "func_task-s01e13a",
  "PulseSequenceDetails": "%CustomerSeq%_cmrr_mbep2d_bold",
  "ReceiveCoilActiveElements": "HC1-7;NC1,2",
  "ReceiveCoilName": "HeadNeck_64",
  "ReconMatrixPE": 104,
  "RepetitionTime": 1.49,
  "SAR": 0.031299,
  "ScanOptions": "FS",
  "ScanningSequence": "EP",
  "SequenceName": "epfid2d1_104",
  "SequenceVariant": "SK_SS",
  "SeriesDescription": "func_task-s01e13a",
  "SeriesNumber": 9,
  "ShimSetting": [620, -7199, -8837, 680, 4, 54, 5, -18],
  "SliceThickness": 2,
  "SliceTiming": [0, 0.7825, 0.0975, 0.88, 0.195, 0.98, 0.2925, 1.0775, 0.39, 1.175, 0.49, 1.2725, 0.5875, 1.37, 0.685, 0, 0.7825, 0.0975, 0.88, 0.195, 0.98, 0.2925, 1.0775, 0.39, 1.175, 0.49, 1.2725, 0.5875, 1.37, 0.685, 0, 0.7825, 0.0975, 0.88, 0.195, 0.98, 0.2925, 1.0775, 0.39, 1.175, 0.49, 1.2725, 0.5875, 1.37, 0.685, 0, 0.7825, 0.0975, 0.88, 0.195, 0.98, 0.2925, 1.0775, 0.39, 1.175, 0.49, 1.2725, 0.5875, 1.37, 0.685],
  "SoftwareVersions": "syngo_MR_E11",
  "SpacingBetweenSlices": 2,
  "StationName": "MRC35049",
  "TaskName": "friends",
  "TotalReadoutTime": 0.0576811,
  "TxRefAmp": 212.192,
  "WipMemBlock": "2805721f-cf57-4c99-b91b-0d0ddad3349c||Sequence: R016 ve11c/master r/e634e98; Dec 19 2017 11:00:25 by eja",
  "dcmmeta_affine": [
    [-1.999255895614624, 0.049559079110622406, -0.022802084684371948, 101.83788299560547],
    [0.054312318563461304, 1.886671543121338, -0.6614534258842468, -80.43726348876953],
    [-0.005119511857628822, 0.661826491355896, 1.8873153924942017, -75.87649536132812],
    [0.0, 0.0, 0.0, 1.0]
],
  "dcmmeta_reorient_transform": [
    [0.0, -1.0, 0.0, 103.0],
    [1.0, 0.0, 0.0, 0.0],
    [0.0, 0.0, 1.0, 0.0],
    [0.0, 0.0, 0.0, 1.0]
],
  "dcmmeta_shape": [104, 104, 60, 468],
  "dcmmeta_slice_dim": 2,
  "dcmmeta_version": 0.6,
  "global": {
    "const": {
      "AcquisitionMatrix": [104, 0, 0, 104],
      "AngioFlag": "N",
      "BitsAllocated": 16,
      "BitsStored": 16,
      "BodyPartExamined": "BRAIN",
      "Columns": 832,
      "EchoNumbers": 1,
      "EchoTime": 37.0,
      "EchoTrainLength": 104,
      "FlipAngle": 52.0,
      "HighBit": 15,
      "ImageOrientationPatient": [0.99962792611009, -0.0271561593431, -0.0025597559615, 0.02477953931442, 0.94333577737771, -0.3309132598591],
      "ImagePositionPatient": [-852.71110017738, -780.86866953026, 235.05999227795],
      "ImageType": [
        "ORIGINAL",
        "PRIMARY",
        "M",
        "MB",
        "ND",
        "MOSAIC"
],
      "ImagedNucleus": "1H",
      "ImagingFrequency": 123.259173,
      "InPlanePhaseEncodingDirection": "COL",
      "MRAcquisitionType": "2D",
      "MagneticFieldStrength": 3.0,
      "Manufacturer": "SIEMENS",
      "ManufacturerModelName": "Prisma_fit",
      "Modality": "MR",
      "NumberOfAverages": 1.0,
      "NumberOfPhaseEncodingSteps": 104,
      "PercentPhaseFieldOfView": 100.0,
      "PercentSampling": 100.0,
      "PerformedProcedureStepStartTime": "102824.790000",
      "PhotometricInterpretation": "MONOCHROME2",
      "PixelBandwidth": 2290.0,
      "PixelRepresentation": 0,
      "PixelSpacing": [2.0, 2.0],
      "ProtocolName": "func_task-s01e13a",
      "RepetitionTime": 1490.0,
      "Rows": 832,
      "SAR": 0.03129900923788,
      "SamplesPerPixel": 1,
      "ScanOptions": "FS",
      "ScanningSequence": "EP",
      "SequenceName": "epfid2d1_104",
      "SequenceVariant": [
        "SK",
        "SS"
],
      "SeriesDescription": "func_task-s01e13a",
      "SeriesNumber": 9,
      "SeriesTime": "103422.649000",
      "SliceLocation": -46.159745956815,
      "SliceThickness": 2.0,
      "SmallestImagePixelValue": 0,
      "SoftwareVersions": "syngo MR E11",
      "SpacingBetweenSlices": 1.9999999861373,
      "SpecificCharacterSet": "ISO_IR 100",
      "StudyID": "1",
      "StudyTime": "102824.724000",
      "TransmitCoilName": "Body",
      "VariableFlipAngleFlag": "N",
      "WindowCenterWidthExplanation": "Algo1",
      "dBdt": 0.0},
    "slices": {}
  },
  "time": {
    "samples": {
      "AcquisitionNumber": [1, 2, 3, 4, 5, 6, 7, 8, 9, 10, 11, 12, 13, 14, 15, 16, 17, 18, 19, 20, 21, 22, 23, 24, 25, 26, 27, 28, 29, 30, 31, 32, 33, 34, 35, 36, 37, 38, 39, 40, 41, 42, 43, 44, 45, 46, 47, 48, 49, 50, 51, 52, 53, 54, 55, 56, 57, 58, 59, 60, 61, 62, 63, 64, 65, 66, 67, 68, 69, 70, 71, 72, 73, 74, 75, 76, 77, 78, 79, 80, 81, 82, 83, 84, 85, 86, 87, 88, 89, 90, 91, 92, 93, 94, 95, 96, 97, 98, 99, 100, 101, 102, 103, 104, 105, 106, 107, 108, 109, 110, 111, 112, 113, 114, 115, 116, 117, 118, 119, 120, 121, 122, 123, 124, 125, 126, 127, 128, 129, 130, 131, 132, 133, 134, 135, 136, 137, 138, 139, 140, 141, 142, 143, 144, 145, 146, 147, 148, 149, 150, 151, 152, 153, 154, 155, 156, 157, 158, 159, 160, 161, 162, 163, 164, 165, 166, 167, 168, 169, 170, 171, 172, 173, 174, 175, 176, 177, 178, 179, 180, 181, 182, 183, 184, 185, 186, 187, 188, 189, 190, 191, 192, 193, 194, 195, 196, 197, 198, 199, 200, 201, 202, 203, 204, 205, 206, 207, 208, 209, 210, 211, 212, 213, 214, 215, 216, 217, 218, 219, 220, 221, 222, 223, 224, 225, 226, 227, 228, 229, 230, 231, 232, 233, 234, 235, 236, 237, 238, 239, 240, 241, 242, 243, 244, 245, 246, 247, 248, 249, 250, 251, 252, 253, 254, 255, 256, 257, 258, 259, 260, 261, 262, 263, 264, 265, 266, 267, 268, 269, 270, 271, 272, 273, 274, 275, 276, 277, 278, 279, 280, 281, 282, 283, 284, 285, 286, 287, 288, 289, 290, 291, 292, 293, 294, 295, 296, 297, 298, 299, 300, 301, 302, 303, 304, 305, 306, 307, 308, 309, 310, 311, 312, 313, 314, 315, 316, 317, 318, 319, 320, 321, 322, 323, 324, 325, 326, 327, 328, 329, 330, 331, 332, 333, 334, 335, 336, 337, 338, 339, 340, 341, 342, 343, 344, 345, 346, 347, 348, 349, 350, 351, 352, 353, 354, 355, 356, 357, 358, 359, 360, 361, 362, 363, 364, 365, 366, 367, 368, 369, 370, 371, 372, 373, 374, 375, 376, 377, 378, 379, 380, 381, 382, 383, 384, 385, 386, 387, 388, 389, 390, 391, 392, 393, 394, 395, 396, 397, 398, 399, 400, 401, 402, 403, 404, 405, 406, 407, 408, 409, 410, 411, 412, 413, 414, 415, 416, 417, 418, 419, 420, 421, 422, 423, 424, 425, 426, 427, 428, 429, 430, 431, 432, 433, 434, 435, 436, 437, 438, 439, 440, 441, 442, 443, 444, 445, 446, 447, 448, 449, 450, 451, 452, 453, 454, 455, 456, 457, 458, 459, 460, 461, 462, 463, 464, 465, 466, 467, 468],
      "AcquisitionTime": ["103306.940000", "103308.430000", "103309.920000", "103311.410000", "103312.900000", "103314.390000", "103315.880000", "103317.370000", "103318.860000", "103320.350000", "103321.840000", "103323.330000", "103324.820000", "103326.310000", "103327.800000", "103329.290000", "103330.780000", "103332.270000", "103333.760000", "103335.250000", "103336.740000", "103338.230000", "103339.720000", "103341.210000", "103342.700000", "103344.190000", "103345.680000", "103347.170000", "103348.660000", "103350.150000", "103351.640000", "103353.130000", "103354.620000", "103356.110000", "103357.600000", "103359.090000", "103400.580000", "103402.070000", "103403.560000", "103405.050000", "103406.540000", "103408.030000", "103409.520000", "103411.010000", "103412.500000", "103413.990000", "103415.480000", "103416.970000", "103418.460000", "103419.950000", "103421.440000", "103422.930000", "103424.420000", "103425.910000", "103427.400000", "103428.890000", "103430.380000", "103431.870000", "103433.360000", "103434.850000", "103436.340000", "103437.830000", "103439.320000", "103440.810000", "103442.300000", "103443.790000", "103445.280000", "103446.770000", "103448.260000", "103449.750000", "103451.240000", "103452.730000", "103454.220000", "103455.710000", "103457.200000", "103458.690000", "103500.180000", "103501.670000", "103503.160000", "103504.650000", "103506.140000", "103507.630000", "103509.120000", "103510.610000", "103512.100000", "103513.590000", "103515.080000", "103516.570000", "103518.060000", "103519.550000", "103521.040000", "103522.530000", "103524.020000", "103525.510000", "103527.000000", "103528.490000", "103529.980000", "103531.470000", "103532.960000", "103534.450000", "103535.940000", "103537.430000", "103538.920000", "103540.410000", "103541.900000", "103543.390000", "103544.880000", "103546.370000", "103547.860000", "103549.350000", "103550.840000", "103552.330000", "103553.820000", "103555.310000", "103556.800000", "103558.290000", "103559.780000", "103601.270000", "103602.760000", "103604.250000", "103605.740000", "103607.230000", "103608.720000", "103610.210000", "103611.700000", "103613.190000", "103614.680000", "103616.170000", "103617.660000", "103619.150000", "103620.640000", "103622.130000", "103623.620000", "103625.110000", "103626.600000", "103628.090000", "103629.580000", "103631.070000", "103632.560000", "103634.050000", "103635.540000", "103637.030000", "103638.520000", "103640.010000", "103641.500000", "103642.990000", "103644.480000", "103645.970000", "103647.460000", "103648.950000", "103650.440000", "103651.930000", "103653.420000", "103654.910000", "103656.400000", "103657.890000", "103659.380000", "103700.870000", "103702.360000", "103703.850000", "103705.340000", "103706.830000", "103708.320000", "103709.810000", "103711.300000", "103712.790000", "103714.280000", "103715.770000", "103717.260000", "103718.750000", "103720.240000", "103721.730000", "103723.220000", "103724.710000", "103726.200000", "103727.690000", "103729.180000", "103730.670000", "103732.160000", "103733.650000", "103735.140000", "103736.630000", "103738.120000", "103739.610000", "103741.100000", "103742.590000", "103744.080000", "103745.570000", "103747.060000", "103748.550000", "103750.040000", "103751.530000", "103753.020000", "103754.510000", "103756.000000", "103757.490000", "103758.980000", "103800.470000", "103801.960000", "103803.450000", "103804.940000", "103806.430000", "103807.920000", "103809.410000", "103810.900000", "103812.390000", "103813.880000", "103815.370000", "103816.860000", "103818.350000", "103819.840000", "103821.330000", "103822.820000", "103824.310000", "103825.800000", "103827.290000", "103828.780000", "103830.270000", "103831.760000", "103833.250000", "103834.740000", "103836.230000", "103837.720000", "103839.210000", "103840.700000", "103842.190000", "103843.680000", "103845.170000", "103846.660000", "103848.150000", "103849.640000", "103851.130000", "103852.620000", "103854.110000", "103855.600000", "103857.090000", "103858.580000", "103900.070000", "103901.560000", "103903.050000", "103904.540000", "103906.030000", "103907.520000", "103909.010000", "103910.500000", "103911.990000", "103913.480000", "103914.970000", "103916.460000", "103917.950000", "103919.440000", "103920.930000", "103922.420000", "103923.910000", "103925.400000", "103926.890000", "103928.380000", "103929.870000", "103931.360000", "103932.850000", "103934.340000", "103935.830000", "103937.320000", "103938.810000", "103940.300000", "103941.790000", "103943.280000", "103944.770000", "103946.260000", "103947.750000", "103949.240000", "103950.730000", "103952.220000", "103953.710000", "103955.200000", "103956.690000", "103958.180000", "103959.670000", "104001.160000", "104002.650000", "104004.140000", "104005.630000", "104007.120000", "104008.610000", "104010.100000", "104011.590000", "104013.080000", "104014.570000", "104016.060000", "104017.550000", "104019.040000", "104020.530000", "104022.020000", "104023.510000", "104025.000000", "104026.490000", "104027.980000", "104029.470000", "104030.960000", "104032.450000", "104033.940000", "104035.430000", "104036.920000", "104038.410000", "104039.900000", "104041.390000", "104042.880000", "104044.370000", "104045.860000", "104047.350000", "104048.840000", "104050.330000", "104051.820000", "104053.310000", "104054.800000", "104056.290000", "104057.780000", "104059.270000", "104100.760000", "104102.250000", "104103.740000", "104105.230000", "104106.720000", "104108.210000", "104109.700000", "104111.190000", "104112.680000", "104114.170000", "104115.660000", "104117.150000", "104118.640000", "104120.130000", "104121.620000", "104123.110000", "104124.600000", "104126.090000", "104127.580000", "104129.070000", "104130.560000", "104132.050000", "104133.540000", "104135.030000", "104136.520000", "104138.010000", "104139.500000", "104140.990000", "104142.480000", "104143.970000", "104145.460000", "104146.950000", "104148.440000", "104149.930000", "104151.420000", "104152.910000", "104154.400000", "104155.890000", "104157.380000", "104158.870000", "104200.360000", "104201.850000", "104203.340000", "104204.830000", "104206.320000", "104207.810000", "104209.300000", "104210.790000", "104212.280000", "104213.770000", "104215.260000", "104216.750000", "104218.240000", "104219.730000", "104221.220000", "104222.710000", "104224.200000", "104225.690000", "104227.180000", "104228.670000", "104230.160000", "104231.650000", "104233.140000", "104234.630000", "104236.120000", "104237.610000", "104239.100000", "104240.590000", "104242.080000", "104243.570000", "104245.060000", "104246.550000", "104248.040000", "104249.530000", "104251.020000", "104252.510000", "104254.000000", "104255.490000", "104256.980000", "104258.470000", "104259.960000", "104301.450000", "104302.940000", "104304.430000", "104305.920000", "104307.410000", "104308.900000", "104310.390000", "104311.880000", "104313.370000", "104314.860000", "104316.350000", "104317.840000", "104319.330000", "104320.820000", "104322.310000", "104323.800000", "104325.290000", "104326.780000", "104328.270000", "104329.760000", "104331.250000", "104332.740000", "104334.230000", "104335.720000", "104337.210000", "104338.700000", "104340.190000", "104341.680000", "104343.170000", "104344.660000", "104346.150000", "104347.640000", "104349.130000", "104350.620000", "104352.110000", "104353.600000", "104355.090000", "104356.580000", "104358.070000", "104359.560000", "104401.050000", "104402.540000", "104404.030000", "104405.520000", "104407.010000", "104408.500000", "104409.990000", "104411.480000", "104412.970000", "104414.460000", "104415.950000", "104417.440000", "104418.930000", "104420.420000", "104421.910000", "104423.400000", "104424.890000", "104426.380000", "104427.870000", "104429.360000", "104430.850000", "104432.340000", "104433.830000", "104435.320000", "104436.810000", "104438.300000", "104439.790000", "104441.280000", "104442.770000"],
      "ContentTime": ["103422.651000", "103422.655000", "103422.657000", "103422.660000", "103422.663000", "103422.666000", "103422.669000", "103422.672000", "103422.675000", "103422.678000", "103422.680000", "103422.683000", "103422.686000", "103422.689000", "103422.692000", "103422.695000", "103422.698000", "103422.701000", "103422.703000", "103422.706000", "103442.611000", "103442.614000", "103442.617000", "103442.620000", "103442.623000", "103442.626000", "103442.629000", "103442.631000", "103442.634000", "103442.637000", "103442.640000", "103442.643000", "103442.646000", "103442.649000", "103442.651000", "103442.654000", "103442.657000", "103442.660000", "103442.663000", "103442.666000", "103502.611000", "103502.614000", "103502.617000", "103502.620000", "103502.623000", "103502.626000", "103502.628000", "103502.631000", "103502.634000", "103502.637000", "103502.640000", "103502.643000", "103502.646000", "103502.649000", "103502.652000", "103502.654000", "103502.657000", "103502.660000", "103502.663000", "103502.666000", "103522.611000", "103522.614000", "103522.617000", "103522.620000", "103522.623000", "103522.626000", "103522.628000", "103522.631000", "103522.634000", "103522.637000", "103522.640000", "103522.643000", "103522.646000", "103522.649000", "103522.651000", "103522.654000", "103522.657000", "103522.660000", "103522.663000", "103522.678000", "103542.612000", "103542.615000", "103542.618000", "103542.621000", "103542.624000", "103542.627000", "103542.630000", "103542.652000", "103542.655000", "103542.658000", "103542.661000", "103542.664000", "103542.667000", "103542.670000", "103542.672000", "103542.675000", "103542.678000", "103542.681000", "103542.684000", "103542.687000", "103622.612000", "103622.615000", "103622.618000", "103622.621000", "103622.624000", "103622.626000", "103622.629000", "103622.632000", "103622.635000", "103622.638000", "103622.641000", "103622.644000", "103622.647000", "103622.649000", "103622.652000", "103622.655000", "103622.658000", "103622.661000", "103622.664000", "103622.667000", "103622.670000", "103622.673000", "103622.676000", "103622.678000", "103622.681000", "103622.684000", "103622.687000", "103622.690000", "103622.693000", "103622.696000", "103702.611000", "103702.614000", "103702.617000", "103702.620000", "103702.623000", "103702.626000", "103702.629000", "103702.631000", "103702.634000", "103702.637000", "103702.640000", "103702.643000", "103702.646000", "103702.649000", "103702.652000", "103702.655000", "103702.658000", "103702.660000", "103702.663000", "103702.666000", "103702.669000", "103702.672000", "103702.675000", "103702.678000", "103702.681000", "103702.684000", "103702.686000", "103742.611000", "103742.614000", "103742.617000", "103742.620000", "103742.623000", "103742.626000", "103742.629000", "103742.631000", "103742.634000", "103742.637000", "103742.640000", "103742.643000", "103742.646000", "103742.649000", "103742.652000", "103742.655000", "103742.658000", "103742.660000", "103742.663000", "103742.666000", "103742.669000", "103742.672000", "103742.675000", "103742.678000", "103742.681000", "103742.684000", "103742.686000", "103822.612000", "103822.615000", "103822.618000", "103822.621000", "103822.624000", "103822.627000", "103822.629000", "103822.632000", "103822.635000", "103822.638000", "103822.641000", "103822.644000", "103822.647000", "103822.650000", "103822.653000", "103822.655000", "103822.658000", "103822.661000", "103822.664000", "103822.667000", "103822.670000", "103822.673000", "103822.676000", "103822.679000", "103822.682000", "103822.684000", "103822.687000", "103902.611000", "103902.614000", "103902.617000", "103902.620000", "103902.623000", "103902.626000", "103902.629000", "103902.631000", "103902.634000", "103902.637000", "103902.640000", "103902.643000", "103902.646000", "103902.649000", "103902.652000", "103902.655000", "103902.658000", "103902.661000", "103902.663000", "103902.666000", "103902.669000", "103902.672000", "103902.675000", "103902.678000", "103902.681000", "103902.684000", "103902.687000", "103922.611000", "103922.614000", "103922.617000", "103922.620000", "103922.623000", "103922.626000", "103922.629000", "103922.632000", "103922.634000", "103922.637000", "103922.640000", "103922.643000", "103922.646000", "104002.611000", "104002.614000", "104002.617000", "104002.620000", "104002.623000", "104002.626000", "104002.629000", "104002.631000", "104002.634000", "104002.637000", "104002.640000", "104002.643000", "104002.646000", "104002.649000", "104002.652000", "104002.654000", "104002.657000", "104002.660000", "104002.663000", "104002.666000", "104002.669000", "104002.672000", "104002.675000", "104002.678000", "104002.680000", "104002.683000", "104002.686000", "104042.612000", "104042.615000", "104042.618000", "104042.632000", "104042.635000", "104042.638000", "104042.640000", "104042.643000", "104042.646000", "104042.649000", "104042.652000", "104042.655000", "104042.658000", "104042.661000", "104042.664000", "104042.667000", "104042.670000", "104042.672000", "104042.675000", "104042.678000", "104042.681000", "104042.684000", "104042.687000", "104042.690000", "104042.693000", "104042.695000", "104042.698000", "104122.611000", "104122.614000", "104122.617000", "104122.620000", "104122.623000", "104122.626000", "104122.629000", "104122.632000", "104122.634000", "104122.637000", "104122.640000", "104122.643000", "104122.646000", "104122.649000", "104122.652000", "104122.655000", "104122.658000", "104122.661000", "104122.663000", "104122.666000", "104122.677000", "104122.680000", "104122.683000", "104122.686000", "104122.689000", "104122.692000", "104122.694000", "104202.612000", "104202.617000", "104202.620000", "104202.623000", "104202.626000", "104202.629000", "104202.632000", "104202.635000", "104202.638000", "104202.641000", "104202.643000", "104202.646000", "104202.649000", "104202.652000", "104202.655000", "104202.658000", "104202.661000", "104202.664000", "104202.667000", "104202.670000", "104202.673000", "104202.675000", "104202.678000", "104202.681000", "104202.684000", "104202.687000", "104242.612000", "104242.615000", "104242.618000", "104242.621000", "104242.624000", "104242.627000", "104242.629000", "104242.632000", "104242.635000", "104242.638000", "104242.641000", "104242.644000", "104242.647000", "104242.650000", "104242.653000", "104242.655000", "104242.658000", "104242.661000", "104242.664000", "104242.667000", "104242.670000", "104242.673000", "104242.676000", "104242.679000", "104242.682000", "104242.685000", "104242.688000", "104322.612000", "104322.615000", "104322.618000", "104322.621000", "104322.624000", "104322.627000", "104322.630000", "104322.633000", "104322.636000", "104322.638000", "104322.641000", "104322.644000", "104322.647000", "104322.650000", "104322.653000", "104322.656000", "104322.659000", "104322.662000", "104322.665000", "104322.667000", "104322.670000", "104322.673000", "104322.676000", "104322.679000", "104322.682000", "104322.685000", "104322.688000", "104402.611000", "104402.614000", "104402.617000", "104402.620000", "104402.623000", "104402.626000", "104402.629000", "104402.631000", "104402.634000", "104402.637000", "104402.640000", "104402.643000", "104402.646000", "104402.649000", "104402.652000", "104402.655000", "104402.658000", "104402.661000", "104402.663000", "104402.666000", "104402.669000", "104402.672000", "104402.675000", "104402.678000", "104402.681000", "104402.688000", "104402.691000", "104442.611000", "104442.614000", "104442.617000", "104442.620000", "104442.623000", "104442.626000", "104442.629000", "104442.631000", "104442.634000", "104442.637000", "104442.640000", "104442.643000", "104442.646000", "104442.649000", "104442.652000", "104442.655000", "104442.658000", "104442.684000", "104442.687000", "104442.690000", "104442.693000", "104442.696000", "104442.699000", "104442.701000", "104442.704000", "104442.707000", "104442.710000", "104445.078000", "104445.081000"],
