{
  "AcquisitionMatrixPE": 104,
  "AcquisitionNumber": 1,
  "AcquisitionTime": "18:32:50.487500",
  "BandwidthPerPixelPhaseEncode": 17.17,
  "BaseResolution": 104,
  "BodyPartExamined": "BRAIN",
  "CoilCombinationMethod": "Sum of Squares",
  "ConsistencyInfo": "N4_VE11C_LATEST_20160120",
  "ConversionSoftware": "dcm2niix",
  "ConversionSoftwareVersion": "v1.0.20220505",
  "DerivedVendorReportedEchoSpacing": 0.000560011,
  "DeviceSerialNumber": "167006",
  "DwellTime": 2.1e-06,
  "EchoTime": 0.037,
  "EchoTrainLength": 104,
  "EffectiveEchoSpacing": 0.000560011,
  "FlipAngle": 52,
  "HeudiconvVersion": "0.5.3.post811+g6206e14",
  "ImageComments": "Unaliased MB4/PE3/LB",
  "ImageOrientationPatientDICOM": [0.999888, -0.0149721, 0.000420147, 0.0141365, 0.934072, -0.356804],
  "ImageOrientationText": "Tra>Cor(-20.9)>Sag(-0.3)",
  "ImageType": [
    "ORIGINAL",
    "PRIMARY",
    "M",
    "MB",
    "ND",
    "MOSAIC"
],
  "ImagingFrequency": 123.259,
  "InPlanePhaseEncodingDirectionDICOM": "COL",
  "InstitutionAddress": "Chemin Queen-Mary 4565,Montreal,District,CA,H3W 1W5",
  "InstitutionName": "IUGM",
  "InstitutionalDepartmentName": "Department",
  "MRAcquisitionType": "2D",
  "MagneticFieldStrength": 3,
  "Manufacturer": "Siemens",
  "ManufacturersModelName": "Prisma_fit",
  "MatrixCoilMode": "SENSE",
  "Modality": "MR",
  "MultibandAccelerationFactor": 4,
  "PartialFourier": 1,
  "PatientPosition": "HFS",
  "PercentPhaseFOV": 100,
  "PercentSampling": 100,
  "PhaseEncodingDirection": "j",
  "PhaseEncodingSteps": 104,
  "PhaseResolution": 1,
  "PixelBandwidth": 2290,
  "ProcedureStepDescription": "video^friends",
  "ProtocolName": "func_task-friends-s05e18b",
  "PulseSequenceDetails": "%CustomerSeq%\\cmrr_mbep2d_bold",
  "ReceiveCoilActiveElements": "HC1-7;NC1,2",
  "ReceiveCoilName": "HeadNeck_64",
  "ReconMatrixPE": 104,
  "RepetitionTime": 1.49,
  "SAR": 0.075677,
  "ScanOptions": "FS",
  "ScanningSequence": "EP",
  "SequenceName": "epfid2d1_104",
  "SequenceVariant": "SK\\SS",
  "SeriesDescription": "func_task-friends-s05e18b",
  "SeriesNumber": 15,
  "ShimSetting": [610, -7263, -8823, 470, -13, -366, -74, 30],
  "SliceThickness": 2,
  "SliceTiming": [0, 0.7825, 0.0975, 0.8825, 0.195, 0.98, 0.2925, 1.0775, 0.3925, 1.175, 0.49, 1.2725, 0.5875, 1.3725, 0.685, 0, 0.7825, 0.0975, 0.8825, 0.195, 0.98, 0.2925, 1.0775, 0.3925, 1.175, 0.49, 1.2725, 0.5875, 1.3725, 0.685, 0, 0.7825, 0.0975, 0.8825, 0.195, 0.98, 0.2925, 1.0775, 0.3925, 1.175, 0.49, 1.2725, 0.5875, 1.3725, 0.685, 0, 0.7825, 0.0975, 0.8825, 0.195, 0.98, 0.2925, 1.0775, 0.3925, 1.175, 0.49, 1.2725, 0.5875, 1.3725, 0.685],
  "SoftwareVersions": "syngo MR E11",
  "SpacingBetweenSlices": 2,
  "StationName": "MRC35049",
  "TaskName": "s05e18b",
  "TotalReadoutTime": 0.0576811,
  "TxRefAmp": 331.217,
  "WipMemBlock": "03ead044-3178-4bbd-a72a-45618d2d667d||Sequence: R016 ve11c/master r/e634e98; Dec 19 2017 11:00:25 by eja",
  "dcmmeta_affine": [
    [-1.9997756481170654, 0.02827301435172558, -0.009899302385747433, 98.93993377685547],
    [0.029944172129034996, 1.8681446313858032, -0.7135396599769592, -72.8079833984375],
    [0.0008402934763580561, 0.7136078476905823, 1.8683583736419678, -61.519378662109375],
    [0.0, 0.0, 0.0, 1.0]
],
  "dcmmeta_reorient_transform": [
    [0.0, -1.0, 0.0, 103.0],
    [1.0, 0.0, 0.0, 0.0],
    [0.0, 0.0, 1.0, 0.0],
    [0.0, 0.0, 0.0, 1.0]
],
  "dcmmeta_shape": [104, 104, 60, 535],
  "dcmmeta_slice_dim": 2,
  "dcmmeta_version": 0.6,
  "global": {
    "const": {
      "AcquisitionMatrix": [104, 0, 0, 104],
      "AngioFlag": "N",
      "BitsAllocated": 16,
      "BitsStored": 16,
      "BodyPartExamined": "BRAIN",
      "Columns": 832,
      "EchoNumbers": 1,
      "EchoTime": 37.0,
      "EchoTrainLength": 104,
      "FlipAngle": 52.0,
      "HighBit": 15,
      "ImageOrientationPatient": [0.99988782377157, -0.0149720856956, 0.00042014673378, 0.01413650683225, 0.93407233558942, -0.3568039112189],
      "ImagePositionPatient": [-840.06177057016, -788.71589826811, 271.42960603172],
      "ImageType": [
        "ORIGINAL",
        "PRIMARY",
        "M",
        "MB",
        "ND",
        "MOSAIC"
],
      "ImagedNucleus": "1H",
      "ImagingFrequency": 123.258801,
      "InPlanePhaseEncodingDirection": "COL",
      "MRAcquisitionType": "2D",
      "MagneticFieldStrength": 3.0,
      "Manufacturer": "SIEMENS",
      "ManufacturerModelName": "Prisma_fit",
      "Modality": "MR",
      "NumberOfAverages": 1.0,
      "NumberOfPhaseEncodingSteps": 104,
      "PercentPhaseFieldOfView": 100.0,
      "PercentSampling": 100.0,
      "PerformedProcedureStepStartTime": "174648.308000",
      "PhotometricInterpretation": "MONOCHROME2",
      "PixelBandwidth": 2290.0,
      "PixelRepresentation": 0,
      "PixelSpacing": [2.0, 2.0],
      "ProtocolName": "func_task-friends-s05e18b",
      "RepetitionTime": 1490.0,
      "Rows": 832,
      "SAR": 0.0756769873832,
      "SamplesPerPixel": 1,
      "ScanOptions": "FS",
      "ScanningSequence": "EP",
      "SequenceName": "epfid2d1_104",
      "SequenceVariant": [
        "SK",
        "SS"
],
      "SeriesDescription": "func_task-friends-s05e18b",
      "SeriesNumber": 15,
      "SeriesTime": "183406.092000",
      "SliceLocation": -31.984152034076,
      "SliceThickness": 2.0,
      "SmallestImagePixelValue": 0,
      "SoftwareVersions": "syngo MR E11",
      "SpacingBetweenSlices": 1.9999999682768,
      "SpecificCharacterSet": "ISO_IR 100",
      "StudyID": "1",
      "StudyTime": "174648.231000",
      "TransmitCoilName": "Body",
      "VariableFlipAngleFlag": "N",
      "WindowCenterWidthExplanation": "Algo1",
      "dBdt": 0.0},
    "slices": {}
  },
  "time": {
    "samples": {
      "AcquisitionNumber": [1, 2, 3, 4, 5, 6, 7, 8, 9, 10, 11, 12, 13, 14, 15, 16, 17, 18, 19, 20, 21, 22, 23, 24, 25, 26, 27, 28, 29, 30, 31, 32, 33, 34, 35, 36, 37, 38, 39, 40, 41, 42, 43, 44, 45, 46, 47, 48, 49, 50, 51, 52, 53, 54, 55, 56, 57, 58, 59, 60, 61, 62, 63, 64, 65, 66, 67, 68, 69, 70, 71, 72, 73, 74, 75, 76, 77, 78, 79, 80, 81, 82, 83, 84, 85, 86, 87, 88, 89, 90, 91, 92, 93, 94, 95, 96, 97, 98, 99, 100, 101, 102, 103, 104, 105, 106, 107, 108, 109, 110, 111, 112, 113, 114, 115, 116, 117, 118, 119, 120, 121, 122, 123, 124, 125, 126, 127, 128, 129, 130, 131, 132, 133, 134, 135, 136, 137, 138, 139, 140, 141, 142, 143, 144, 145, 146, 147, 148, 149, 150, 151, 152, 153, 154, 155, 156, 157, 158, 159, 160, 161, 162, 163, 164, 165, 166, 167, 168, 169, 170, 171, 172, 173, 174, 175, 176, 177, 178, 179, 180, 181, 182, 183, 184, 185, 186, 187, 188, 189, 190, 191, 192, 193, 194, 195, 196, 197, 198, 199, 200, 201, 202, 203, 204, 205, 206, 207, 208, 209, 210, 211, 212, 213, 214, 215, 216, 217, 218, 219, 220, 221, 222, 223, 224, 225, 226, 227, 228, 229, 230, 231, 232, 233, 234, 235, 236, 237, 238, 239, 240, 241, 242, 243, 244, 245, 246, 247, 248, 249, 250, 251, 252, 253, 254, 255, 256, 257, 258, 259, 260, 261, 262, 263, 264, 265, 266, 267, 268, 269, 270, 271, 272, 273, 274, 275, 276, 277, 278, 279, 280, 281, 282, 283, 284, 285, 286, 287, 288, 289, 290, 291, 292, 293, 294, 295, 296, 297, 298, 299, 300, 301, 302, 303, 304, 305, 306, 307, 308, 309, 310, 311, 312, 313, 314, 315, 316, 317, 318, 319, 320, 321, 322, 323, 324, 325, 326, 327, 328, 329, 330, 331, 332, 333, 334, 335, 336, 337, 338, 339, 340, 341, 342, 343, 344, 345, 346, 347, 348, 349, 350, 351, 352, 353, 354, 355, 356, 357, 358, 359, 360, 361, 362, 363, 364, 365, 366, 367, 368, 369, 370, 371, 372, 373, 374, 375, 376, 377, 378, 379, 380, 381, 382, 383, 384, 385, 386, 387, 388, 389, 390, 391, 392, 393, 394, 395, 396, 397, 398, 399, 400, 401, 402, 403, 404, 405, 406, 407, 408, 409, 410, 411, 412, 413, 414, 415, 416, 417, 418, 419, 420, 421, 422, 423, 424, 425, 426, 427, 428, 429, 430, 431, 432, 433, 434, 435, 436, 437, 438, 439, 440, 441, 442, 443, 444, 445, 446, 447, 448, 449, 450, 451, 452, 453, 454, 455, 456, 457, 458, 459, 460, 461, 462, 463, 464, 465, 466, 467, 468, 469, 470, 471, 472, 473, 474, 475, 476, 477, 478, 479, 480, 481, 482, 483, 484, 485, 486, 487, 488, 489, 490, 491, 492, 493, 494, 495, 496, 497, 498, 499, 500, 501, 502, 503, 504, 505, 506, 507, 508, 509, 510, 511, 512, 513, 514, 515, 516, 517, 518, 519, 520, 521, 522, 523, 524, 525, 526, 527, 528, 529, 530, 531, 532, 533, 534, 535],
      "AcquisitionTime": ["183250.487500", "183251.977500", "183253.467500", "183254.957500", "183256.447500", "183257.937500", "183259.427500", "183300.917500", "183302.407500", "183303.897500", "183305.387500", "183306.877500", "183308.367500", "183309.857500", "183311.347500", "183312.837500", "183314.327500", "183315.817500", "183317.307500", "183318.797500", "183320.287500", "183321.777500", "183323.267500", "183324.757500", "183326.247500", "183327.737500", "183329.227500", "183330.717500", "183332.207500", "183333.697500", "183335.187500", "183336.677500", "183338.167500", "183339.657500", "183341.147500", "183342.637500", "183344.127500", "183345.617500", "183347.107500", "183348.597500", "183350.087500", "183351.577500", "183353.067500", "183354.557500", "183356.047500", "183357.537500", "183359.027500", "183400.517500", "183402.007500", "183403.497500", "183404.987500", "183406.477500", "183407.967500", "183409.457500", "183410.947500", "183412.437500", "183413.927500", "183415.417500", "183416.907500", "183418.397500", "183419.887500", "183421.377500", "183422.867500", "183424.357500", "183425.847500", "183427.337500", "183428.827500", "183430.317500", "183431.807500", "183433.297500", "183434.787500", "183436.277500", "183437.767500", "183439.257500", "183440.747500", "183442.237500", "183443.727500", "183445.217500", "183446.707500", "183448.197500", "183449.687500", "183451.177500", "183452.667500", "183454.157500", "183455.647500", "183457.137500", "183458.627500", "183500.117500", "183501.607500", "183503.097500", "183504.587500", "183506.077500", "183507.567500", "183509.057500", "183510.547500", "183512.037500", "183513.527500", "183515.017500", "183516.507500", "183517.997500", "183519.487500", "183520.977500", "183522.467500", "183523.957500", "183525.447500", "183526.937500", "183528.427500", "183529.917500", "183531.407500", "183532.897500", "183534.387500", "183535.877500", "183537.367500", "183538.857500", "183540.347500", "183541.837500", "183543.327500", "183544.817500", "183546.307500", "183547.797500", "183549.287500", "183550.777500", "183552.267500", "183553.757500", "183555.247500", "183556.737500", "183558.227500", "183559.717500", "183601.207500", "183602.697500", "183604.187500", "183605.677500", "183607.167500", "183608.657500", "183610.147500", "183611.637500", "183613.127500", "183614.617500", "183616.107500", "183617.597500", "183619.087500", "183620.577500", "183622.067500", "183623.557500", "183625.047500", "183626.537500", "183628.027500", "183629.517500", "183631.007500", "183632.497500", "183633.987500", "183635.477500", "183636.967500", "183638.457500", "183639.947500", "183641.437500", "183642.927500", "183644.417500", "183645.907500", "183647.397500", "183648.887500", "183650.377500", "183651.867500", "183653.357500", "183654.847500", "183656.337500", "183657.827500", "183659.317500", "183700.807500", "183702.297500", "183703.787500", "183705.277500", "183706.767500", "183708.257500", "183709.747500", "183711.237500", "183712.727500", "183714.217500", "183715.707500", "183717.197500", "183718.687500", "183720.177500", "183721.667500", "183723.157500", "183724.647500", "183726.137500", "183727.627500", "183729.117500", "183730.607500", "183732.097500", "183733.587500", "183735.077500", "183736.567500", "183738.057500", "183739.547500", "183741.037500", "183742.527500", "183744.017500", "183745.507500", "183746.997500", "183748.487500", "183749.977500", "183751.467500", "183752.957500", "183754.447500", "183755.937500", "183757.427500", "183758.917500", "183800.407500", "183801.897500", "183803.387500", "183804.877500", "183806.367500", "183807.857500", "183809.347500", "183810.837500", "183812.327500", "183813.817500", "183815.307500", "183816.797500", "183818.287500", "183819.777500", "183821.267500", "183822.757500", "183824.247500", "183825.737500", "183827.227500", "183828.717500", "183830.207500", "183831.697500", "183833.187500", "183834.677500", "183836.167500", "183837.657500", "183839.147500", "183840.637500", "183842.127500", "183843.617500", "183845.107500", "183846.597500", "183848.087500", "183849.577500", "183851.067500", "183852.557500", "183854.047500", "183855.537500", "183857.027500", "183858.517500", "183900.007500", "183901.497500", "183902.987500", "183904.477500", "183905.967500", "183907.457500", "183908.947500", "183910.437500", "183911.927500", "183913.417500", "183914.907500", "183916.397500", "183917.887500", "183919.377500", "183920.867500", "183922.357500", "183923.847500", "183925.337500", "183926.827500", "183928.317500", "183929.807500", "183931.297500", "183932.787500", "183934.277500", "183935.767500", "183937.257500", "183938.747500", "183940.237500", "183941.727500", "183943.217500", "183944.707500", "183946.197500", "183947.687500", "183949.177500", "183950.667500", "183952.157500", "183953.647500", "183955.137500", "183956.627500", "183958.117500", "183959.607500", "184001.097500", "184002.587500", "184004.077500", "184005.567500", "184007.057500", "184008.547500", "184010.037500", "184011.527500", "184013.017500", "184014.507500", "184015.997500", "184017.487500", "184018.977500", "184020.467500", "184021.957500", "184023.447500", "184024.937500", "184026.427500", "184027.917500", "184029.407500", "184030.897500", "184032.387500", "184033.877500", "184035.367500", "184036.857500", "184038.347500", "184039.837500", "184041.327500", "184042.817500", "184044.307500", "184045.797500", "184047.287500", "184048.777500", "184050.267500", "184051.757500", "184053.247500", "184054.737500", "184056.227500", "184057.717500", "184059.207500", "184100.697500", "184102.187500", "184103.677500", "184105.167500", "184106.657500", "184108.147500", "184109.637500", "184111.127500", "184112.617500", "184114.107500", "184115.597500", "184117.087500", "184118.577500", "184120.067500", "184121.557500", "184123.047500", "184124.537500", "184126.027500", "184127.517500", "184129.007500", "184130.497500", "184131.987500", "184133.477500", "184134.967500", "184136.457500", "184137.947500", "184139.437500", "184140.927500", "184142.417500", "184143.907500", "184145.397500", "184146.887500", "184148.377500", "184149.867500", "184151.357500", "184152.847500", "184154.337500", "184155.827500", "184157.317500", "184158.807500", "184200.297500", "184201.787500", "184203.277500", "184204.767500", "184206.257500", "184207.747500", "184209.237500", "184210.727500", "184212.217500", "184213.707500", "184215.197500", "184216.687500", "184218.177500", "184219.667500", "184221.157500", "184222.647500", "184224.137500", "184225.627500", "184227.117500", "184228.607500", "184230.097500", "184231.587500", "184233.077500", "184234.567500", "184236.057500", "184237.547500", "184239.037500", "184240.527500", "184242.017500", "184243.507500", "184244.997500", "184246.487500", "184247.977500", "184249.467500", "184250.957500", "184252.447500", "184253.937500", "184255.427500", "184256.917500", "184258.407500", "184259.897500", "184301.387500", "184302.877500", "184304.367500", "184305.857500", "184307.347500", "184308.837500", "184310.327500", "184311.817500", "184313.307500", "184314.797500", "184316.287500", "184317.777500", "184319.267500", "184320.757500", "184322.247500", "184323.737500", "184325.227500", "184326.717500", "184328.207500", "184329.697500", "184331.187500", "184332.677500", "184334.167500", "184335.657500", "184337.147500", "184338.637500", "184340.127500", "184341.617500", "184343.107500", "184344.597500", "184346.087500", "184347.577500", "184349.067500", "184350.557500", "184352.047500", "184353.537500", "184355.027500", "184356.517500", "184358.007500", "184359.497500", "184400.987500", "184402.477500", "184403.967500", "184405.457500", "184406.947500", "184408.437500", "184409.927500", "184411.417500", "184412.907500", "184414.397500", "184415.887500", "184417.377500", "184418.867500", "184420.357500", "184421.847500", "184423.337500", "184424.827500", "184426.317500", "184427.807500", "184429.297500", "184430.787500", "184432.277500", "184433.767500", "184435.257500", "184436.747500", "184438.237500", "184439.727500", "184441.217500", "184442.707500", "184444.197500", "184445.687500", "184447.177500", "184448.667500", "184450.157500", "184451.647500", "184453.137500", "184454.627500", "184456.117500", "184457.607500", "184459.097500", "184500.587500", "184502.077500", "184503.567500", "184505.057500", "184506.547500", "184508.037500", "184509.527500", "184511.017500", "184512.507500", "184513.997500", "184515.487500", "184516.977500", "184518.467500", "184519.957500", "184521.447500", "184522.937500", "184524.427500", "184525.917500", "184527.407500", "184528.897500", "184530.387500", "184531.877500", "184533.367500", "184534.857500", "184536.347500", "184537.837500", "184539.327500", "184540.817500", "184542.307500", "184543.797500", "184545.287500", "184546.777500", "184548.267500", "184549.757500", "184551.247500", "184552.737500", "184554.227500", "184555.717500", "184557.207500", "184558.697500", "184600.187500", "184601.677500", "184603.167500", "184604.657500", "184606.147500"],
      "ContentTime": ["183406.095000", "183406.098000", "183406.101000", "183406.104000", "183406.107000", "183406.110000", "183406.113000", "183406.116000", "183406.119000", "183406.129000", "183406.132000", "183406.137000", "183406.140000", "183406.143000", "183406.146000", "183406.149000", "183406.152000", "183406.155000", "183406.158000", "183406.161000", "183406.164000", "183426.060000", "183426.064000", "183426.066000", "183426.069000", "183426.072000", "183426.075000", "183426.078000", "183426.081000", "183426.084000", "183426.087000", "183426.090000", "183426.093000", "183426.096000", "183426.099000", "183426.102000", "183426.109000", "183426.112000", "183426.115000", "183426.128000", "183426.131000", "183426.133000", "183446.060000", "183446.063000", "183446.066000", "183446.069000", "183446.072000", "183446.075000", "183446.078000", "183446.080000", "183446.083000", "183446.086000", "183446.089000", "183446.092000", "183446.095000", "183446.105000", "183446.108000", "183446.111000", "183446.114000", "183446.117000", "183446.119000", "183446.122000", "183506.060000", "183506.063000", "183506.066000", "183506.069000", "183506.072000", "183506.075000", "183506.078000", "183506.080000", "183506.083000", "183506.086000", "183506.089000", "183506.092000", "183506.095000", "183506.098000", "183506.101000", "183506.104000", "183506.107000", "183506.110000", "183506.113000", "183506.115000", "183526.061000", "183526.064000", "183526.067000", "183526.070000", "183526.073000", "183526.076000", "183526.079000", "183526.081000", "183526.085000", "183526.087000", "183526.090000", "183526.093000", "183526.096000", "183526.099000", "183526.102000", "183526.105000", "183526.108000", "183526.111000", "183526.114000", "183526.122000", "183606.060000", "183606.063000", "183606.066000", "183606.069000", "183606.072000", "183606.075000", "183606.078000", "183606.081000", "183606.084000", "183606.087000", "183606.090000", "183606.093000", "183606.096000", "183606.099000", "183606.102000", "183606.105000", "183606.107000", "183606.110000", "183606.113000", "183606.116000", "183606.119000", "183606.122000", "183606.125000", "183606.128000", "183606.131000", "183606.134000", "183606.137000", "183606.140000", "183646.060000", "183646.063000", "183646.066000", "183646.069000", "183646.072000", "183646.075000", "183646.078000", "183646.081000", "183646.084000", "183646.087000", "183646.090000", "183646.093000", "183646.095000", "183646.098000", "183646.101000", "183646.104000", "183646.107000", "183646.110000", "183646.113000", "183646.116000", "183646.119000", "183646.122000", "183646.125000", "183646.128000", "183646.130000", "183646.133000", "183646.136000", "183726.060000", "183726.063000", "183726.066000", "183726.069000", "183726.072000", "183726.075000", "183726.078000", "183726.081000", "183726.084000", "183726.087000", "183726.090000", "183726.093000", "183726.096000", "183726.099000", "183726.102000", "183726.112000", "183726.115000", "183726.118000", "183726.121000", "183726.123000", "183726.126000", "183726.129000", "183726.132000", "183726.135000", "183726.138000", "183726.141000", "183726.144000", "183806.060000", "183806.063000", "183806.066000", "183806.069000", "183806.072000", "183806.075000", "183806.078000", "183806.081000", "183806.084000", "183806.087000", "183806.089000", "183806.092000", "183806.095000", "183806.098000", "183806.101000", "183806.104000", "183806.107000", "183806.110000", "183806.113000", "183806.116000", "183806.119000", "183806.122000", "183806.125000", "183806.127000", "183806.131000", "183806.133000", "183806.136000", "183846.060000", "183846.063000", "183846.066000", "183846.069000", "183846.073000", "183846.076000", "183846.079000", "183846.082000", "183846.105000", "183846.108000", "183846.111000", "183846.114000", "183846.117000", "183846.120000", "183846.123000", "183846.126000", "183846.129000", "183846.132000", "183846.135000", "183846.138000", "183846.141000", "183846.143000", "183846.146000", "183846.149000", "183846.152000", "183846.155000", "183846.158000", "183926.060000", "183926.063000", "183926.077000", "183926.080000", "183926.083000", "183926.086000", "183926.089000", "183926.092000", "183926.095000", "183926.098000", "183926.101000", "183926.104000", "183926.107000", "183926.109000", "183926.112000", "183926.115000", "183926.118000", "183926.121000", "183926.124000", "183926.127000", "183926.130000", "183926.133000", "183926.136000", "183926.139000", "183926.142000", "183926.145000", "183926.148000", "184006.061000", "184006.068000", "184006.071000", "184006.074000", "184006.077000", "184006.080000", "184006.083000", "184006.086000", "184006.088000", "184006.092000", "184006.094000", "184006.097000", "184006.100000", "184006.103000", "184006.106000", "184006.109000", "184006.112000", "184006.115000", "184006.118000", "184006.121000", "184006.124000", "184006.127000", "184006.130000", "184006.132000", "184006.135000", "184006.138000", "184006.141000", "184046.061000", "184046.064000", "184046.067000", "184046.070000", "184046.073000", "184046.076000", "184046.079000", "184046.082000", "184046.085000", "184046.088000", "184046.091000", "184046.094000", "184046.097000", "184046.099000", "184046.103000", "184046.105000", "184046.108000", "184046.111000", "184046.114000", "184046.117000", "184046.120000", "184046.123000", "184046.126000", "184046.129000", "184046.132000", "184046.135000", "184126.060000", "184126.063000", "184126.066000", "184126.069000", "184126.072000", "184126.075000", "184126.078000", "184126.081000", "184126.084000", "184126.097000", "184126.100000", "184126.103000", "184126.106000", "184126.109000", "184126.112000", "184126.115000", "184126.118000", "184126.121000", "184126.124000", "184126.127000", "184126.130000", "184126.132000", "184126.135000", "184126.138000", "184126.141000", "184126.144000", "184126.147000", "184206.060000", "184206.063000", "184206.066000", "184206.069000", "184206.072000", "184206.075000", "184206.078000", "184206.081000", "184206.084000", "184206.087000", "184206.090000", "184206.093000", "184206.096000", "184206.099000", "184206.102000", "184206.105000", "184206.108000", "184206.111000", "184206.114000", "184206.117000", "184206.120000", "184206.123000", "184206.126000", "184206.128000", "184206.131000", "184206.134000", "184206.137000", "184246.060000", "184246.063000", "184246.066000", "184246.069000", "184246.072000", "184246.075000", "184246.078000", "184246.081000", "184246.084000", "184246.087000", "184246.090000", "184246.093000", "184246.096000", "184246.099000", "184246.102000", "184246.104000", "184246.108000", "184246.110000", "184246.113000", "184246.116000", "184246.119000", "184246.122000", "184246.125000", "184246.128000", "184246.131000", "184246.134000", "184246.137000", "184326.060000", "184326.063000", "184326.066000", "184326.069000", "184326.072000", "184326.075000", "184326.078000", "184326.081000", "184326.084000", "184326.087000", "184326.090000", "184326.093000", "184326.096000", "184326.099000", "184326.102000", "184326.105000", "184326.108000", "184326.110000", "184326.113000", "184326.116000", "184326.119000", "184326.122000", "184326.125000", "184326.128000", "184326.131000", "184326.134000", "184326.137000", "184406.060000", "184406.063000", "184406.072000", "184406.075000", "184406.078000", "184406.081000", "184406.084000", "184406.087000", "184406.090000", "184406.092000", "184406.096000", "184406.098000", "184406.101000", "184406.104000", "184406.107000", "184406.110000", "184406.113000", "184406.116000", "184406.119000", "184406.122000", "184406.125000", "184406.128000", "184406.131000", "184406.134000", "184406.136000", "184406.139000", "184406.142000", "184446.061000", "184446.064000", "184446.067000", "184446.070000", "184446.073000", "184446.077000", "184446.080000", "184446.083000", "184446.085000", "184446.089000", "184446.091000", "184446.094000", "184446.097000", "184446.100000", "184446.103000", "184446.106000", "184446.109000", "184446.112000", "184446.115000", "184446.118000", "184446.121000", "184446.124000", "184446.127000", "184446.130000", "184446.133000", "184446.136000", "184526.060000", "184526.063000", "184526.066000", "184526.069000", "184526.072000", "184526.075000", "184526.078000", "184526.081000", "184526.084000", "184526.087000", "184526.090000", "184526.093000", "184526.096000", "184526.099000", "184526.102000", "184526.105000", "184526.108000", "184526.111000", "184526.113000", "184526.116000", "184526.119000", "184526.122000", "184526.125000", "184526.128000", "184526.131000", "184526.134000", "184526.137000", "184606.060000", "184606.063000", "184606.066000", "184606.069000", "184606.073000", "184606.076000", "184606.079000", "184606.082000", "184606.085000", "184606.088000", "184606.091000", "184606.094000", "184606.097000", "184606.100000", "184606.103000", "184606.106000", "184606.109000", "184606.112000", "184606.115000", "184606.118000", "184606.121000", "184606.124000", "184606.127000", "184606.130000", "184606.133000", "184606.136000", "184606.139000", "184608.075000", "184608.078000"],
