{
  "AcquisitionMatrixPE": 104,
  "AcquisitionNumber": 1,
  "AcquisitionTime": "18:47:35.197500",
  "BandwidthPerPixelPhaseEncode": 17.17,
  "BaseResolution": 104,
  "BodyPartExamined": "BRAIN",
  "CoilCombinationMethod": "Sum of Squares",
  "ConsistencyInfo": "N4_VE11C_LATEST_20160120",
  "ConversionSoftware": "dcm2niix",
  "ConversionSoftwareVersion": "v1.0.20220505",
  "DerivedVendorReportedEchoSpacing": 0.000560011,
  "DeviceSerialNumber": "167006",
  "DwellTime": 2.1e-06,
  "EchoTime": 0.037,
  "EchoTrainLength": 104,
  "EffectiveEchoSpacing": 0.000560011,
  "FlipAngle": 52,
  "HeudiconvVersion": "0.5.3.post811+g6206e14",
  "ImageComments": "Unaliased MB4/PE3/LB",
  "ImageOrientationPatientDICOM": [0.999888, -0.0149721, 0.000420147, 0.0141365, 0.934072, -0.356804],
  "ImageOrientationText": "Tra>Cor(-20.9)>Sag(-0.3)",
  "ImageType": [
    "ORIGINAL",
    "PRIMARY",
    "M",
    "MB",
    "ND",
    "MOSAIC"
],
  "ImagingFrequency": 123.259,
  "InPlanePhaseEncodingDirectionDICOM": "COL",
  "InstitutionAddress": "Chemin Queen-Mary 4565,Montreal,District,CA,H3W 1W5",
  "InstitutionName": "IUGM",
  "InstitutionalDepartmentName": "Department",
  "MRAcquisitionType": "2D",
  "MagneticFieldStrength": 3,
  "Manufacturer": "Siemens",
  "ManufacturersModelName": "Prisma_fit",
  "MatrixCoilMode": "SENSE",
  "Modality": "MR",
  "MultibandAccelerationFactor": 4,
  "PartialFourier": 1,
  "PatientPosition": "HFS",
  "PercentPhaseFOV": 100,
  "PercentSampling": 100,
  "PhaseEncodingDirection": "j",
  "PhaseEncodingSteps": 104,
  "PhaseResolution": 1,
  "PixelBandwidth": 2290,
  "ProcedureStepDescription": "video^friends",
  "ProtocolName": "func_task-friends-s05e19a",
  "PulseSequenceDetails": "%CustomerSeq%\\cmrr_mbep2d_bold",
  "ReceiveCoilActiveElements": "HC1-7;NC1,2",
  "ReceiveCoilName": "HeadNeck_64",
  "ReconMatrixPE": 104,
  "RepetitionTime": 1.49,
  "SAR": 0.0756212,
  "ScanOptions": "FS",
  "ScanningSequence": "EP",
  "SequenceName": "epfid2d1_104",
  "SequenceVariant": "SK\\SS",
  "SeriesDescription": "func_task-friends-s05e19a",
  "SeriesNumber": 17,
  "ShimSetting": [610, -7263, -8823, 470, -13, -366, -74, 30],
  "SliceThickness": 2,
  "SliceTiming": [0, 0.785, 0.0975, 0.8825, 0.195, 0.98, 0.295, 1.0775, 0.3925, 1.175, 0.49, 1.2725, 0.5875, 1.3725, 0.685, 0, 0.785, 0.0975, 0.8825, 0.195, 0.98, 0.295, 1.0775, 0.3925, 1.175, 0.49, 1.2725, 0.5875, 1.3725, 0.685, 0, 0.785, 0.0975, 0.8825, 0.195, 0.98, 0.295, 1.0775, 0.3925, 1.175, 0.49, 1.2725, 0.5875, 1.3725, 0.685, 0, 0.785, 0.0975, 0.8825, 0.195, 0.98, 0.295, 1.0775, 0.3925, 1.175, 0.49, 1.2725, 0.5875, 1.3725, 0.685],
  "SoftwareVersions": "syngo MR E11",
  "SpacingBetweenSlices": 2,
  "StationName": "MRC35049",
  "TaskName": "s05e19a",
  "TotalReadoutTime": 0.0576811,
  "TxRefAmp": 331.217,
  "WipMemBlock": "3c2a8a92-120c-40e6-a434-bb1dd4243225||Sequence: R016 ve11c/master r/e634e98; Dec 19 2017 11:00:25 by eja",
  "dcmmeta_affine": [
    [-1.9997756481170654, 0.02827301435172558, -0.009899302385747433, 98.93993377685547],
    [0.029944172129034996, 1.8681446313858032, -0.7135396599769592, -72.8079833984375],
    [0.0008402934763580561, 0.7136078476905823, 1.8683583736419678, -61.519378662109375],
    [0.0, 0.0, 0.0, 1.0]
],
  "dcmmeta_reorient_transform": [
    [0.0, -1.0, 0.0, 103.0],
    [1.0, 0.0, 0.0, 0.0],
    [0.0, 0.0, 1.0, 0.0],
    [0.0, 0.0, 0.0, 1.0]
],
  "dcmmeta_shape": [104, 104, 60, 446],
  "dcmmeta_slice_dim": 2,
  "dcmmeta_version": 0.6,
  "global": {
    "const": {
      "AcquisitionMatrix": [104, 0, 0, 104],
      "AngioFlag": "N",
      "BitsAllocated": 16,
      "BitsStored": 16,
      "BodyPartExamined": "BRAIN",
      "Columns": 832,
      "EchoNumbers": 1,
      "EchoTime": 37.0,
      "EchoTrainLength": 104,
      "FlipAngle": 52.0,
      "HighBit": 15,
      "ImageOrientationPatient": [0.99988782377157, -0.0149720856956, 0.00042014673378, 0.01413650683225, 0.93407233558942, -0.3568039112189],
      "ImagePositionPatient": [-840.06177057016, -788.71589826811, 271.42960603172],
      "ImageType": [
        "ORIGINAL",
        "PRIMARY",
        "M",
        "MB",
        "ND",
        "MOSAIC"
],
      "ImagedNucleus": "1H",
      "ImagingFrequency": 123.258805,
      "InPlanePhaseEncodingDirection": "COL",
      "MRAcquisitionType": "2D",
      "MagneticFieldStrength": 3.0,
      "Manufacturer": "SIEMENS",
      "ManufacturerModelName": "Prisma_fit",
      "Modality": "MR",
      "NumberOfAverages": 1.0,
      "NumberOfPhaseEncodingSteps": 104,
      "PercentPhaseFieldOfView": 100.0,
      "PercentSampling": 100.0,
      "PerformedProcedureStepStartTime": "174648.308000",
      "PhotometricInterpretation": "MONOCHROME2",
      "PixelBandwidth": 2290.0,
      "PixelRepresentation": 0,
      "PixelSpacing": [2.0, 2.0],
      "ProtocolName": "func_task-friends-s05e19a",
      "RepetitionTime": 1490.0,
      "Rows": 832,
      "SAR": 0.07562119468745,
      "SamplesPerPixel": 1,
      "ScanOptions": "FS",
      "ScanningSequence": "EP",
      "SequenceName": "epfid2d1_104",
      "SequenceVariant": [
        "SK",
        "SS"
],
      "SeriesDescription": "func_task-friends-s05e19a",
      "SeriesNumber": 17,
      "SeriesTime": "184835.798000",
      "SliceLocation": -31.984152034076,
      "SliceThickness": 2.0,
      "SmallestImagePixelValue": 0,
      "SoftwareVersions": "syngo MR E11",
      "SpacingBetweenSlices": 1.9999999682768,
      "SpecificCharacterSet": "ISO_IR 100",
      "StudyID": "1",
      "StudyTime": "174648.231000",
      "TransmitCoilName": "Body",
      "VariableFlipAngleFlag": "N",
      "WindowCenterWidthExplanation": "Algo1",
      "dBdt": 0.0},
    "slices": {}
  },
  "time": {
    "samples": {
      "AcquisitionNumber": [1, 2, 3, 4, 5, 6, 7, 8, 9, 10, 11, 12, 13, 14, 15, 16, 17, 18, 19, 20, 21, 22, 23, 24, 25, 26, 27, 28, 29, 30, 31, 32, 33, 34, 35, 36, 37, 38, 39, 40, 41, 42, 43, 44, 45, 46, 47, 48, 49, 50, 51, 52, 53, 54, 55, 56, 57, 58, 59, 60, 61, 62, 63, 64, 65, 66, 67, 68, 69, 70, 71, 72, 73, 74, 75, 76, 77, 78, 79, 80, 81, 82, 83, 84, 85, 86, 87, 88, 89, 90, 91, 92, 93, 94, 95, 96, 97, 98, 99, 100, 101, 102, 103, 104, 105, 106, 107, 108, 109, 110, 111, 112, 113, 114, 115, 116, 117, 118, 119, 120, 121, 122, 123, 124, 125, 126, 127, 128, 129, 130, 131, 132, 133, 134, 135, 136, 137, 138, 139, 140, 141, 142, 143, 144, 145, 146, 147, 148, 149, 150, 151, 152, 153, 154, 155, 156, 157, 158, 159, 160, 161, 162, 163, 164, 165, 166, 167, 168, 169, 170, 171, 172, 173, 174, 175, 176, 177, 178, 179, 180, 181, 182, 183, 184, 185, 186, 187, 188, 189, 190, 191, 192, 193, 194, 195, 196, 197, 198, 199, 200, 201, 202, 203, 204, 205, 206, 207, 208, 209, 210, 211, 212, 213, 214, 215, 216, 217, 218, 219, 220, 221, 222, 223, 224, 225, 226, 227, 228, 229, 230, 231, 232, 233, 234, 235, 236, 237, 238, 239, 240, 241, 242, 243, 244, 245, 246, 247, 248, 249, 250, 251, 252, 253, 254, 255, 256, 257, 258, 259, 260, 261, 262, 263, 264, 265, 266, 267, 268, 269, 270, 271, 272, 273, 274, 275, 276, 277, 278, 279, 280, 281, 282, 283, 284, 285, 286, 287, 288, 289, 290, 291, 292, 293, 294, 295, 296, 297, 298, 299, 300, 301, 302, 303, 304, 305, 306, 307, 308, 309, 310, 311, 312, 313, 314, 315, 316, 317, 318, 319, 320, 321, 322, 323, 324, 325, 326, 327, 328, 329, 330, 331, 332, 333, 334, 335, 336, 337, 338, 339, 340, 341, 342, 343, 344, 345, 346, 347, 348, 349, 350, 351, 352, 353, 354, 355, 356, 357, 358, 359, 360, 361, 362, 363, 364, 365, 366, 367, 368, 369, 370, 371, 372, 373, 374, 375, 376, 377, 378, 379, 380, 381, 382, 383, 384, 385, 386, 387, 388, 389, 390, 391, 392, 393, 394, 395, 396, 397, 398, 399, 400, 401, 402, 403, 404, 405, 406, 407, 408, 409, 410, 411, 412, 413, 414, 415, 416, 417, 418, 419, 420, 421, 422, 423, 424, 425, 426, 427, 428, 429, 430, 431, 432, 433, 434, 435, 436, 437, 438, 439, 440, 441, 442, 443, 444, 445, 446],
      "AcquisitionTime": ["184735.197500", "184736.687500", "184738.177500", "184739.667500", "184741.157500", "184742.647500", "184744.137500", "184745.627500", "184747.117500", "184748.607500", "184750.097500", "184751.587500", "184753.077500", "184754.567500", "184756.057500", "184757.547500", "184759.037500", "184800.527500", "184802.017500", "184803.507500", "184804.997500", "184806.487500", "184807.977500", "184809.467500", "184810.957500", "184812.447500", "184813.937500", "184815.427500", "184816.917500", "184818.407500", "184819.897500", "184821.387500", "184822.877500", "184824.367500", "184825.857500", "184827.347500", "184828.837500", "184830.327500", "184831.817500", "184833.307500", "184834.797500", "184836.287500", "184837.777500", "184839.267500", "184840.757500", "184842.247500", "184843.737500", "184845.227500", "184846.717500", "184848.207500", "184849.697500", "184851.187500", "184852.677500", "184854.167500", "184855.657500", "184857.147500", "184858.637500", "184900.127500", "184901.617500", "184903.107500", "184904.597500", "184906.087500", "184907.577500", "184909.067500", "184910.557500", "184912.047500", "184913.537500", "184915.027500", "184916.517500", "184918.007500", "184919.497500", "184920.987500", "184922.477500", "184923.967500", "184925.457500", "184926.947500", "184928.437500", "184929.927500", "184931.417500", "184932.907500", "184934.397500", "184935.887500", "184937.377500", "184938.867500", "184940.357500", "184941.847500", "184943.337500", "184944.827500", "184946.317500", "184947.807500", "184949.297500", "184950.787500", "184952.277500", "184953.767500", "184955.257500", "184956.747500", "184958.237500", "184959.727500", "185001.217500", "185002.707500", "185004.197500", "185005.687500", "185007.177500", "185008.667500", "185010.157500", "185011.647500", "185013.137500", "185014.627500", "185016.117500", "185017.607500", "185019.097500", "185020.587500", "185022.077500", "185023.567500", "185025.057500", "185026.547500", "185028.037500", "185029.527500", "185031.017500", "185032.507500", "185033.997500", "185035.487500", "185036.977500", "185038.467500", "185039.957500", "185041.447500", "185042.937500", "185044.427500", "185045.917500", "185047.407500", "185048.897500", "185050.387500", "185051.877500", "185053.367500", "185054.857500", "185056.347500", "185057.837500", "185059.327500", "185100.817500", "185102.307500", "185103.797500", "185105.287500", "185106.777500", "185108.267500", "185109.757500", "185111.247500", "185112.737500", "185114.227500", "185115.717500", "185117.207500", "185118.697500", "185120.187500", "185121.677500", "185123.167500", "185124.657500", "185126.147500", "185127.637500", "185129.127500", "185130.617500", "185132.107500", "185133.597500", "185135.087500", "185136.577500", "185138.067500", "185139.557500", "185141.047500", "185142.537500", "185144.027500", "185145.517500", "185147.007500", "185148.497500", "185149.987500", "185151.477500", "185152.967500", "185154.457500", "185155.947500", "185157.437500", "185158.927500", "185200.417500", "185201.907500", "185203.397500", "185204.887500", "185206.377500", "185207.867500", "185209.357500", "185210.847500", "185212.337500", "185213.827500", "185215.317500", "185216.807500", "185218.297500", "185219.787500", "185221.277500", "185222.767500", "185224.257500", "185225.747500", "185227.237500", "185228.727500", "185230.217500", "185231.707500", "185233.197500", "185234.687500", "185236.177500", "185237.667500", "185239.157500", "185240.647500", "185242.137500", "185243.627500", "185245.117500", "185246.607500", "185248.097500", "185249.587500", "185251.077500", "185252.567500", "185254.057500", "185255.547500", "185257.037500", "185258.527500", "185300.017500", "185301.507500", "185302.997500", "185304.487500", "185305.977500", "185307.467500", "185308.957500", "185310.447500", "185311.937500", "185313.427500", "185314.917500", "185316.407500", "185317.897500", "185319.387500", "185320.877500", "185322.367500", "185323.857500", "185325.347500", "185326.837500", "185328.327500", "185329.817500", "185331.307500", "185332.797500", "185334.287500", "185335.777500", "185337.267500", "185338.757500", "185340.247500", "185341.737500", "185343.227500", "185344.717500", "185346.207500", "185347.697500", "185349.187500", "185350.677500", "185352.167500", "185353.657500", "185355.147500", "185356.637500", "185358.127500", "185359.617500", "185401.107500", "185402.597500", "185404.087500", "185405.577500", "185407.067500", "185408.557500", "185410.047500", "185411.537500", "185413.027500", "185414.517500", "185416.007500", "185417.497500", "185418.987500", "185420.477500", "185421.967500", "185423.457500", "185424.947500", "185426.437500", "185427.927500", "185429.417500", "185430.907500", "185432.397500", "185433.887500", "185435.377500", "185436.867500", "185438.357500", "185439.847500", "185441.337500", "185442.827500", "185444.317500", "185445.807500", "185447.297500", "185448.787500", "185450.277500", "185451.767500", "185453.257500", "185454.747500", "185456.237500", "185457.727500", "185459.217500", "185500.707500", "185502.197500", "185503.687500", "185505.177500", "185506.667500", "185508.157500", "185509.647500", "185511.137500", "185512.627500", "185514.117500", "185515.607500", "185517.097500", "185518.587500", "185520.077500", "185521.567500", "185523.057500", "185524.547500", "185526.037500", "185527.527500", "185529.017500", "185530.507500", "185531.997500", "185533.487500", "185534.977500", "185536.467500", "185537.957500", "185539.447500", "185540.937500", "185542.427500", "185543.917500", "185545.407500", "185546.897500", "185548.387500", "185549.877500", "185551.367500", "185552.857500", "185554.347500", "185555.837500", "185557.327500", "185558.817500", "185600.307500", "185601.797500", "185603.287500", "185604.777500", "185606.267500", "185607.757500", "185609.247500", "185610.737500", "185612.227500", "185613.717500", "185615.207500", "185616.697500", "185618.187500", "185619.677500", "185621.167500", "185622.657500", "185624.147500", "185625.637500", "185627.127500", "185628.617500", "185630.107500", "185631.597500", "185633.087500", "185634.577500", "185636.067500", "185637.557500", "185639.047500", "185640.537500", "185642.027500", "185643.517500", "185645.007500", "185646.497500", "185647.987500", "185649.477500", "185650.967500", "185652.457500", "185653.947500", "185655.437500", "185656.927500", "185658.417500", "185659.907500", "185701.397500", "185702.887500", "185704.377500", "185705.867500", "185707.357500", "185708.847500", "185710.337500", "185711.827500", "185713.317500", "185714.807500", "185716.297500", "185717.787500", "185719.277500", "185720.767500", "185722.257500", "185723.747500", "185725.237500", "185726.727500", "185728.217500", "185729.707500", "185731.197500", "185732.687500", "185734.177500", "185735.667500", "185737.157500", "185738.647500", "185740.137500", "185741.627500", "185743.117500", "185744.607500", "185746.097500", "185747.587500", "185749.077500", "185750.567500", "185752.057500", "185753.547500", "185755.037500", "185756.527500", "185758.017500", "185759.507500", "185800.997500", "185802.487500", "185803.977500", "185805.467500", "185806.957500", "185808.447500", "185809.937500", "185811.427500", "185812.917500", "185814.407500", "185815.897500", "185817.387500", "185818.877500", "185820.367500", "185821.857500", "185823.347500", "185824.837500", "185826.327500", "185827.817500", "185829.307500", "185830.797500", "185832.287500", "185833.777500", "185835.267500", "185836.757500", "185838.247500"],
      "ContentTime": ["184835.801000", "184835.804000", "184835.827000", "184835.830000", "184835.833000", "184835.836000", "184835.839000", "184835.842000", "184855.773000", "184855.776000", "184855.779000", "184855.782000", "184855.785000", "184855.788000", "184855.790000", "184855.794000", "184855.796000", "184855.809000", "184855.811000", "184855.815000", "184855.818000", "184855.821000", "184855.824000", "184855.827000", "184855.830000", "184855.833000", "184855.836000", "184855.839000", "184915.772000", "184915.775000", "184915.778000", "184915.781000", "184915.784000", "184915.786000", "184915.789000", "184915.793000", "184915.795000", "184915.798000", "184915.801000", "184915.804000", "184915.807000", "184915.819000", "184915.822000", "184915.825000", "184915.828000", "184915.832000", "184915.836000", "184915.839000", "184935.772000", "184935.775000", "184935.778000", "184935.781000", "184935.803000", "184935.806000", "184935.809000", "184935.812000", "184935.815000", "184935.818000", "184935.820000", "184935.823000", "184935.826000", "184935.829000", "184935.832000", "184935.835000", "184935.838000", "184935.841000", "184935.851000", "184935.854000", "184935.857000", "184955.772000", "184955.775000", "184955.778000", "184955.781000", "184955.784000", "184955.786000", "184955.789000", "184955.792000", "184955.795000", "184955.798000", "184955.801000", "184955.804000", "184955.807000", "184955.816000", "184955.819000", "184955.822000", "184955.825000", "184955.828000", "184955.831000", "184955.834000", "185035.773000", "185035.776000", "185035.779000", "185035.782000", "185035.798000", "185035.801000", "185035.804000", "185035.806000", "185035.809000", "185035.812000", "185035.815000", "185035.818000", "185035.821000", "185035.824000", "185035.827000", "185035.830000", "185035.833000", "185035.836000", "185035.839000", "185035.841000", "185035.845000", "185035.847000", "185035.850000", "185035.853000", "185035.856000", "185035.859000", "185035.862000", "185035.865000", "185035.868000", "185035.871000", "185035.874000", "185035.877000", "185115.773000", "185115.776000", "185115.779000", "185115.782000", "185115.785000", "185115.788000", "185115.791000", "185115.793000", "185115.797000", "185115.799000", "185115.802000", "185115.805000", "185115.809000", "185115.811000", "185115.814000", "185115.817000", "185115.820000", "185115.824000", "185115.827000", "185115.830000", "185115.833000", "185115.836000", "185115.839000", "185115.842000", "185115.845000", "185115.848000", "185155.772000", "185155.809000", "185155.812000", "185155.815000", "185155.818000", "185155.821000", "185155.824000", "185155.827000", "185155.830000", "185155.833000", "185155.836000", "185155.839000", "185155.842000", "185155.845000", "185155.848000", "185155.850000", "185155.854000", "185155.856000", "185155.859000", "185155.862000", "185155.865000", "185155.868000", "185155.871000", "185155.878000", "185155.881000", "185155.884000", "185155.887000", "185235.772000", "185235.775000", "185235.778000", "185235.781000", "185235.784000", "185235.787000", "185235.790000", "185235.793000", "185235.796000", "185235.799000", "185235.802000", "185235.805000", "185235.807000", "185235.810000", "185235.813000", "185235.816000", "185235.819000", "185235.822000", "185235.825000", "185235.828000", "185235.831000", "185235.834000", "185235.837000", "185235.840000", "185235.843000", "185235.846000", "185235.849000", "185315.773000", "185315.776000", "185315.779000", "185315.782000", "185315.785000", "185315.788000", "185315.791000", "185315.794000", "185315.797000", "185315.799000", "185315.803000", "185315.805000", "185315.808000", "185315.811000", "185315.814000", "185315.817000", "185315.820000", "185315.823000", "185315.826000", "185315.829000", "185315.832000", "185315.835000", "185315.838000", "185315.840000", "185315.843000", "185315.846000", "185315.849000", "185355.772000", "185355.775000", "185355.778000", "185355.781000", "185355.784000", "185355.787000", "185355.790000", "185355.793000", "185355.796000", "185355.799000", "185355.802000", "185355.805000", "185355.808000", "185355.811000", "185355.813000", "185355.816000", "185355.819000", "185355.822000", "185355.825000", "185355.828000", "185355.831000", "185355.834000", "185355.837000", "185355.840000", "185355.842000", "185355.846000", "185355.862000", "185435.772000", "185435.775000", "185435.778000", "185435.781000", "185435.784000", "185435.787000", "185435.790000", "185435.793000", "185435.796000", "185435.798000", "185435.801000", "185435.804000", "185435.807000", "185435.810000", "185435.813000", "185435.816000", "185435.819000", "185435.822000", "185435.825000", "185435.828000", "185435.831000", "185435.834000", "185435.837000", "185435.839000", "185435.842000", "185435.845000", "185435.848000", "185515.773000", "185515.776000", "185515.779000", "185515.782000", "185515.785000", "185515.788000", "185515.791000", "185515.794000", "185515.797000", "185515.800000", "185515.803000", "185515.806000", "185515.809000", "185515.812000", "185515.815000", "185515.817000", "185515.820000", "185515.824000", "185515.827000", "185515.829000", "185515.832000", "185515.836000", "185515.839000", "185515.842000", "185515.845000", "185515.847000", "185555.773000", "185555.920000", "185555.923000", "185555.926000", "185555.929000", "185555.932000", "185555.935000", "185555.938000", "185555.942000", "185555.945000", "185555.948000", "185555.951000", "185555.960000", "185555.964000", "185555.966000", "185555.969000", "185555.972000", "185555.975000", "185555.978000", "185555.981000", "185555.984000", "185555.987000", "185555.990000", "185555.993000", "185555.996000", "185556.000000", "185556.003000", "185635.772000", "185635.787000", "185635.790000", "185635.793000", "185635.796000", "185635.798000", "185635.801000", "185635.804000", "185635.807000", "185635.810000", "185635.813000", "185635.816000", "185635.819000", "185635.822000", "185635.825000", "185635.828000", "185635.831000", "185635.834000", "185635.837000", "185635.840000", "185635.843000", "185635.846000", "185635.849000", "185635.852000", "185635.855000", "185635.858000", "185635.861000", "185715.772000", "185715.775000", "185715.778000", "185715.781000", "185715.784000", "185715.787000", "185715.790000", "185715.793000", "185715.796000", "185715.799000", "185715.802000", "185715.805000", "185715.808000", "185715.810000", "185715.813000", "185715.816000", "185715.819000", "185715.822000", "185715.825000", "185715.828000", "185715.831000", "185715.834000", "185715.837000", "185715.840000", "185715.843000", "185715.846000", "185715.848000", "185735.773000", "185735.776000", "185735.779000", "185735.782000", "185735.785000", "185735.788000", "185735.791000", "185735.794000", "185735.797000", "185735.800000", "185735.803000", "185735.806000", "185735.809000", "185815.773000", "185815.776000", "185815.779000", "185815.782000", "185815.785000", "185815.788000", "185815.791000", "185815.794000", "185815.797000", "185815.800000", "185815.803000", "185815.806000", "185815.809000", "185815.812000", "185815.814000", "185815.817000", "185815.820000", "185815.823000", "185815.826000", "185815.829000", "185815.832000", "185815.835000", "185815.838000", "185815.841000", "185815.844000", "185815.847000", "185815.850000", "185840.029000", "185840.033000", "185840.041000", "185840.044000", "185840.047000", "185840.049000", "185840.052000", "185840.055000", "185840.058000", "185840.061000", "185840.064000", "185840.067000", "185840.070000", "185840.073000", "185840.076000", "185840.079000", "185840.082000"],
