{
  "AcquisitionMatrixPE": 104,
  "AcquisitionNumber": 1,
  "AcquisitionTime": "18:05:20.315000",
  "BandwidthPerPixelPhaseEncode": 17.17,
  "BaseResolution": 104,
  "BodyPartExamined": "BRAIN",
  "CoilCombinationMethod": "Sum of Squares",
  "ConsistencyInfo": "N4_VE11C_LATEST_20160120",
  "ConversionSoftware": "dcm2niix",
  "ConversionSoftwareVersion": "v1.0.20220505",
  "DerivedVendorReportedEchoSpacing": 0.000560011,
  "DeviceSerialNumber": "167006",
  "DwellTime": 2.1e-06,
  "EchoTime": 0.037,
  "EchoTrainLength": 104,
  "EffectiveEchoSpacing": 0.000560011,
  "FlipAngle": 52,
  "HeudiconvVersion": "0.5.3.post811+g6206e14",
  "ImageComments": "Unaliased MB4/PE3/LB",
  "ImageOrientationPatientDICOM": [0.999888, -0.0149721, 0.000420147, 0.0141365, 0.934072, -0.356804],
  "ImageOrientationText": "Tra>Cor(-20.9)>Sag(-0.3)",
  "ImageType": [
    "ORIGINAL",
    "PRIMARY",
    "M",
    "MB",
    "ND",
    "MOSAIC"
],
  "ImagingFrequency": 123.259,
  "InPlanePhaseEncodingDirectionDICOM": "COL",
  "InstitutionAddress": "Chemin Queen-Mary 4565,Montreal,District,CA,H3W 1W5",
  "InstitutionName": "IUGM",
  "InstitutionalDepartmentName": "Department",
  "MRAcquisitionType": "2D",
  "MagneticFieldStrength": 3,
  "Manufacturer": "Siemens",
  "ManufacturersModelName": "Prisma_fit",
  "MatrixCoilMode": "SENSE",
  "Modality": "MR",
  "MultibandAccelerationFactor": 4,
  "PartialFourier": 1,
  "PatientPosition": "HFS",
  "PercentPhaseFOV": 100,
  "PercentSampling": 100,
  "PhaseEncodingDirection": "j",
  "PhaseEncodingSteps": 104,
  "PhaseResolution": 1,
  "PixelBandwidth": 2290,
  "ProcedureStepDescription": "video^friends",
  "ProtocolName": "func_task-friends-s05e17b",
  "PulseSequenceDetails": "%CustomerSeq%\\cmrr_mbep2d_bold",
  "ReceiveCoilActiveElements": "HC1-7;NC1,2",
  "ReceiveCoilName": "HeadNeck_64",
  "ReconMatrixPE": 104,
  "RepetitionTime": 1.49,
  "SAR": 0.0756488,
  "ScanOptions": "FS",
  "ScanningSequence": "EP",
  "SequenceName": "epfid2d1_104",
  "SequenceVariant": "SK\\SS",
  "SeriesDescription": "func_task-friends-s05e17b",
  "SeriesNumber": 11,
  "ShimSetting": [610, -7263, -8823, 470, -13, -366, -74, 30],
  "SliceThickness": 2,
  "SliceTiming": [0, 0.785, 0.0975, 0.8825, 0.1975, 0.98, 0.295, 1.0775, 0.3925, 1.1775, 0.49, 1.275, 0.5875, 1.3725, 0.6875, 0, 0.785, 0.0975, 0.8825, 0.1975, 0.98, 0.295, 1.0775, 0.3925, 1.1775, 0.49, 1.275, 0.5875, 1.3725, 0.6875, 0, 0.785, 0.0975, 0.8825, 0.1975, 0.98, 0.295, 1.0775, 0.3925, 1.1775, 0.49, 1.275, 0.5875, 1.3725, 0.6875, 0, 0.785, 0.0975, 0.8825, 0.1975, 0.98, 0.295, 1.0775, 0.3925, 1.1775, 0.49, 1.275, 0.5875, 1.3725, 0.6875],
  "SoftwareVersions": "syngo MR E11",
  "SpacingBetweenSlices": 2,
  "StationName": "MRC35049",
  "TaskName": "s05e17b",
  "TotalReadoutTime": 0.0576811,
  "TxRefAmp": 331.217,
  "WipMemBlock": "44a90bbc-ac38-4df9-88eb-e7ffd840b8c8||Sequence: R016 ve11c/master r/e634e98; Dec 19 2017 11:00:25 by eja",
  "dcmmeta_affine": [
    [-1.9997756481170654, 0.02827301435172558, -0.009899302385747433, 98.93993377685547],
    [0.029944172129034996, 1.8681446313858032, -0.7135396599769592, -72.8079833984375],
    [0.0008402934763580561, 0.7136078476905823, 1.8683583736419678, -61.519378662109375],
    [0.0, 0.0, 0.0, 1.0]
],
  "dcmmeta_reorient_transform": [
    [0.0, -1.0, 0.0, 103.0],
    [1.0, 0.0, 0.0, 0.0],
    [0.0, 0.0, 1.0, 0.0],
    [0.0, 0.0, 0.0, 1.0]
],
  "dcmmeta_shape": [104, 104, 60, 486],
  "dcmmeta_slice_dim": 2,
  "dcmmeta_version": 0.6,
  "global": {
    "const": {
      "AcquisitionMatrix": [104, 0, 0, 104],
      "AngioFlag": "N",
      "BitsAllocated": 16,
      "BitsStored": 16,
      "BodyPartExamined": "BRAIN",
      "Columns": 832,
      "EchoNumbers": 1,
      "EchoTime": 37.0,
      "EchoTrainLength": 104,
      "FlipAngle": 52.0,
      "HighBit": 15,
      "ImageOrientationPatient": [0.99988782377157, -0.0149720856956, 0.00042014673378, 0.01413650683225, 0.93407233558942, -0.3568039112189],
      "ImagePositionPatient": [-840.06177057016, -788.71589826811, 271.42960603172],
      "ImageType": [
        "ORIGINAL",
        "PRIMARY",
        "M",
        "MB",
        "ND",
        "MOSAIC"
],
      "ImagedNucleus": "1H",
      "ImagingFrequency": 123.258801,
      "InPlanePhaseEncodingDirection": "COL",
      "MRAcquisitionType": "2D",
      "MagneticFieldStrength": 3.0,
      "Manufacturer": "SIEMENS",
      "ManufacturerModelName": "Prisma_fit",
      "Modality": "MR",
      "NumberOfAverages": 1.0,
      "NumberOfPhaseEncodingSteps": 104,
      "PercentPhaseFieldOfView": 100.0,
      "PercentSampling": 100.0,
      "PerformedProcedureStepStartTime": "174648.308000",
      "PhotometricInterpretation": "MONOCHROME2",
      "PixelBandwidth": 2290.0,
      "PixelRepresentation": 0,
      "PixelSpacing": [2.0, 2.0],
      "ProtocolName": "func_task-friends-s05e17b",
      "RepetitionTime": 1490.0,
      "Rows": 832,
      "SAR": 0.07564876162521,
      "SamplesPerPixel": 1,
      "ScanOptions": "FS",
      "ScanningSequence": "EP",
      "SequenceName": "epfid2d1_104",
      "SequenceVariant": [
        "SK",
        "SS"
],
      "SeriesDescription": "func_task-friends-s05e17b",
      "SeriesNumber": 11,
      "SeriesTime": "180635.798000",
      "SliceLocation": -31.984152034076,
      "SliceThickness": 2.0,
      "SmallestImagePixelValue": 0,
      "SoftwareVersions": "syngo MR E11",
      "SpacingBetweenSlices": 1.9999999682768,
      "SpecificCharacterSet": "ISO_IR 100",
      "StudyID": "1",
      "StudyTime": "174648.231000",
      "TransmitCoilName": "Body",
      "VariableFlipAngleFlag": "N",
      "WindowCenterWidthExplanation": "Algo1",
      "dBdt": 0.0},
    "slices": {}
  },
  "time": {
    "samples": {
      "AcquisitionNumber": [1, 2, 3, 4, 5, 6, 7, 8, 9, 10, 11, 12, 13, 14, 15, 16, 17, 18, 19, 20, 21, 22, 23, 24, 25, 26, 27, 28, 29, 30, 31, 32, 33, 34, 35, 36, 37, 38, 39, 40, 41, 42, 43, 44, 45, 46, 47, 48, 49, 50, 51, 52, 53, 54, 55, 56, 57, 58, 59, 60, 61, 62, 63, 64, 65, 66, 67, 68, 69, 70, 71, 72, 73, 74, 75, 76, 77, 78, 79, 80, 81, 82, 83, 84, 85, 86, 87, 88, 89, 90, 91, 92, 93, 94, 95, 96, 97, 98, 99, 100, 101, 102, 103, 104, 105, 106, 107, 108, 109, 110, 111, 112, 113, 114, 115, 116, 117, 118, 119, 120, 121, 122, 123, 124, 125, 126, 127, 128, 129, 130, 131, 132, 133, 134, 135, 136, 137, 138, 139, 140, 141, 142, 143, 144, 145, 146, 147, 148, 149, 150, 151, 152, 153, 154, 155, 156, 157, 158, 159, 160, 161, 162, 163, 164, 165, 166, 167, 168, 169, 170, 171, 172, 173, 174, 175, 176, 177, 178, 179, 180, 181, 182, 183, 184, 185, 186, 187, 188, 189, 190, 191, 192, 193, 194, 195, 196, 197, 198, 199, 200, 201, 202, 203, 204, 205, 206, 207, 208, 209, 210, 211, 212, 213, 214, 215, 216, 217, 218, 219, 220, 221, 222, 223, 224, 225, 226, 227, 228, 229, 230, 231, 232, 233, 234, 235, 236, 237, 238, 239, 240, 241, 242, 243, 244, 245, 246, 247, 248, 249, 250, 251, 252, 253, 254, 255, 256, 257, 258, 259, 260, 261, 262, 263, 264, 265, 266, 267, 268, 269, 270, 271, 272, 273, 274, 275, 276, 277, 278, 279, 280, 281, 282, 283, 284, 285, 286, 287, 288, 289, 290, 291, 292, 293, 294, 295, 296, 297, 298, 299, 300, 301, 302, 303, 304, 305, 306, 307, 308, 309, 310, 311, 312, 313, 314, 315, 316, 317, 318, 319, 320, 321, 322, 323, 324, 325, 326, 327, 328, 329, 330, 331, 332, 333, 334, 335, 336, 337, 338, 339, 340, 341, 342, 343, 344, 345, 346, 347, 348, 349, 350, 351, 352, 353, 354, 355, 356, 357, 358, 359, 360, 361, 362, 363, 364, 365, 366, 367, 368, 369, 370, 371, 372, 373, 374, 375, 376, 377, 378, 379, 380, 381, 382, 383, 384, 385, 386, 387, 388, 389, 390, 391, 392, 393, 394, 395, 396, 397, 398, 399, 400, 401, 402, 403, 404, 405, 406, 407, 408, 409, 410, 411, 412, 413, 414, 415, 416, 417, 418, 419, 420, 421, 422, 423, 424, 425, 426, 427, 428, 429, 430, 431, 432, 433, 434, 435, 436, 437, 438, 439, 440, 441, 442, 443, 444, 445, 446, 447, 448, 449, 450, 451, 452, 453, 454, 455, 456, 457, 458, 459, 460, 461, 462, 463, 464, 465, 466, 467, 468, 469, 470, 471, 472, 473, 474, 475, 476, 477, 478, 479, 480, 481, 482, 483, 484, 485, 486],
      "AcquisitionTime": ["180520.315000", "180521.805000", "180523.295000", "180524.785000", "180526.275000", "180527.765000", "180529.255000", "180530.745000", "180532.235000", "180533.725000", "180535.215000", "180536.705000", "180538.195000", "180539.685000", "180541.175000", "180542.665000", "180544.155000", "180545.645000", "180547.135000", "180548.625000", "180550.115000", "180551.605000", "180553.095000", "180554.585000", "180556.075000", "180557.565000", "180559.055000", "180600.545000", "180602.035000", "180603.525000", "180605.015000", "180606.505000", "180607.995000", "180609.485000", "180610.975000", "180612.465000", "180613.955000", "180615.445000", "180616.935000", "180618.425000", "180619.915000", "180621.405000", "180622.895000", "180624.385000", "180625.875000", "180627.365000", "180628.855000", "180630.345000", "180631.835000", "180633.325000", "180634.815000", "180636.305000", "180637.795000", "180639.285000", "180640.775000", "180642.265000", "180643.755000", "180645.245000", "180646.735000", "180648.225000", "180649.715000", "180651.205000", "180652.695000", "180654.185000", "180655.675000", "180657.165000", "180658.655000", "180700.145000", "180701.635000", "180703.125000", "180704.615000", "180706.105000", "180707.595000", "180709.085000", "180710.575000", "180712.065000", "180713.555000", "180715.045000", "180716.535000", "180718.025000", "180719.515000", "180721.005000", "180722.495000", "180723.985000", "180725.475000", "180726.965000", "180728.455000", "180729.945000", "180731.435000", "180732.925000", "180734.415000", "180735.905000", "180737.395000", "180738.885000", "180740.375000", "180741.865000", "180743.355000", "180744.845000", "180746.335000", "180747.825000", "180749.315000", "180750.805000", "180752.295000", "180753.785000", "180755.275000", "180756.765000", "180758.255000", "180759.745000", "180801.235000", "180802.725000", "180804.215000", "180805.705000", "180807.195000", "180808.685000", "180810.175000", "180811.665000", "180813.155000", "180814.645000", "180816.135000", "180817.625000", "180819.115000", "180820.605000", "180822.095000", "180823.585000", "180825.075000", "180826.565000", "180828.055000", "180829.545000", "180831.035000", "180832.525000", "180834.015000", "180835.505000", "180836.995000", "180838.485000", "180839.975000", "180841.465000", "180842.955000", "180844.445000", "180845.935000", "180847.425000", "180848.915000", "180850.405000", "180851.895000", "180853.385000", "180854.875000", "180856.365000", "180857.855000", "180859.345000", "180900.835000", "180902.325000", "180903.815000", "180905.305000", "180906.795000", "180908.285000", "180909.775000", "180911.265000", "180912.755000", "180914.245000", "180915.735000", "180917.225000", "180918.715000", "180920.205000", "180921.695000", "180923.185000", "180924.675000", "180926.165000", "180927.655000", "180929.145000", "180930.635000", "180932.125000", "180933.615000", "180935.105000", "180936.595000", "180938.085000", "180939.575000", "180941.065000", "180942.555000", "180944.045000", "180945.535000", "180947.025000", "180948.515000", "180950.005000", "180951.495000", "180952.985000", "180954.475000", "180955.965000", "180957.455000", "180958.945000", "181000.435000", "181001.925000", "181003.415000", "181004.905000", "181006.395000", "181007.885000", "181009.375000", "181010.865000", "181012.355000", "181013.845000", "181015.335000", "181016.825000", "181018.315000", "181019.805000", "181021.295000", "181022.785000", "181024.275000", "181025.765000", "181027.255000", "181028.745000", "181030.235000", "181031.725000", "181033.215000", "181034.705000", "181036.195000", "181037.685000", "181039.175000", "181040.665000", "181042.155000", "181043.645000", "181045.135000", "181046.625000", "181048.115000", "181049.605000", "181051.095000", "181052.585000", "181054.075000", "181055.565000", "181057.055000", "181058.545000", "181100.035000", "181101.525000", "181103.015000", "181104.505000", "181105.995000", "181107.485000", "181108.975000", "181110.465000", "181111.955000", "181113.445000", "181114.935000", "181116.425000", "181117.915000", "181119.405000", "181120.895000", "181122.385000", "181123.875000", "181125.365000", "181126.855000", "181128.345000", "181129.835000", "181131.325000", "181132.815000", "181134.305000", "181135.795000", "181137.285000", "181138.775000", "181140.265000", "181141.755000", "181143.245000", "181144.735000", "181146.225000", "181147.715000", "181149.205000", "181150.695000", "181152.185000", "181153.675000", "181155.165000", "181156.655000", "181158.145000", "181159.635000", "181201.125000", "181202.615000", "181204.105000", "181205.595000", "181207.085000", "181208.575000", "181210.065000", "181211.555000", "181213.045000", "181214.535000", "181216.025000", "181217.515000", "181219.005000", "181220.495000", "181221.985000", "181223.475000", "181224.965000", "181226.455000", "181227.945000", "181229.435000", "181230.925000", "181232.415000", "181233.905000", "181235.395000", "181236.885000", "181238.375000", "181239.865000", "181241.355000", "181242.845000", "181244.335000", "181245.825000", "181247.315000", "181248.805000", "181250.295000", "181251.785000", "181253.275000", "181254.765000", "181256.255000", "181257.745000", "181259.235000", "181300.725000", "181302.215000", "181303.705000", "181305.195000", "181306.685000", "181308.175000", "181309.665000", "181311.155000", "181312.645000", "181314.135000", "181315.625000", "181317.115000", "181318.605000", "181320.095000", "181321.585000", "181323.075000", "181324.565000", "181326.055000", "181327.545000", "181329.035000", "181330.525000", "181332.015000", "181333.505000", "181334.995000", "181336.485000", "181337.975000", "181339.465000", "181340.955000", "181342.445000", "181343.935000", "181345.425000", "181346.915000", "181348.405000", "181349.895000", "181351.385000", "181352.875000", "181354.365000", "181355.855000", "181357.345000", "181358.835000", "181400.325000", "181401.815000", "181403.305000", "181404.795000", "181406.285000", "181407.775000", "181409.265000", "181410.755000", "181412.245000", "181413.735000", "181415.225000", "181416.715000", "181418.205000", "181419.695000", "181421.185000", "181422.675000", "181424.165000", "181425.655000", "181427.145000", "181428.635000", "181430.125000", "181431.615000", "181433.105000", "181434.595000", "181436.085000", "181437.575000", "181439.065000", "181440.555000", "181442.045000", "181443.535000", "181445.025000", "181446.515000", "181448.005000", "181449.495000", "181450.985000", "181452.475000", "181453.965000", "181455.455000", "181456.945000", "181458.435000", "181459.925000", "181501.415000", "181502.905000", "181504.395000", "181505.885000", "181507.375000", "181508.865000", "181510.355000", "181511.845000", "181513.335000", "181514.825000", "181516.315000", "181517.805000", "181519.295000", "181520.785000", "181522.275000", "181523.765000", "181525.255000", "181526.745000", "181528.235000", "181529.725000", "181531.215000", "181532.705000", "181534.195000", "181535.685000", "181537.175000", "181538.665000", "181540.155000", "181541.645000", "181543.135000", "181544.625000", "181546.115000", "181547.605000", "181549.095000", "181550.585000", "181552.075000", "181553.565000", "181555.055000", "181556.545000", "181558.035000", "181559.525000", "181601.015000", "181602.505000", "181603.995000", "181605.485000", "181606.975000", "181608.465000", "181609.955000", "181611.445000", "181612.935000", "181614.425000", "181615.915000", "181617.405000", "181618.895000", "181620.385000", "181621.875000", "181623.365000", "181624.855000", "181626.345000", "181627.835000", "181629.325000", "181630.815000", "181632.305000", "181633.795000", "181635.285000", "181636.775000", "181638.265000", "181639.755000", "181641.245000", "181642.735000", "181644.225000", "181645.715000", "181647.205000", "181648.695000", "181650.185000", "181651.675000", "181653.165000", "181654.655000", "181656.145000", "181657.635000", "181659.125000", "181700.615000", "181702.105000", "181703.595000", "181705.085000", "181706.575000", "181708.065000", "181709.555000", "181711.045000", "181712.535000", "181714.025000", "181715.515000", "181717.005000", "181718.495000", "181719.985000", "181721.475000", "181722.965000"],
      "ContentTime": ["180635.801000", "180635.804000", "180635.807000", "180635.810000", "180635.813000", "180635.816000", "180635.819000", "180635.822000", "180635.825000", "180635.828000", "180635.831000", "180635.834000", "180635.837000", "180635.840000", "180635.843000", "180635.846000", "180635.849000", "180635.861000", "180635.868000", "180635.871000", "180635.874000", "180635.877000", "180655.773000", "180655.777000", "180655.780000", "180655.783000", "180655.786000", "180655.789000", "180655.791000", "180655.794000", "180655.797000", "180655.800000", "180655.803000", "180655.806000", "180655.809000", "180655.812000", "180655.815000", "180655.818000", "180655.821000", "180655.824000", "180655.829000", "180655.832000", "180715.773000", "180715.776000", "180715.779000", "180715.782000", "180715.785000", "180715.788000", "180715.791000", "180715.794000", "180715.797000", "180715.800000", "180715.803000", "180715.805000", "180715.808000", "180715.811000", "180715.819000", "180715.821000", "180715.824000", "180715.827000", "180715.830000", "180715.833000", "180735.772000", "180735.775000", "180735.778000", "180735.781000", "180735.784000", "180735.787000", "180735.790000", "180735.793000", "180735.796000", "180735.799000", "180735.802000", "180735.804000", "180735.807000", "180735.810000", "180735.813000", "180735.816000", "180735.819000", "180735.822000", "180735.825000", "180735.828000", "180755.772000", "180755.874000", "180755.876000", "180755.880000", "180755.882000", "180755.885000", "180755.888000", "180755.891000", "180755.894000", "180755.897000", "180755.900000", "180755.903000", "180755.906000", "180755.909000", "180755.911000", "180755.915000", "180755.917000", "180755.920000", "180755.923000", "180755.926000", "180835.772000", "180835.775000", "180835.778000", "180835.781000", "180835.784000", "180835.787000", "180835.789000", "180835.793000", "180835.795000", "180835.798000", "180835.801000", "180835.804000", "180835.807000", "180835.810000", "180835.813000", "180835.816000", "180835.819000", "180835.834000", "180835.837000", "180835.840000", "180835.843000", "180835.846000", "180835.849000", "180835.852000", "180835.855000", "180835.858000", "180835.861000", "180835.864000", "180835.867000", "180915.773000", "180915.776000", "180915.779000", "180915.782000", "180915.785000", "180915.788000", "180915.796000", "180915.799000", "180915.802000", "180915.805000", "180915.808000", "180915.811000", "180915.813000", "180915.816000", "180915.819000", "180915.822000", "180915.825000", "180915.829000", "180915.832000", "180915.835000", "180915.838000", "180915.841000", "180915.844000", "180915.847000", "180915.850000", "180915.852000", "180955.772000", "180955.775000", "180955.778000", "180955.781000", "180955.784000", "180955.787000", "180955.790000", "180955.793000", "180955.796000", "180955.799000", "180955.802000", "180955.804000", "180955.807000", "180955.810000", "180955.813000", "180955.816000", "180955.819000", "180955.822000", "180955.834000", "180955.837000", "180955.840000", "180955.843000", "180955.846000", "180955.849000", "180955.851000", "180955.854000", "180955.857000", "181035.772000", "181035.775000", "181035.778000", "181035.781000", "181035.784000", "181035.787000", "181035.790000", "181035.793000", "181035.796000", "181035.799000", "181035.801000", "181035.804000", "181035.807000", "181035.810000", "181035.813000", "181035.816000", "181035.819000", "181035.822000", "181035.825000", "181035.828000", "181035.831000", "181035.834000", "181035.837000", "181035.840000", "181035.842000", "181035.845000", "181035.848000", "181115.773000", "181115.776000", "181115.779000", "181115.782000", "181115.785000", "181115.788000", "181115.791000", "181115.794000", "181115.797000", "181115.800000", "181115.802000", "181115.805000", "181115.808000", "181115.811000", "181115.814000", "181115.817000", "181115.820000", "181115.823000", "181115.826000", "181115.829000", "181115.832000", "181115.835000", "181115.838000", "181115.841000", "181115.844000", "181115.846000", "181115.849000", "181155.773000", "181155.784000", "181155.787000", "181155.791000", "181155.793000", "181155.796000", "181155.799000", "181155.802000", "181155.805000", "181155.808000", "181155.811000", "181155.814000", "181155.817000", "181155.820000", "181155.823000", "181155.826000", "181155.829000", "181155.832000", "181155.835000", "181155.838000", "181155.841000", "181155.844000", "181155.846000", "181155.850000", "181155.852000", "181155.855000", "181155.858000", "181235.772000", "181235.775000", "181235.778000", "181235.781000", "181235.784000", "181235.787000", "181235.790000", "181235.793000", "181235.796000", "181235.799000", "181235.802000", "181235.805000", "181235.808000", "181235.811000", "181235.814000", "181235.817000", "181235.820000", "181235.823000", "181235.826000", "181235.829000", "181235.832000", "181235.835000", "181235.838000", "181235.840000", "181235.843000", "181235.846000", "181235.849000", "181315.772000", "181315.775000", "181315.778000", "181315.781000", "181315.784000", "181315.787000", "181315.790000", "181315.793000", "181315.796000", "181315.799000", "181315.801000", "181315.805000", "181315.807000", "181315.810000", "181315.813000", "181315.816000", "181315.836000", "181315.839000", "181315.842000", "181315.845000", "181315.847000", "181315.851000", "181315.853000", "181315.856000", "181315.859000", "181315.863000", "181355.773000", "181355.776000", "181355.779000", "181355.782000", "181355.785000", "181355.788000", "181355.791000", "181355.794000", "181355.797000", "181355.800000", "181355.802000", "181355.811000", "181355.814000", "181355.817000", "181355.820000", "181355.823000", "181355.826000", "181355.829000", "181355.832000", "181355.835000", "181355.838000", "181355.840000", "181355.843000", "181355.846000", "181355.849000", "181355.852000", "181355.855000", "181435.772000", "181435.775000", "181435.778000", "181435.781000", "181435.784000", "181435.787000", "181435.790000", "181435.793000", "181435.796000", "181435.799000", "181435.802000", "181435.805000", "181435.808000", "181435.810000", "181435.814000", "181435.816000", "181435.819000", "181435.822000", "181435.825000", "181435.828000", "181435.831000", "181435.834000", "181435.837000", "181435.840000", "181435.843000", "181435.846000", "181435.849000", "181515.772000", "181515.775000", "181515.778000", "181515.781000", "181515.784000", "181515.787000", "181515.790000", "181515.793000", "181515.796000", "181515.799000", "181515.802000", "181515.804000", "181515.807000", "181515.810000", "181515.813000", "181515.816000", "181515.819000", "181515.822000", "181515.825000", "181515.828000", "181515.831000", "181515.834000", "181515.837000", "181515.840000", "181515.842000", "181515.845000", "181515.848000", "181555.773000", "181555.776000", "181555.779000", "181555.782000", "181555.785000", "181555.788000", "181555.791000", "181555.794000", "181555.797000", "181555.800000", "181555.803000", "181555.805000", "181555.809000", "181555.811000", "181555.814000", "181555.817000", "181555.820000", "181555.823000", "181555.826000", "181555.829000", "181555.832000", "181555.835000", "181555.838000", "181555.841000", "181555.844000", "181555.847000", "181555.850000", "181635.773000", "181635.776000", "181635.779000", "181635.782000", "181635.785000", "181635.788000", "181635.791000", "181635.794000", "181635.797000", "181635.800000", "181635.803000", "181635.806000", "181635.809000", "181635.812000", "181635.815000", "181635.818000", "181635.821000", "181635.823000", "181635.826000", "181635.829000", "181635.832000", "181635.835000", "181635.838000", "181635.841000", "181635.844000", "181635.847000", "181635.850000", "181715.772000", "181715.775000", "181715.778000", "181715.781000", "181715.784000", "181715.787000", "181715.790000", "181715.793000", "181715.796000", "181715.799000", "181715.802000", "181715.805000", "181715.808000", "181715.811000", "181715.814000", "181715.817000", "181715.820000", "181715.822000", "181715.825000", "181715.828000", "181715.831000", "181715.834000", "181715.837000", "181715.840000", "181715.843000", "181715.846000", "181715.849000", "181724.727000", "181724.730000", "181724.733000", "181724.736000", "181724.739000", "181724.742000"],
