{
  "AcquisitionMatrixPE": 104,
  "AcquisitionNumber": 1,
  "AcquisitionTime": "11:13:9.477500",
  "BandwidthPerPixelPhaseEncode": 17.17,
  "BaseResolution": 104,
  "BodyPartExamined": "BRAIN",
  "CoilString": "HC1-7;NC1_2",
  "ConsistencyInfo": "N4_VE11C_LATEST_20160120",
  "ConversionSoftware": "dcm2niix",
  "ConversionSoftwareVersion": "v1.0.20190902",
  "DerivedVendorReportedEchoSpacing": 0.000560011,
  "DeviceSerialNumber": "167006",
  "DwellTime": 2.1e-06,
  "EchoTime": 0.037,
  "EchoTrainLength": 104,
  "EffectiveEchoSpacing": 0.000560011,
  "FlipAngle": 52,
  "ImageComments": "Unaliased_MB4_PE3_LB",
  "ImageOrientationPatientDICOM": [0.998571, -0.0205761, -0.049324, 0.00662284, 0.963443, -0.267832],
  "ImageType": [
    "ORIGINAL",
    "PRIMARY",
    "M",
    "MB",
    "ND",
    "MOSAIC"
],
  "ImagingFrequency": 123.259,
  "InPlanePhaseEncodingDirectionDICOM": "COL",
  "InstitutionAddress": "Chemin_Queen-Mary_4565_Montreal_District_CA_H3W_1W5",
  "InstitutionName": "IUGM",
  "InstitutionalDepartmentName": "Department",
  "MRAcquisitionType": "2D",
  "MagneticFieldStrength": 3,
  "Manufacturer": "Siemens",
  "ManufacturersModelName": "Prisma_fit",
  "Modality": "MR",
  "MultibandAccelerationFactor": 4,
  "PartialFourier": 1,
  "PatientPosition": "HFS",
  "PercentPhaseFOV": 100,
  "PhaseEncodingDirection": "j",
  "PhaseEncodingSteps": 104,
  "PhaseResolution": 1,
  "PixelBandwidth": 2290,
  "ProcedureStepDescription": "video_friends",
  "ProtocolName": "func_task-friends-s03e11a",
  "PulseSequenceDetails": "%CustomerSeq%_cmrr_mbep2d_bold",
  "ReceiveCoilActiveElements": "HC1-7;NC1,2",
  "ReceiveCoilName": "HeadNeck_64",
  "ReconMatrixPE": 104,
  "RepetitionTime": 1.49,
  "SAR": 0.0290811,
  "ScanOptions": "FS",
  "ScanningSequence": "EP",
  "SequenceName": "epfid2d1_104",
  "SequenceVariant": "SK_SS",
  "SeriesDescription": "func_task-friends-s03e11a",
  "SeriesNumber": 13,
  "ShimSetting": [610, -7242, -8848, 605, -39, -290, -2, 28],
  "SliceThickness": 2,
  "SliceTiming": [0, 0.7825, 0.0975, 0.8825, 0.195, 0.98, 0.295, 1.0775, 0.3925, 1.175, 0.49, 1.2725, 0.5875, 1.3725, 0.685, 0, 0.7825, 0.0975, 0.8825, 0.195, 0.98, 0.295, 1.0775, 0.3925, 1.175, 0.49, 1.2725, 0.5875, 1.3725, 0.685, 0, 0.7825, 0.0975, 0.8825, 0.195, 0.98, 0.295, 1.0775, 0.3925, 1.175, 0.49, 1.2725, 0.5875, 1.3725, 0.685, 0, 0.7825, 0.0975, 0.8825, 0.195, 0.98, 0.295, 1.0775, 0.3925, 1.175, 0.49, 1.2725, 0.5875, 1.3725, 0.685],
  "SoftwareVersions": "syngo_MR_E11",
  "SpacingBetweenSlices": 2,
  "StationName": "MRC35049",
  "TaskName": "s03e11a",
  "TotalReadoutTime": 0.0576811,
  "TxRefAmp": 217.493,
  "WipMemBlock": "42432f7d-c7b0-4a4e-8af0-05b1bb806185||Sequence: R016 ve11c/master r/e634e98; Dec 19 2017 11:00:25 by eja",
  "dcmmeta_affine": [
    [-1.997141718864441, 0.013245672918856144, -0.1060636043548584, 101.22077941894531],
    [0.041152287274599075, 1.9268854856491089, -0.534246027469635, -82.47518157958984],
    [-0.09864798933267593, 0.5356648564338684, 1.924404263496399, -60.85124969482422],
    [0.0, 0.0, 0.0, 1.0]
],
  "dcmmeta_reorient_transform": [
    [0.0, -1.0, 0.0, 103.0],
    [1.0, 0.0, 0.0, 0.0],
    [0.0, 0.0, 1.0, 0.0],
    [0.0, 0.0, 0.0, 1.0]
],
  "dcmmeta_shape": [104, 104, 60, 457],
  "dcmmeta_slice_dim": 2,
  "dcmmeta_version": 0.6,
  "global": {
    "const": {
      "AcquisitionMatrix": [104, 0, 0, 104],
      "AngioFlag": "N",
      "BitsAllocated": 16,
      "BitsStored": 16,
      "BodyPartExamined": "BRAIN",
      "Columns": 832,
      "EchoNumbers": 1,
      "EchoTime": 37.0,
      "EchoTrainLength": 104,
      "FlipAngle": 52.0,
      "HighBit": 15,
      "ImageOrientationPatient": [0.99857086174289, -0.0205761443096, -0.0493239937902, 0.00662283661557, 0.9634427462489, -0.2678324340619],
      "ImagePositionPatient": [-834.36609571775, -802.40090873327, 225.21211107725],
      "ImageType": [
        "ORIGINAL",
        "PRIMARY",
        "M",
        "MB",
        "ND",
        "MOSAIC"
],
      "ImagedNucleus": "1H",
      "ImagingFrequency": 123.2594,
      "InPlanePhaseEncodingDirection": "COL",
      "MRAcquisitionType": "2D",
      "MagneticFieldStrength": 3.0,
      "Manufacturer": "SIEMENS",
      "ManufacturerModelName": "Prisma_fit",
      "Modality": "MR",
      "NumberOfAverages": 1.0,
      "NumberOfPhaseEncodingSteps": 104,
      "PercentPhaseFieldOfView": 100.0,
      "PercentSampling": 100.0,
      "PerformedProcedureStepStartTime": "101632.260000",
      "PhotometricInterpretation": "MONOCHROME2",
      "PixelBandwidth": 2290.0,
      "PixelRepresentation": 0,
      "PixelSpacing": [2.0, 2.0],
      "ProtocolName": "func_task-friends-s03e11a",
      "RepetitionTime": 1490.0,
      "Rows": 832,
      "SAR": 0.02908111926789,
      "SamplesPerPixel": 1,
      "ScanOptions": "FS",
      "ScanningSequence": "EP",
      "SequenceName": "epfid2d1_104",
      "SequenceVariant": [
        "SK",
        "SS"
],
      "SeriesDescription": "func_task-friends-s03e11a",
      "SeriesNumber": 13,
      "SeriesTime": "111438.458000",
      "SliceLocation": -41.888103983675,
      "SliceThickness": 2.0,
      "SmallestImagePixelValue": 0,
      "SoftwareVersions": "syngo MR E11",
      "SpacingBetweenSlices": 2.0000000246217,
      "SpecificCharacterSet": "ISO_IR 100",
      "StudyID": "1",
      "StudyTime": "101632.150000",
      "TransmitCoilName": "Body",
      "VariableFlipAngleFlag": "N",
      "WindowCenterWidthExplanation": "Algo1",
      "dBdt": 0.0},
    "slices": {}
  },
  "time": {
    "samples": {
      "AcquisitionNumber": [1, 2, 3, 4, 5, 6, 7, 8, 9, 10, 11, 12, 13, 14, 15, 16, 17, 18, 19, 20, 21, 22, 23, 24, 25, 26, 27, 28, 29, 30, 31, 32, 33, 34, 35, 36, 37, 38, 39, 40, 41, 42, 43, 44, 45, 46, 47, 48, 49, 50, 51, 52, 53, 54, 55, 56, 57, 58, 59, 60, 61, 62, 63, 64, 65, 66, 67, 68, 69, 70, 71, 72, 73, 74, 75, 76, 77, 78, 79, 80, 81, 82, 83, 84, 85, 86, 87, 88, 89, 90, 91, 92, 93, 94, 95, 96, 97, 98, 99, 100, 101, 102, 103, 104, 105, 106, 107, 108, 109, 110, 111, 112, 113, 114, 115, 116, 117, 118, 119, 120, 121, 122, 123, 124, 125, 126, 127, 128, 129, 130, 131, 132, 133, 134, 135, 136, 137, 138, 139, 140, 141, 142, 143, 144, 145, 146, 147, 148, 149, 150, 151, 152, 153, 154, 155, 156, 157, 158, 159, 160, 161, 162, 163, 164, 165, 166, 167, 168, 169, 170, 171, 172, 173, 174, 175, 176, 177, 178, 179, 180, 181, 182, 183, 184, 185, 186, 187, 188, 189, 190, 191, 192, 193, 194, 195, 196, 197, 198, 199, 200, 201, 202, 203, 204, 205, 206, 207, 208, 209, 210, 211, 212, 213, 214, 215, 216, 217, 218, 219, 220, 221, 222, 223, 224, 225, 226, 227, 228, 229, 230, 231, 232, 233, 234, 235, 236, 237, 238, 239, 240, 241, 242, 243, 244, 245, 246, 247, 248, 249, 250, 251, 252, 253, 254, 255, 256, 257, 258, 259, 260, 261, 262, 263, 264, 265, 266, 267, 268, 269, 270, 271, 272, 273, 274, 275, 276, 277, 278, 279, 280, 281, 282, 283, 284, 285, 286, 287, 288, 289, 290, 291, 292, 293, 294, 295, 296, 297, 298, 299, 300, 301, 302, 303, 304, 305, 306, 307, 308, 309, 310, 311, 312, 313, 314, 315, 316, 317, 318, 319, 320, 321, 322, 323, 324, 325, 326, 327, 328, 329, 330, 331, 332, 333, 334, 335, 336, 337, 338, 339, 340, 341, 342, 343, 344, 345, 346, 347, 348, 349, 350, 351, 352, 353, 354, 355, 356, 357, 358, 359, 360, 361, 362, 363, 364, 365, 366, 367, 368, 369, 370, 371, 372, 373, 374, 375, 376, 377, 378, 379, 380, 381, 382, 383, 384, 385, 386, 387, 388, 389, 390, 391, 392, 393, 394, 395, 396, 397, 398, 399, 400, 401, 402, 403, 404, 405, 406, 407, 408, 409, 410, 411, 412, 413, 414, 415, 416, 417, 418, 419, 420, 421, 422, 423, 424, 425, 426, 427, 428, 429, 430, 431, 432, 433, 434, 435, 436, 437, 438, 439, 440, 441, 442, 443, 444, 445, 446, 447, 448, 449, 450, 451, 452, 453, 454, 455, 456, 457],
      "AcquisitionTime": ["111309.477500", "111310.967500", "111312.457500", "111313.947500", "111315.437500", "111316.927500", "111318.417500", "111319.907500", "111321.397500", "111322.887500", "111324.377500", "111325.867500", "111327.357500", "111328.847500", "111330.337500", "111331.827500", "111333.317500", "111334.807500", "111336.297500", "111337.787500", "111339.277500", "111340.767500", "111342.257500", "111343.747500", "111345.237500", "111346.727500", "111348.217500", "111349.707500", "111351.197500", "111352.687500", "111354.177500", "111355.667500", "111357.157500", "111358.647500", "111400.137500", "111401.627500", "111403.117500", "111404.607500", "111406.097500", "111407.587500", "111409.077500", "111410.567500", "111412.057500", "111413.547500", "111415.037500", "111416.527500", "111418.017500", "111419.507500", "111420.997500", "111422.487500", "111423.977500", "111425.467500", "111426.957500", "111428.447500", "111429.937500", "111431.427500", "111432.917500", "111434.407500", "111435.897500", "111437.387500", "111438.877500", "111440.367500", "111441.857500", "111443.347500", "111444.837500", "111446.327500", "111447.817500", "111449.307500", "111450.797500", "111452.287500", "111453.777500", "111455.267500", "111456.757500", "111458.247500", "111459.737500", "111501.227500", "111502.717500", "111504.207500", "111505.697500", "111507.187500", "111508.677500", "111510.167500", "111511.657500", "111513.147500", "111514.637500", "111516.127500", "111517.617500", "111519.107500", "111520.597500", "111522.087500", "111523.577500", "111525.067500", "111526.557500", "111528.047500", "111529.537500", "111531.027500", "111532.517500", "111534.007500", "111535.497500", "111536.987500", "111538.477500", "111539.967500", "111541.457500", "111542.947500", "111544.437500", "111545.927500", "111547.417500", "111548.907500", "111550.397500", "111551.887500", "111553.377500", "111554.867500", "111556.357500", "111557.847500", "111559.337500", "111600.827500", "111602.317500", "111603.807500", "111605.297500", "111606.787500", "111608.277500", "111609.767500", "111611.257500", "111612.747500", "111614.237500", "111615.727500", "111617.217500", "111618.707500", "111620.197500", "111621.687500", "111623.177500", "111624.667500", "111626.157500", "111627.647500", "111629.137500", "111630.627500", "111632.117500", "111633.607500", "111635.097500", "111636.587500", "111638.077500", "111639.567500", "111641.057500", "111642.547500", "111644.037500", "111645.527500", "111647.017500", "111648.507500", "111649.997500", "111651.487500", "111652.977500", "111654.467500", "111655.957500", "111657.447500", "111658.937500", "111700.427500", "111701.917500", "111703.407500", "111704.897500", "111706.387500", "111707.877500", "111709.367500", "111710.857500", "111712.347500", "111713.837500", "111715.327500", "111716.817500", "111718.307500", "111719.797500", "111721.287500", "111722.777500", "111724.267500", "111725.757500", "111727.247500", "111728.737500", "111730.227500", "111731.717500", "111733.207500", "111734.697500", "111736.187500", "111737.677500", "111739.167500", "111740.657500", "111742.147500", "111743.637500", "111745.127500", "111746.617500", "111748.107500", "111749.597500", "111751.087500", "111752.577500", "111754.067500", "111755.557500", "111757.047500", "111758.537500", "111800.027500", "111801.517500", "111803.007500", "111804.497500", "111805.987500", "111807.477500", "111808.967500", "111810.457500", "111811.947500", "111813.437500", "111814.927500", "111816.417500", "111817.907500", "111819.397500", "111820.887500", "111822.377500", "111823.867500", "111825.357500", "111826.847500", "111828.337500", "111829.827500", "111831.317500", "111832.807500", "111834.297500", "111835.787500", "111837.277500", "111838.767500", "111840.257500", "111841.747500", "111843.237500", "111844.727500", "111846.217500", "111847.707500", "111849.197500", "111850.687500", "111852.177500", "111853.667500", "111855.157500", "111856.647500", "111858.137500", "111859.627500", "111901.117500", "111902.607500", "111904.097500", "111905.587500", "111907.077500", "111908.567500", "111910.057500", "111911.547500", "111913.037500", "111914.527500", "111916.017500", "111917.507500", "111918.997500", "111920.487500", "111921.977500", "111923.467500", "111924.957500", "111926.447500", "111927.937500", "111929.427500", "111930.917500", "111932.407500", "111933.897500", "111935.387500", "111936.877500", "111938.367500", "111939.857500", "111941.347500", "111942.837500", "111944.327500", "111945.817500", "111947.307500", "111948.797500", "111950.287500", "111951.777500", "111953.267500", "111954.757500", "111956.247500", "111957.737500", "111959.227500", "112000.717500", "112002.207500", "112003.697500", "112005.187500", "112006.677500", "112008.167500", "112009.657500", "112011.147500", "112012.637500", "112014.127500", "112015.617500", "112017.107500", "112018.597500", "112020.087500", "112021.577500", "112023.067500", "112024.557500", "112026.047500", "112027.537500", "112029.027500", "112030.517500", "112032.007500", "112033.497500", "112034.987500", "112036.477500", "112037.967500", "112039.457500", "112040.947500", "112042.437500", "112043.927500", "112045.417500", "112046.907500", "112048.397500", "112049.887500", "112051.377500", "112052.867500", "112054.357500", "112055.847500", "112057.337500", "112058.827500", "112100.317500", "112101.807500", "112103.297500", "112104.787500", "112106.277500", "112107.767500", "112109.257500", "112110.747500", "112112.237500", "112113.727500", "112115.217500", "112116.707500", "112118.197500", "112119.687500", "112121.177500", "112122.667500", "112124.157500", "112125.647500", "112127.137500", "112128.627500", "112130.117500", "112131.607500", "112133.097500", "112134.587500", "112136.077500", "112137.567500", "112139.057500", "112140.547500", "112142.037500", "112143.527500", "112145.017500", "112146.507500", "112147.997500", "112149.487500", "112150.977500", "112152.467500", "112153.957500", "112155.447500", "112156.937500", "112158.427500", "112159.917500", "112201.407500", "112202.897500", "112204.387500", "112205.877500", "112207.367500", "112208.857500", "112210.347500", "112211.837500", "112213.327500", "112214.817500", "112216.307500", "112217.797500", "112219.287500", "112220.777500", "112222.267500", "112223.757500", "112225.247500", "112226.737500", "112228.227500", "112229.717500", "112231.207500", "112232.697500", "112234.187500", "112235.677500", "112237.167500", "112238.657500", "112240.147500", "112241.637500", "112243.127500", "112244.617500", "112246.107500", "112247.597500", "112249.087500", "112250.577500", "112252.067500", "112253.557500", "112255.047500", "112256.537500", "112258.027500", "112259.517500", "112301.007500", "112302.497500", "112303.987500", "112305.477500", "112306.967500", "112308.457500", "112309.947500", "112311.437500", "112312.927500", "112314.417500", "112315.907500", "112317.397500", "112318.887500", "112320.377500", "112321.867500", "112323.357500", "112324.847500", "112326.337500", "112327.827500", "112329.317500", "112330.807500", "112332.297500", "112333.787500", "112335.277500", "112336.767500", "112338.257500", "112339.747500", "112341.237500", "112342.727500", "112344.217500", "112345.707500", "112347.197500", "112348.687500", "112350.177500", "112351.667500", "112353.157500", "112354.647500", "112356.137500", "112357.627500", "112359.117500", "112400.607500", "112402.097500", "112403.587500", "112405.077500", "112406.567500", "112408.057500", "112409.547500", "112411.037500", "112412.527500", "112414.017500", "112415.507500", "112416.997500", "112418.487500", "112419.977500", "112421.467500", "112422.957500", "112424.447500", "112425.937500", "112427.427500", "112428.917500"],
      "ContentTime": ["111438.461000", "111438.464000", "111438.467000", "111438.470000", "111438.473000", "111438.475000", "111438.478000", "111438.481000", "111438.484000", "111438.487000", "111438.490000", "111438.493000", "111438.496000", "111438.499000", "111438.501000", "111438.504000", "111438.507000", "111438.510000", "111438.516000", "111438.519000", "111438.521000", "111438.524000", "111438.527000", "111438.530000", "111438.539000", "111438.542000", "111438.545000", "111438.548000", "111438.551000", "111438.554000", "111438.557000", "111438.560000", "111438.563000", "111438.565000", "111438.568000", "111438.571000", "111458.425000", "111458.428000", "111458.431000", "111458.434000", "111458.436000", "111458.439000", "111458.442000", "111458.445000", "111458.448000", "111458.458000", "111458.461000", "111458.464000", "111458.467000", "111458.469000", "111458.472000", "111458.475000", "111458.478000", "111458.481000", "111458.484000", "111458.487000", "111518.424000", "111518.427000", "111518.430000", "111518.433000", "111518.436000", "111518.439000", "111518.442000", "111518.444000", "111518.447000", "111518.450000", "111518.453000", "111518.456000", "111518.459000", "111518.462000", "111518.464000", "111518.467000", "111518.470000", "111518.473000", "111518.476000", "111518.479000", "111538.424000", "111538.427000", "111538.430000", "111538.433000", "111538.436000", "111538.438000", "111538.441000", "111538.444000", "111538.447000", "111538.450000", "111538.453000", "111538.456000", "111538.459000", "111538.461000", "111538.465000", "111538.467000", "111538.470000", "111538.473000", "111538.476000", "111538.479000", "111618.424000", "111618.427000", "111618.430000", "111618.433000", "111618.436000", "111618.438000", "111618.441000", "111618.444000", "111618.447000", "111618.450000", "111618.453000", "111618.456000", "111618.458000", "111618.461000", "111618.464000", "111618.467000", "111618.470000", "111618.473000", "111618.476000", "111618.478000", "111618.481000", "111618.484000", "111618.487000", "111618.490000", "111618.493000", "111618.495000", "111618.498000", "111618.501000", "111618.504000", "111618.507000", "111658.425000", "111658.428000", "111658.431000", "111658.434000", "111658.436000", "111658.439000", "111658.442000", "111658.445000", "111658.448000", "111658.451000", "111658.454000", "111658.457000", "111658.459000", "111658.462000", "111658.465000", "111658.468000", "111658.471000", "111658.474000", "111658.477000", "111658.479000", "111658.482000", "111658.485000", "111658.488000", "111658.491000", "111658.494000", "111658.497000", "111658.499000", "111738.424000", "111738.427000", "111738.430000", "111738.433000", "111738.436000", "111738.439000", "111738.441000", "111738.444000", "111738.447000", "111738.450000", "111738.453000", "111738.456000", "111738.459000", "111738.462000", "111738.464000", "111738.467000", "111738.470000", "111738.473000", "111738.476000", "111738.479000", "111738.481000", "111738.484000", "111738.487000", "111738.490000", "111738.493000", "111738.496000", "111738.499000", "111818.424000", "111818.428000", "111818.431000", "111818.434000", "111818.437000", "111818.440000", "111818.443000", "111818.446000", "111818.449000", "111818.451000", "111818.454000", "111818.457000", "111818.460000", "111818.463000", "111818.466000", "111818.469000", "111818.472000", "111818.474000", "111818.477000", "111818.490000", "111818.509000", "111818.512000", "111818.515000", "111818.518000", "111818.521000", "111818.524000", "111858.424000", "111858.427000", "111858.430000", "111858.433000", "111858.436000", "111858.438000", "111858.441000", "111858.444000", "111858.447000", "111858.450000", "111858.453000", "111858.456000", "111858.459000", "111858.461000", "111858.464000", "111858.467000", "111858.470000", "111858.473000", "111858.476000", "111858.479000", "111858.481000", "111858.484000", "111858.487000", "111858.490000", "111858.493000", "111858.496000", "111858.499000", "111938.425000", "111938.428000", "111938.431000", "111938.434000", "111938.437000", "111938.440000", "111938.442000", "111938.445000", "111938.448000", "111938.451000", "111938.454000", "111938.457000", "111938.460000", "111938.463000", "111938.466000", "111938.468000", "111938.471000", "111938.482000", "111938.485000", "111938.488000", "111938.491000", "111938.494000", "111938.497000", "111938.500000", "111938.502000", "111938.505000", "111938.508000", "112018.424000", "112018.427000", "112018.430000", "112018.433000", "112018.436000", "112018.439000", "112018.442000", "112018.444000", "112018.447000", "112018.450000", "112018.453000", "112018.456000", "112018.459000", "112018.462000", "112018.465000", "112018.467000", "112018.470000", "112018.473000", "112018.476000", "112018.479000", "112018.482000", "112018.485000", "112018.488000", "112018.491000", "112018.494000", "112018.496000", "112018.499000", "112058.424000", "112058.427000", "112058.430000", "112058.433000", "112058.436000", "112058.439000", "112058.441000", "112058.445000", "112058.447000", "112058.450000", "112058.453000", "112058.456000", "112058.459000", "112058.462000", "112058.465000", "112058.468000", "112058.470000", "112058.473000", "112058.476000", "112058.479000", "112058.482000", "112058.485000", "112058.488000", "112058.491000", "112058.493000", "112058.496000", "112058.499000", "112138.425000", "112138.428000", "112138.431000", "112138.434000", "112138.437000", "112138.439000", "112138.442000", "112138.445000", "112138.448000", "112138.451000", "112138.454000", "112138.457000", "112138.460000", "112138.463000", "112138.465000", "112138.468000", "112138.471000", "112138.474000", "112138.477000", "112138.480000", "112138.483000", "112138.485000", "112138.488000", "112138.491000", "112138.494000", "112138.497000", "112138.500000", "112218.424000", "112218.427000", "112218.430000", "112218.433000", "112218.436000", "112218.439000", "112218.442000", "112218.445000", "112218.448000", "112218.451000", "112218.454000", "112218.457000", "112218.460000", "112218.462000", "112218.465000", "112218.468000", "112218.471000", "112218.485000", "112218.488000", "112218.490000", "112218.493000", "112218.502000", "112218.505000", "112218.507000", "112218.510000", "112218.513000", "112258.424000", "112258.427000", "112258.430000", "112258.433000", "112258.436000", "112258.438000", "112258.441000", "112258.444000", "112258.460000", "112258.463000", "112258.465000", "112258.468000", "112258.471000", "112258.474000", "112258.477000", "112258.480000", "112258.483000", "112258.486000", "112258.488000", "112258.491000", "112258.494000", "112258.497000", "112258.500000", "112258.503000", "112258.506000", "112258.508000", "112258.511000", "112338.424000", "112338.427000", "112338.430000", "112338.433000", "112338.436000", "112338.439000", "112338.441000", "112338.444000", "112338.447000", "112338.450000", "112338.453000", "112338.456000", "112338.459000", "112338.461000", "112338.464000", "112338.467000", "112338.470000", "112338.473000", "112338.476000", "112338.479000", "112338.482000", "112338.484000", "112338.487000", "112338.490000", "112338.493000", "112338.496000", "112338.499000", "112418.425000", "112418.428000", "112418.431000", "112418.434000", "112418.437000", "112418.440000", "112418.443000", "112418.445000", "112418.448000", "112418.451000", "112418.454000", "112418.457000", "112418.460000", "112418.463000", "112418.466000", "112418.468000", "112418.471000", "112418.474000", "112418.477000", "112418.480000", "112418.483000", "112418.486000", "112418.489000", "112418.492000", "112418.494000", "112418.497000", "112418.500000", "112431.098000", "112431.101000", "112431.103000", "112431.106000", "112431.109000", "112431.112000", "112431.115000", "112431.118000", "112431.121000"],
