{
  "AcquisitionMatrixPE": 104,
  "AcquisitionNumber": 1,
  "AcquisitionTime": "11:24:59.005000",
  "BandwidthPerPixelPhaseEncode": 17.17,
  "BaseResolution": 104,
  "BodyPartExamined": "BRAIN",
  "CoilString": "HC1-7;NC1_2",
  "ConsistencyInfo": "N4_VE11C_LATEST_20160120",
  "ConversionSoftware": "dcm2niix",
  "ConversionSoftwareVersion": "v1.0.20190902",
  "DerivedVendorReportedEchoSpacing": 0.000560011,
  "DeviceSerialNumber": "167006",
  "DwellTime": 2.1e-06,
  "EchoTime": 0.037,
  "EchoTrainLength": 104,
  "EffectiveEchoSpacing": 0.000560011,
  "FlipAngle": 52,
  "ImageComments": "Unaliased_MB4_PE3_LB",
  "ImageOrientationPatientDICOM": [0.998571, -0.0205761, -0.049324, 0.00662284, 0.963443, -0.267832],
  "ImageType": [
    "ORIGINAL",
    "PRIMARY",
    "M",
    "MB",
    "ND",
    "MOSAIC"
],
  "ImagingFrequency": 123.259,
  "InPlanePhaseEncodingDirectionDICOM": "COL",
  "InstitutionAddress": "Chemin_Queen-Mary_4565_Montreal_District_CA_H3W_1W5",
  "InstitutionName": "IUGM",
  "InstitutionalDepartmentName": "Department",
  "MRAcquisitionType": "2D",
  "MagneticFieldStrength": 3,
  "Manufacturer": "Siemens",
  "ManufacturersModelName": "Prisma_fit",
  "Modality": "MR",
  "MultibandAccelerationFactor": 4,
  "PartialFourier": 1,
  "PatientPosition": "HFS",
  "PercentPhaseFOV": 100,
  "PhaseEncodingDirection": "j",
  "PhaseEncodingSteps": 104,
  "PhaseResolution": 1,
  "PixelBandwidth": 2290,
  "ProcedureStepDescription": "video_friends",
  "ProtocolName": "func_task-friends-s03e11b",
  "PulseSequenceDetails": "%CustomerSeq%_cmrr_mbep2d_bold",
  "ReceiveCoilActiveElements": "HC1-7;NC1,2",
  "ReceiveCoilName": "HeadNeck_64",
  "ReconMatrixPE": 104,
  "RepetitionTime": 1.49,
  "SAR": 0.0290808,
  "ScanOptions": "FS",
  "ScanningSequence": "EP",
  "SequenceName": "epfid2d1_104",
  "SequenceVariant": "SK_SS",
  "SeriesDescription": "func_task-friends-s03e11b",
  "SeriesNumber": 15,
  "ShimSetting": [610, -7242, -8848, 605, -39, -290, -2, 28],
  "SliceThickness": 2,
  "SliceTiming": [0, 0.785, 0.0975, 0.8825, 0.1975, 0.98, 0.295, 1.0775, 0.3925, 1.1775, 0.49, 1.275, 0.5875, 1.3725, 0.6875, 0, 0.785, 0.0975, 0.8825, 0.1975, 0.98, 0.295, 1.0775, 0.3925, 1.1775, 0.49, 1.275, 0.5875, 1.3725, 0.6875, 0, 0.785, 0.0975, 0.8825, 0.1975, 0.98, 0.295, 1.0775, 0.3925, 1.1775, 0.49, 1.275, 0.5875, 1.3725, 0.6875, 0, 0.785, 0.0975, 0.8825, 0.1975, 0.98, 0.295, 1.0775, 0.3925, 1.1775, 0.49, 1.275, 0.5875, 1.3725, 0.6875],
  "SoftwareVersions": "syngo_MR_E11",
  "SpacingBetweenSlices": 2,
  "StationName": "MRC35049",
  "TaskName": "s03e11b",
  "TotalReadoutTime": 0.0576811,
  "TxRefAmp": 217.493,
  "WipMemBlock": "e88d167d-d39b-4b35-b2ab-fa8333585fc9||Sequence: R016 ve11c/master r/e634e98; Dec 19 2017 11:00:25 by eja",
  "dcmmeta_affine": [
    [-1.997141718864441, 0.013245672918856144, -0.1060636043548584, 101.22077941894531],
    [0.041152287274599075, 1.9268854856491089, -0.534246027469635, -82.47518157958984],
    [-0.09864798933267593, 0.5356648564338684, 1.924404263496399, -60.85124969482422],
    [0.0, 0.0, 0.0, 1.0]
],
  "dcmmeta_reorient_transform": [
    [0.0, -1.0, 0.0, 103.0],
    [1.0, 0.0, 0.0, 0.0],
    [0.0, 0.0, 1.0, 0.0],
    [0.0, 0.0, 0.0, 1.0]
],
  "dcmmeta_shape": [104, 104, 60, 456],
  "dcmmeta_slice_dim": 2,
  "dcmmeta_version": 0.6,
  "global": {
    "const": {
      "AcquisitionMatrix": [104, 0, 0, 104],
      "AngioFlag": "N",
      "BitsAllocated": 16,
      "BitsStored": 16,
      "BodyPartExamined": "BRAIN",
      "Columns": 832,
      "EchoNumbers": 1,
      "EchoTime": 37.0,
      "EchoTrainLength": 104,
      "FlipAngle": 52.0,
      "HighBit": 15,
      "ImageOrientationPatient": [0.99857086174289, -0.0205761443096, -0.0493239937902, 0.00662283661557, 0.9634427462489, -0.2678324340619],
      "ImagePositionPatient": [-834.36609571775, -802.40090873327, 225.21211107725],
      "ImageType": [
        "ORIGINAL",
        "PRIMARY",
        "M",
        "MB",
        "ND",
        "MOSAIC"
],
      "ImagedNucleus": "1H",
      "ImagingFrequency": 123.259406,
      "InPlanePhaseEncodingDirection": "COL",
      "MRAcquisitionType": "2D",
      "MagneticFieldStrength": 3.0,
      "Manufacturer": "SIEMENS",
      "ManufacturerModelName": "Prisma_fit",
      "Modality": "MR",
      "NumberOfAverages": 1.0,
      "NumberOfPhaseEncodingSteps": 104,
      "PercentPhaseFieldOfView": 100.0,
      "PercentSampling": 100.0,
      "PerformedProcedureStepStartTime": "101632.260000",
      "PhotometricInterpretation": "MONOCHROME2",
      "PixelBandwidth": 2290.0,
      "PixelRepresentation": 0,
      "PixelSpacing": [2.0, 2.0],
      "ProtocolName": "func_task-friends-s03e11b",
      "RepetitionTime": 1490.0,
      "Rows": 832,
      "SAR": 0.02908084396384,
      "SamplesPerPixel": 1,
      "ScanOptions": "FS",
      "ScanningSequence": "EP",
      "SequenceName": "epfid2d1_104",
      "SequenceVariant": [
        "SK",
        "SS"
],
      "SeriesDescription": "func_task-friends-s03e11b",
      "SeriesNumber": 15,
      "SeriesTime": "112556.667000",
      "SliceLocation": -41.888103983675,
      "SliceThickness": 2.0,
      "SmallestImagePixelValue": 0,
      "SoftwareVersions": "syngo MR E11",
      "SpacingBetweenSlices": 2.0000000246217,
      "SpecificCharacterSet": "ISO_IR 100",
      "StudyID": "1",
      "StudyTime": "101632.150000",
      "TransmitCoilName": "Body",
      "VariableFlipAngleFlag": "N",
      "WindowCenterWidthExplanation": "Algo1",
      "dBdt": 0.0},
    "slices": {}
  },
  "time": {
    "samples": {
      "AcquisitionNumber": [1, 2, 3, 4, 5, 6, 7, 8, 9, 10, 11, 12, 13, 14, 15, 16, 17, 18, 19, 20, 21, 22, 23, 24, 25, 26, 27, 28, 29, 30, 31, 32, 33, 34, 35, 36, 37, 38, 39, 40, 41, 42, 43, 44, 45, 46, 47, 48, 49, 50, 51, 52, 53, 54, 55, 56, 57, 58, 59, 60, 61, 62, 63, 64, 65, 66, 67, 68, 69, 70, 71, 72, 73, 74, 75, 76, 77, 78, 79, 80, 81, 82, 83, 84, 85, 86, 87, 88, 89, 90, 91, 92, 93, 94, 95, 96, 97, 98, 99, 100, 101, 102, 103, 104, 105, 106, 107, 108, 109, 110, 111, 112, 113, 114, 115, 116, 117, 118, 119, 120, 121, 122, 123, 124, 125, 126, 127, 128, 129, 130, 131, 132, 133, 134, 135, 136, 137, 138, 139, 140, 141, 142, 143, 144, 145, 146, 147, 148, 149, 150, 151, 152, 153, 154, 155, 156, 157, 158, 159, 160, 161, 162, 163, 164, 165, 166, 167, 168, 169, 170, 171, 172, 173, 174, 175, 176, 177, 178, 179, 180, 181, 182, 183, 184, 185, 186, 187, 188, 189, 190, 191, 192, 193, 194, 195, 196, 197, 198, 199, 200, 201, 202, 203, 204, 205, 206, 207, 208, 209, 210, 211, 212, 213, 214, 215, 216, 217, 218, 219, 220, 221, 222, 223, 224, 225, 226, 227, 228, 229, 230, 231, 232, 233, 234, 235, 236, 237, 238, 239, 240, 241, 242, 243, 244, 245, 246, 247, 248, 249, 250, 251, 252, 253, 254, 255, 256, 257, 258, 259, 260, 261, 262, 263, 264, 265, 266, 267, 268, 269, 270, 271, 272, 273, 274, 275, 276, 277, 278, 279, 280, 281, 282, 283, 284, 285, 286, 287, 288, 289, 290, 291, 292, 293, 294, 295, 296, 297, 298, 299, 300, 301, 302, 303, 304, 305, 306, 307, 308, 309, 310, 311, 312, 313, 314, 315, 316, 317, 318, 319, 320, 321, 322, 323, 324, 325, 326, 327, 328, 329, 330, 331, 332, 333, 334, 335, 336, 337, 338, 339, 340, 341, 342, 343, 344, 345, 346, 347, 348, 349, 350, 351, 352, 353, 354, 355, 356, 357, 358, 359, 360, 361, 362, 363, 364, 365, 366, 367, 368, 369, 370, 371, 372, 373, 374, 375, 376, 377, 378, 379, 380, 381, 382, 383, 384, 385, 386, 387, 388, 389, 390, 391, 392, 393, 394, 395, 396, 397, 398, 399, 400, 401, 402, 403, 404, 405, 406, 407, 408, 409, 410, 411, 412, 413, 414, 415, 416, 417, 418, 419, 420, 421, 422, 423, 424, 425, 426, 427, 428, 429, 430, 431, 432, 433, 434, 435, 436, 437, 438, 439, 440, 441, 442, 443, 444, 445, 446, 447, 448, 449, 450, 451, 452, 453, 454, 455, 456],
      "AcquisitionTime": ["112459.005000", "112500.495000", "112501.985000", "112503.475000", "112504.965000", "112506.455000", "112507.945000", "112509.435000", "112510.925000", "112512.415000", "112513.905000", "112515.395000", "112516.885000", "112518.375000", "112519.865000", "112521.355000", "112522.845000", "112524.335000", "112525.825000", "112527.315000", "112528.805000", "112530.295000", "112531.785000", "112533.275000", "112534.765000", "112536.255000", "112537.745000", "112539.235000", "112540.725000", "112542.215000", "112543.705000", "112545.195000", "112546.685000", "112548.175000", "112549.665000", "112551.155000", "112552.645000", "112554.135000", "112555.625000", "112557.115000", "112558.605000", "112600.095000", "112601.585000", "112603.075000", "112604.565000", "112606.055000", "112607.545000", "112609.035000", "112610.525000", "112612.015000", "112613.505000", "112614.995000", "112616.485000", "112617.975000", "112619.465000", "112620.955000", "112622.445000", "112623.935000", "112625.425000", "112626.915000", "112628.405000", "112629.895000", "112631.385000", "112632.875000", "112634.365000", "112635.855000", "112637.345000", "112638.835000", "112640.325000", "112641.815000", "112643.305000", "112644.795000", "112646.285000", "112647.775000", "112649.265000", "112650.755000", "112652.245000", "112653.735000", "112655.225000", "112656.715000", "112658.205000", "112659.695000", "112701.185000", "112702.675000", "112704.165000", "112705.655000", "112707.145000", "112708.635000", "112710.125000", "112711.615000", "112713.105000", "112714.595000", "112716.085000", "112717.575000", "112719.065000", "112720.555000", "112722.045000", "112723.535000", "112725.025000", "112726.515000", "112728.005000", "112729.495000", "112730.985000", "112732.475000", "112733.965000", "112735.455000", "112736.945000", "112738.435000", "112739.925000", "112741.415000", "112742.905000", "112744.395000", "112745.885000", "112747.375000", "112748.865000", "112750.355000", "112751.845000", "112753.335000", "112754.825000", "112756.315000", "112757.805000", "112759.295000", "112800.785000", "112802.275000", "112803.765000", "112805.255000", "112806.745000", "112808.235000", "112809.725000", "112811.215000", "112812.705000", "112814.195000", "112815.685000", "112817.175000", "112818.665000", "112820.155000", "112821.645000", "112823.135000", "112824.625000", "112826.115000", "112827.605000", "112829.095000", "112830.585000", "112832.075000", "112833.565000", "112835.055000", "112836.545000", "112838.035000", "112839.525000", "112841.015000", "112842.505000", "112843.995000", "112845.485000", "112846.975000", "112848.465000", "112849.955000", "112851.445000", "112852.935000", "112854.425000", "112855.915000", "112857.405000", "112858.895000", "112900.385000", "112901.875000", "112903.365000", "112904.855000", "112906.345000", "112907.835000", "112909.325000", "112910.815000", "112912.305000", "112913.795000", "112915.285000", "112916.775000", "112918.265000", "112919.755000", "112921.245000", "112922.735000", "112924.225000", "112925.715000", "112927.205000", "112928.695000", "112930.185000", "112931.675000", "112933.165000", "112934.655000", "112936.145000", "112937.635000", "112939.125000", "112940.615000", "112942.105000", "112943.595000", "112945.085000", "112946.575000", "112948.065000", "112949.555000", "112951.045000", "112952.535000", "112954.025000", "112955.515000", "112957.005000", "112958.495000", "112959.985000", "113001.475000", "113002.965000", "113004.455000", "113005.945000", "113007.435000", "113008.925000", "113010.415000", "113011.905000", "113013.395000", "113014.885000", "113016.375000", "113017.865000", "113019.355000", "113020.845000", "113022.335000", "113023.825000", "113025.315000", "113026.805000", "113028.295000", "113029.785000", "113031.275000", "113032.765000", "113034.255000", "113035.745000", "113037.235000", "113038.725000", "113040.215000", "113041.705000", "113043.195000", "113044.685000", "113046.175000", "113047.665000", "113049.155000", "113050.645000", "113052.135000", "113053.625000", "113055.115000", "113056.605000", "113058.095000", "113059.585000", "113101.075000", "113102.565000", "113104.055000", "113105.545000", "113107.035000", "113108.525000", "113110.015000", "113111.505000", "113112.995000", "113114.485000", "113115.975000", "113117.465000", "113118.955000", "113120.445000", "113121.935000", "113123.425000", "113124.915000", "113126.405000", "113127.895000", "113129.385000", "113130.875000", "113132.365000", "113133.855000", "113135.345000", "113136.835000", "113138.325000", "113139.815000", "113141.305000", "113142.795000", "113144.285000", "113145.775000", "113147.265000", "113148.755000", "113150.245000", "113151.735000", "113153.225000", "113154.715000", "113156.205000", "113157.695000", "113159.185000", "113200.675000", "113202.165000", "113203.655000", "113205.145000", "113206.635000", "113208.125000", "113209.615000", "113211.105000", "113212.595000", "113214.085000", "113215.575000", "113217.065000", "113218.555000", "113220.045000", "113221.535000", "113223.025000", "113224.515000", "113226.005000", "113227.495000", "113228.985000", "113230.475000", "113231.965000", "113233.455000", "113234.945000", "113236.435000", "113237.925000", "113239.415000", "113240.905000", "113242.395000", "113243.885000", "113245.375000", "113246.865000", "113248.355000", "113249.845000", "113251.335000", "113252.825000", "113254.315000", "113255.805000", "113257.295000", "113258.785000", "113300.275000", "113301.765000", "113303.255000", "113304.745000", "113306.235000", "113307.725000", "113309.215000", "113310.705000", "113312.195000", "113313.685000", "113315.175000", "113316.665000", "113318.155000", "113319.645000", "113321.135000", "113322.625000", "113324.115000", "113325.605000", "113327.095000", "113328.585000", "113330.075000", "113331.565000", "113333.055000", "113334.545000", "113336.035000", "113337.525000", "113339.015000", "113340.505000", "113341.995000", "113343.485000", "113344.975000", "113346.465000", "113347.955000", "113349.445000", "113350.935000", "113352.425000", "113353.915000", "113355.405000", "113356.895000", "113358.385000", "113359.875000", "113401.365000", "113402.855000", "113404.345000", "113405.835000", "113407.325000", "113408.815000", "113410.305000", "113411.795000", "113413.285000", "113414.775000", "113416.265000", "113417.755000", "113419.245000", "113420.735000", "113422.225000", "113423.715000", "113425.205000", "113426.695000", "113428.185000", "113429.675000", "113431.165000", "113432.655000", "113434.145000", "113435.635000", "113437.125000", "113438.615000", "113440.105000", "113441.595000", "113443.085000", "113444.575000", "113446.065000", "113447.555000", "113449.045000", "113450.535000", "113452.025000", "113453.515000", "113455.005000", "113456.495000", "113457.985000", "113459.475000", "113500.965000", "113502.455000", "113503.945000", "113505.435000", "113506.925000", "113508.415000", "113509.905000", "113511.395000", "113512.885000", "113514.375000", "113515.865000", "113517.355000", "113518.845000", "113520.335000", "113521.825000", "113523.315000", "113524.805000", "113526.295000", "113527.785000", "113529.275000", "113530.765000", "113532.255000", "113533.745000", "113535.235000", "113536.725000", "113538.215000", "113539.705000", "113541.195000", "113542.685000", "113544.175000", "113545.665000", "113547.155000", "113548.645000", "113550.135000", "113551.625000", "113553.115000", "113554.605000", "113556.095000", "113557.585000", "113559.075000", "113600.565000", "113602.055000", "113603.545000", "113605.035000", "113606.525000", "113608.015000", "113609.505000", "113610.995000", "113612.485000", "113613.975000", "113615.465000", "113616.955000"],
      "ContentTime": ["112556.671000", "112556.674000", "112616.636000", "112616.639000", "112616.642000", "112616.645000", "112616.647000", "112616.650000", "112616.653000", "112616.656000", "112616.659000", "112616.662000", "112616.665000", "112616.668000", "112616.670000", "112616.673000", "112616.676000", "112616.679000", "112616.682000", "112616.685000", "112616.687000", "112616.690000", "112636.637000", "112636.648000", "112636.651000", "112636.654000", "112636.657000", "112636.666000", "112636.668000", "112636.671000", "112636.674000", "112636.677000", "112636.680000", "112636.683000", "112636.686000", "112636.689000", "112636.691000", "112636.694000", "112636.697000", "112636.700000", "112636.703000", "112636.706000", "112636.708000", "112656.637000", "112656.640000", "112656.643000", "112656.651000", "112656.654000", "112656.657000", "112656.659000", "112656.662000", "112656.671000", "112656.674000", "112656.676000", "112656.679000", "112656.682000", "112656.685000", "112656.688000", "112656.691000", "112656.694000", "112656.697000", "112656.700000", "112656.703000", "112716.637000", "112716.640000", "112716.643000", "112716.646000", "112716.649000", "112716.651000", "112716.654000", "112716.657000", "112716.660000", "112716.663000", "112716.666000", "112716.669000", "112716.672000", "112716.675000", "112716.678000", "112716.680000", "112716.795000", "112716.798000", "112716.801000", "112716.804000", "112736.636000", "112736.639000", "112736.642000", "112736.645000", "112736.648000", "112736.650000", "112736.653000", "112736.656000", "112736.660000", "112736.664000", "112736.667000", "112736.670000", "112736.673000", "112736.676000", "112736.679000", "112736.682000", "112736.685000", "112736.688000", "112736.691000", "112736.693000", "112816.636000", "112816.639000", "112816.656000", "112816.659000", "112816.662000", "112816.665000", "112816.668000", "112816.671000", "112816.674000", "112816.677000", "112816.680000", "112816.683000", "112816.686000", "112816.688000", "112816.691000", "112816.694000", "112816.697000", "112816.700000", "112816.703000", "112816.706000", "112816.708000", "112816.711000", "112816.714000", "112816.717000", "112816.720000", "112816.723000", "112816.726000", "112816.728000", "112816.731000", "112856.637000", "112856.640000", "112856.643000", "112856.650000", "112856.653000", "112856.656000", "112856.659000", "112856.662000", "112856.665000", "112856.668000", "112856.671000", "112856.674000", "112856.677000", "112856.680000", "112856.682000", "112856.685000", "112856.688000", "112856.691000", "112856.694000", "112856.697000", "112856.700000", "112856.703000", "112856.705000", "112856.708000", "112856.711000", "112856.714000", "112856.717000", "112936.637000", "112936.640000", "112936.643000", "112936.646000", "112936.649000", "112936.651000", "112936.654000", "112936.657000", "112936.660000", "112936.663000", "112936.666000", "112936.669000", "112936.672000", "112936.675000", "112936.678000", "112936.681000", "112936.683000", "112936.686000", "112936.689000", "112936.692000", "112936.695000", "112936.698000", "112936.701000", "112936.703000", "112936.706000", "112936.709000", "112936.718000", "113016.636000", "113016.639000", "113016.642000", "113016.646000", "113016.649000", "113016.652000", "113016.654000", "113016.657000", "113016.660000", "113016.663000", "113016.666000", "113016.669000", "113016.672000", "113016.675000", "113016.678000", "113016.681000", "113016.683000", "113016.686000", "113016.689000", "113016.692000", "113016.695000", "113016.698000", "113016.701000", "113016.704000", "113016.706000", "113016.709000", "113056.637000", "113056.640000", "113056.643000", "113056.646000", "113056.649000", "113056.652000", "113056.655000", "113056.658000", "113056.660000", "113056.663000", "113056.666000", "113056.669000", "113056.672000", "113056.675000", "113056.677000", "113056.680000", "113056.683000", "113056.686000", "113056.689000", "113056.692000", "113056.695000", "113056.698000", "113056.700000", "113056.703000", "113056.706000", "113056.709000", "113056.712000", "113136.637000", "113136.640000", "113136.643000", "113136.646000", "113136.649000", "113136.652000", "113136.655000", "113136.657000", "113136.660000", "113136.663000", "113136.666000", "113136.669000", "113136.672000", "113136.675000", "113136.678000", "113136.681000", "113136.684000", "113136.686000", "113136.689000", "113136.692000", "113136.695000", "113136.698000", "113136.701000", "113136.704000", "113136.707000", "113136.709000", "113136.712000", "113216.636000", "113216.649000", "113216.652000", "113216.655000", "113216.658000", "113216.661000", "113216.664000", "113216.666000", "113216.669000", "113216.672000", "113216.675000", "113216.678000", "113216.681000", "113216.684000", "113216.687000", "113216.690000", "113216.692000", "113216.695000", "113216.698000", "113216.701000", "113216.704000", "113216.707000", "113216.710000", "113216.713000", "113216.715000", "113216.718000", "113216.721000", "113256.636000", "113256.639000", "113256.642000", "113256.645000", "113256.648000", "113256.651000", "113256.653000", "113256.656000", "113256.659000", "113256.662000", "113256.665000", "113256.668000", "113256.671000", "113256.674000", "113256.677000", "113256.680000", "113256.683000", "113256.685000", "113256.688000", "113256.691000", "113256.694000", "113256.697000", "113256.700000", "113256.702000", "113256.705000", "113256.708000", "113256.711000", "113336.637000", "113336.640000", "113336.643000", "113336.646000", "113336.649000", "113336.651000", "113336.654000", "113336.657000", "113336.660000", "113336.663000", "113336.666000", "113336.669000", "113336.672000", "113336.675000", "113336.677000", "113336.680000", "113336.683000", "113336.686000", "113336.689000", "113336.692000", "113336.695000", "113336.697000", "113336.700000", "113336.703000", "113336.706000", "113336.709000", "113336.712000", "113416.636000", "113416.639000", "113416.642000", "113416.645000", "113416.648000", "113416.651000", "113416.654000", "113416.656000", "113416.660000", "113416.663000", "113416.667000", "113416.669000", "113416.673000", "113416.676000", "113416.679000", "113416.682000", "113416.685000", "113416.688000", "113416.691000", "113416.693000", "113416.696000", "113416.699000", "113416.702000", "113416.705000", "113416.708000", "113416.711000", "113456.636000", "113456.639000", "113456.642000", "113456.645000", "113456.648000", "113456.651000", "113456.654000", "113456.656000", "113456.659000", "113456.662000", "113456.665000", "113456.668000", "113456.671000", "113456.674000", "113456.677000", "113456.680000", "113456.683000", "113456.685000", "113456.688000", "113456.691000", "113456.694000", "113456.697000", "113456.700000", "113456.702000", "113456.705000", "113456.708000", "113456.711000", "113536.637000", "113536.640000", "113536.643000", "113536.646000", "113536.649000", "113536.651000", "113536.654000", "113536.657000", "113536.660000", "113536.663000", "113536.666000", "113536.669000", "113536.672000", "113536.675000", "113536.677000", "113536.680000", "113536.683000", "113536.686000", "113536.689000", "113536.692000", "113536.695000", "113536.697000", "113536.700000", "113536.703000", "113536.706000", "113536.709000", "113536.712000", "113616.637000", "113616.640000", "113616.643000", "113616.646000", "113616.649000", "113616.652000", "113616.655000", "113616.657000", "113616.660000", "113616.663000", "113616.666000", "113616.669000", "113616.672000", "113616.675000", "113616.678000", "113616.687000", "113616.690000", "113616.693000", "113616.696000", "113616.699000", "113616.702000", "113616.705000", "113616.708000", "113616.710000", "113616.713000", "113616.716000", "113616.719000", "113618.906000", "113618.909000"],
