{
  "AcquisitionMatrixPE": 104,
  "AcquisitionNumber": 1,
  "AcquisitionTime": "10:49:46.402500",
  "BandwidthPerPixelPhaseEncode": 17.17,
  "BaseResolution": 104,
  "BodyPartExamined": "BRAIN",
  "CoilString": "HC1-7;NC1_2",
  "ConsistencyInfo": "N4_VE11C_LATEST_20160120",
  "ConversionSoftware": "dcm2niix",
  "ConversionSoftwareVersion": "v1.0.20190902",
  "DerivedVendorReportedEchoSpacing": 0.000560011,
  "DeviceSerialNumber": "167006",
  "DwellTime": 2.1e-06,
  "EchoTime": 0.037,
  "EchoTrainLength": 104,
  "EffectiveEchoSpacing": 0.000560011,
  "FlipAngle": 52,
  "ImageComments": "Unaliased_MB4_PE3_LB",
  "ImageOrientationPatientDICOM": [0.998571, -0.0205761, -0.049324, 0.00662284, 0.963443, -0.267832],
  "ImageType": [
    "ORIGINAL",
    "PRIMARY",
    "M",
    "MB",
    "ND",
    "MOSAIC"
],
  "ImagingFrequency": 123.259,
  "InPlanePhaseEncodingDirectionDICOM": "COL",
  "InstitutionAddress": "Chemin_Queen-Mary_4565_Montreal_District_CA_H3W_1W5",
  "InstitutionName": "IUGM",
  "InstitutionalDepartmentName": "Department",
  "MRAcquisitionType": "2D",
  "MagneticFieldStrength": 3,
  "Manufacturer": "Siemens",
  "ManufacturersModelName": "Prisma_fit",
  "Modality": "MR",
  "MultibandAccelerationFactor": 4,
  "PartialFourier": 1,
  "PatientPosition": "HFS",
  "PercentPhaseFOV": 100,
  "PhaseEncodingDirection": "j",
  "PhaseEncodingSteps": 104,
  "PhaseResolution": 1,
  "PixelBandwidth": 2290,
  "ProcedureStepDescription": "video_friends",
  "ProtocolName": "func_task-friends-s03e10a",
  "PulseSequenceDetails": "%CustomerSeq%_cmrr_mbep2d_bold",
  "ReceiveCoilActiveElements": "HC1-7;NC1,2",
  "ReceiveCoilName": "HeadNeck_64",
  "ReconMatrixPE": 104,
  "RepetitionTime": 1.49,
  "SAR": 0.0290795,
  "ScanOptions": "FS",
  "ScanningSequence": "EP",
  "SequenceName": "epfid2d1_104",
  "SequenceVariant": "SK_SS",
  "SeriesDescription": "func_task-friends-s03e10a",
  "SeriesNumber": 9,
  "ShimSetting": [610, -7242, -8848, 605, -39, -290, -2, 28],
  "SliceThickness": 2,
  "SliceTiming": [0, 0.785, 0.1, 0.8825, 0.1975, 0.98, 0.295, 1.08, 0.3925, 1.1775, 0.49, 1.275, 0.59, 1.3725, 0.6875, 0, 0.785, 0.1, 0.8825, 0.1975, 0.98, 0.295, 1.08, 0.3925, 1.1775, 0.49, 1.275, 0.59, 1.3725, 0.6875, 0, 0.785, 0.1, 0.8825, 0.1975, 0.98, 0.295, 1.08, 0.3925, 1.1775, 0.49, 1.275, 0.59, 1.3725, 0.6875, 0, 0.785, 0.1, 0.8825, 0.1975, 0.98, 0.295, 1.08, 0.3925, 1.1775, 0.49, 1.275, 0.59, 1.3725, 0.6875],
  "SoftwareVersions": "syngo_MR_E11",
  "SpacingBetweenSlices": 2,
  "StationName": "MRC35049",
  "TaskName": "s03e10a",
  "TotalReadoutTime": 0.0576811,
  "TxRefAmp": 217.493,
  "WipMemBlock": "dbcd6915-3595-4f7c-821f-f0c0b1bf6712||Sequence: R016 ve11c/master r/e634e98; Dec 19 2017 11:00:25 by eja",
  "dcmmeta_affine": [
    [-1.997141718864441, 0.013245672918856144, -0.1060636043548584, 101.22077941894531],
    [0.041152287274599075, 1.9268854856491089, -0.534246027469635, -82.47518157958984],
    [-0.09864798933267593, 0.5356648564338684, 1.924404263496399, -60.85124969482422],
    [0.0, 0.0, 0.0, 1.0]
],
  "dcmmeta_reorient_transform": [
    [0.0, -1.0, 0.0, 103.0],
    [1.0, 0.0, 0.0, 0.0],
    [0.0, 0.0, 1.0, 0.0],
    [0.0, 0.0, 0.0, 1.0]
],
  "dcmmeta_shape": [104, 104, 60, 451],
  "dcmmeta_slice_dim": 2,
  "dcmmeta_version": 0.6,
  "global": {
    "const": {
      "AcquisitionMatrix": [104, 0, 0, 104],
      "AngioFlag": "N",
      "BitsAllocated": 16,
      "BitsStored": 16,
      "BodyPartExamined": "BRAIN",
      "Columns": 832,
      "EchoNumbers": 1,
      "EchoTime": 37.0,
      "EchoTrainLength": 104,
      "FlipAngle": 52.0,
      "HighBit": 15,
      "ImageOrientationPatient": [0.99857086174289, -0.0205761443096, -0.0493239937902, 0.00662283661557, 0.9634427462489, -0.2678324340619],
      "ImagePositionPatient": [-834.36609571775, -802.40090873327, 225.21211107725],
      "ImageType": [
        "ORIGINAL",
        "PRIMARY",
        "M",
        "MB",
        "ND",
        "MOSAIC"
],
      "ImagedNucleus": "1H",
      "ImagingFrequency": 123.259386,
      "InPlanePhaseEncodingDirection": "COL",
      "MRAcquisitionType": "2D",
      "MagneticFieldStrength": 3.0,
      "Manufacturer": "SIEMENS",
      "ManufacturerModelName": "Prisma_fit",
      "Modality": "MR",
      "NumberOfAverages": 1.0,
      "NumberOfPhaseEncodingSteps": 104,
      "PercentPhaseFieldOfView": 100.0,
      "PercentSampling": 100.0,
      "PerformedProcedureStepStartTime": "101632.260000",
      "PhotometricInterpretation": "MONOCHROME2",
      "PixelBandwidth": 2290.0,
      "PixelRepresentation": 0,
      "PixelSpacing": [2.0, 2.0],
      "ProtocolName": "func_task-friends-s03e10a",
      "RepetitionTime": 1490.0,
      "Rows": 832,
      "SAR": 0.02907945022124,
      "SamplesPerPixel": 1,
      "ScanOptions": "FS",
      "ScanningSequence": "EP",
      "SequenceName": "epfid2d1_104",
      "SequenceVariant": [
        "SK",
        "SS"
],
      "SeriesDescription": "func_task-friends-s03e10a",
      "SeriesNumber": 9,
      "SeriesTime": "105136.669000",
      "SliceLocation": -41.888103983675,
      "SliceThickness": 2.0,
      "SmallestImagePixelValue": 0,
      "SoftwareVersions": "syngo MR E11",
      "SpacingBetweenSlices": 2.0000000246217,
      "SpecificCharacterSet": "ISO_IR 100",
      "StudyID": "1",
      "StudyTime": "101632.150000",
      "TransmitCoilName": "Body",
      "VariableFlipAngleFlag": "N",
      "WindowCenterWidthExplanation": "Algo1",
      "dBdt": 0.0},
    "slices": {}
  },
  "time": {
    "samples": {
      "AcquisitionNumber": [1, 2, 3, 4, 5, 6, 7, 8, 9, 10, 11, 12, 13, 14, 15, 16, 17, 18, 19, 20, 21, 22, 23, 24, 25, 26, 27, 28, 29, 30, 31, 32, 33, 34, 35, 36, 37, 38, 39, 40, 41, 42, 43, 44, 45, 46, 47, 48, 49, 50, 51, 52, 53, 54, 55, 56, 57, 58, 59, 60, 61, 62, 63, 64, 65, 66, 67, 68, 69, 70, 71, 72, 73, 74, 75, 76, 77, 78, 79, 80, 81, 82, 83, 84, 85, 86, 87, 88, 89, 90, 91, 92, 93, 94, 95, 96, 97, 98, 99, 100, 101, 102, 103, 104, 105, 106, 107, 108, 109, 110, 111, 112, 113, 114, 115, 116, 117, 118, 119, 120, 121, 122, 123, 124, 125, 126, 127, 128, 129, 130, 131, 132, 133, 134, 135, 136, 137, 138, 139, 140, 141, 142, 143, 144, 145, 146, 147, 148, 149, 150, 151, 152, 153, 154, 155, 156, 157, 158, 159, 160, 161, 162, 163, 164, 165, 166, 167, 168, 169, 170, 171, 172, 173, 174, 175, 176, 177, 178, 179, 180, 181, 182, 183, 184, 185, 186, 187, 188, 189, 190, 191, 192, 193, 194, 195, 196, 197, 198, 199, 200, 201, 202, 203, 204, 205, 206, 207, 208, 209, 210, 211, 212, 213, 214, 215, 216, 217, 218, 219, 220, 221, 222, 223, 224, 225, 226, 227, 228, 229, 230, 231, 232, 233, 234, 235, 236, 237, 238, 239, 240, 241, 242, 243, 244, 245, 246, 247, 248, 249, 250, 251, 252, 253, 254, 255, 256, 257, 258, 259, 260, 261, 262, 263, 264, 265, 266, 267, 268, 269, 270, 271, 272, 273, 274, 275, 276, 277, 278, 279, 280, 281, 282, 283, 284, 285, 286, 287, 288, 289, 290, 291, 292, 293, 294, 295, 296, 297, 298, 299, 300, 301, 302, 303, 304, 305, 306, 307, 308, 309, 310, 311, 312, 313, 314, 315, 316, 317, 318, 319, 320, 321, 322, 323, 324, 325, 326, 327, 328, 329, 330, 331, 332, 333, 334, 335, 336, 337, 338, 339, 340, 341, 342, 343, 344, 345, 346, 347, 348, 349, 350, 351, 352, 353, 354, 355, 356, 357, 358, 359, 360, 361, 362, 363, 364, 365, 366, 367, 368, 369, 370, 371, 372, 373, 374, 375, 376, 377, 378, 379, 380, 381, 382, 383, 384, 385, 386, 387, 388, 389, 390, 391, 392, 393, 394, 395, 396, 397, 398, 399, 400, 401, 402, 403, 404, 405, 406, 407, 408, 409, 410, 411, 412, 413, 414, 415, 416, 417, 418, 419, 420, 421, 422, 423, 424, 425, 426, 427, 428, 429, 430, 431, 432, 433, 434, 435, 436, 437, 438, 439, 440, 441, 442, 443, 444, 445, 446, 447, 448, 449, 450, 451],
      "AcquisitionTime": ["104946.402500", "104947.892500", "104949.382500", "104950.872500", "104952.362500", "104953.852500", "104955.342500", "104956.832500", "104958.322500", "104959.812500", "105001.302500", "105002.792500", "105004.282500", "105005.772500", "105007.262500", "105008.752500", "105010.242500", "105011.732500", "105013.222500", "105014.712500", "105016.202500", "105017.692500", "105019.182500", "105020.672500", "105022.162500", "105023.652500", "105025.142500", "105026.632500", "105028.122500", "105029.612500", "105031.102500", "105032.592500", "105034.082500", "105035.572500", "105037.062500", "105038.552500", "105040.042500", "105041.532500", "105043.022500", "105044.512500", "105046.002500", "105047.492500", "105048.982500", "105050.472500", "105051.962500", "105053.452500", "105054.942500", "105056.432500", "105057.922500", "105059.412500", "105100.902500", "105102.392500", "105103.882500", "105105.372500", "105106.862500", "105108.352500", "105109.842500", "105111.332500", "105112.822500", "105114.312500", "105115.802500", "105117.292500", "105118.782500", "105120.272500", "105121.762500", "105123.252500", "105124.742500", "105126.232500", "105127.722500", "105129.212500", "105130.702500", "105132.192500", "105133.682500", "105135.172500", "105136.662500", "105138.152500", "105139.642500", "105141.132500", "105142.622500", "105144.112500", "105145.602500", "105147.092500", "105148.582500", "105150.072500", "105151.562500", "105153.052500", "105154.542500", "105156.032500", "105157.522500", "105159.012500", "105200.502500", "105201.992500", "105203.482500", "105204.972500", "105206.462500", "105207.952500", "105209.442500", "105210.932500", "105212.422500", "105213.912500", "105215.402500", "105216.892500", "105218.382500", "105219.872500", "105221.362500", "105222.852500", "105224.342500", "105225.832500", "105227.322500", "105228.812500", "105230.302500", "105231.792500", "105233.282500", "105234.772500", "105236.262500", "105237.752500", "105239.242500", "105240.732500", "105242.222500", "105243.712500", "105245.202500", "105246.692500", "105248.182500", "105249.672500", "105251.162500", "105252.652500", "105254.142500", "105255.632500", "105257.122500", "105258.612500", "105300.102500", "105301.592500", "105303.082500", "105304.572500", "105306.062500", "105307.552500", "105309.042500", "105310.532500", "105312.022500", "105313.512500", "105315.002500", "105316.492500", "105317.982500", "105319.472500", "105320.962500", "105322.452500", "105323.942500", "105325.432500", "105326.922500", "105328.412500", "105329.902500", "105331.392500", "105332.882500", "105334.372500", "105335.862500", "105337.352500", "105338.842500", "105340.332500", "105341.822500", "105343.312500", "105344.802500", "105346.292500", "105347.782500", "105349.272500", "105350.762500", "105352.252500", "105353.742500", "105355.232500", "105356.722500", "105358.212500", "105359.702500", "105401.192500", "105402.682500", "105404.172500", "105405.662500", "105407.152500", "105408.642500", "105410.132500", "105411.622500", "105413.112500", "105414.602500", "105416.092500", "105417.582500", "105419.072500", "105420.562500", "105422.052500", "105423.542500", "105425.032500", "105426.522500", "105428.012500", "105429.502500", "105430.992500", "105432.482500", "105433.972500", "105435.462500", "105436.952500", "105438.442500", "105439.932500", "105441.422500", "105442.912500", "105444.402500", "105445.892500", "105447.382500", "105448.872500", "105450.362500", "105451.852500", "105453.342500", "105454.832500", "105456.322500", "105457.812500", "105459.302500", "105500.792500", "105502.282500", "105503.772500", "105505.262500", "105506.752500", "105508.242500", "105509.732500", "105511.222500", "105512.712500", "105514.202500", "105515.692500", "105517.182500", "105518.672500", "105520.162500", "105521.652500", "105523.142500", "105524.632500", "105526.122500", "105527.612500", "105529.102500", "105530.592500", "105532.082500", "105533.572500", "105535.062500", "105536.552500", "105538.042500", "105539.532500", "105541.022500", "105542.512500", "105544.002500", "105545.492500", "105546.982500", "105548.472500", "105549.962500", "105551.452500", "105552.942500", "105554.432500", "105555.922500", "105557.412500", "105558.902500", "105600.392500", "105601.882500", "105603.372500", "105604.862500", "105606.352500", "105607.842500", "105609.332500", "105610.822500", "105612.312500", "105613.802500", "105615.292500", "105616.782500", "105618.272500", "105619.762500", "105621.252500", "105622.742500", "105624.232500", "105625.722500", "105627.212500", "105628.702500", "105630.192500", "105631.682500", "105633.172500", "105634.662500", "105636.152500", "105637.642500", "105639.132500", "105640.622500", "105642.112500", "105643.602500", "105645.092500", "105646.582500", "105648.072500", "105649.562500", "105651.052500", "105652.542500", "105654.032500", "105655.522500", "105657.012500", "105658.502500", "105659.992500", "105701.482500", "105702.972500", "105704.462500", "105705.952500", "105707.442500", "105708.932500", "105710.422500", "105711.912500", "105713.402500", "105714.892500", "105716.382500", "105717.872500", "105719.362500", "105720.852500", "105722.342500", "105723.832500", "105725.322500", "105726.812500", "105728.302500", "105729.792500", "105731.282500", "105732.772500", "105734.262500", "105735.752500", "105737.242500", "105738.732500", "105740.222500", "105741.712500", "105743.202500", "105744.692500", "105746.182500", "105747.672500", "105749.162500", "105750.652500", "105752.142500", "105753.632500", "105755.122500", "105756.612500", "105758.102500", "105759.592500", "105801.082500", "105802.572500", "105804.062500", "105805.552500", "105807.042500", "105808.532500", "105810.022500", "105811.512500", "105813.002500", "105814.492500", "105815.982500", "105817.472500", "105818.962500", "105820.452500", "105821.942500", "105823.432500", "105824.922500", "105826.412500", "105827.902500", "105829.392500", "105830.882500", "105832.372500", "105833.862500", "105835.352500", "105836.842500", "105838.332500", "105839.822500", "105841.312500", "105842.802500", "105844.292500", "105845.782500", "105847.272500", "105848.762500", "105850.252500", "105851.742500", "105853.232500", "105854.722500", "105856.212500", "105857.702500", "105859.192500", "105900.682500", "105902.172500", "105903.662500", "105905.152500", "105906.642500", "105908.132500", "105909.622500", "105911.112500", "105912.602500", "105914.092500", "105915.582500", "105917.072500", "105918.562500", "105920.052500", "105921.542500", "105923.032500", "105924.522500", "105926.012500", "105927.502500", "105928.992500", "105930.482500", "105931.972500", "105933.462500", "105934.952500", "105936.442500", "105937.932500", "105939.422500", "105940.912500", "105942.402500", "105943.892500", "105945.382500", "105946.872500", "105948.362500", "105949.852500", "105951.342500", "105952.832500", "105954.322500", "105955.812500", "105957.302500", "105958.792500", "110000.282500", "110001.772500", "110003.262500", "110004.752500", "110006.242500", "110007.732500", "110009.222500", "110010.712500", "110012.202500", "110013.692500", "110015.182500", "110016.672500", "110018.162500", "110019.652500", "110021.142500", "110022.632500", "110024.122500", "110025.612500", "110027.102500", "110028.592500", "110030.082500", "110031.572500", "110033.062500", "110034.552500", "110036.042500", "110037.532500", "110039.022500", "110040.512500", "110042.002500", "110043.492500", "110044.982500", "110046.472500", "110047.962500", "110049.452500", "110050.942500", "110052.432500", "110053.922500", "110055.412500", "110056.902500"],
      "ContentTime": ["105136.672000", "105136.675000", "105136.678000", "105136.681000", "105136.684000", "105136.687000", "105136.697000", "105136.700000", "105136.703000", "105136.705000", "105136.708000", "105136.711000", "105136.723000", "105136.726000", "105136.729000", "105136.732000", "105136.735000", "105136.737000", "105136.740000", "105136.743000", "105136.746000", "105136.749000", "105136.751000", "105136.754000", "105136.757000", "105136.760000", "105136.763000", "105136.766000", "105136.769000", "105136.772000", "105136.779000", "105136.782000", "105136.785000", "105136.788000", "105136.791000", "105136.794000", "105136.797000", "105156.637000", "105156.640000", "105156.643000", "105156.646000", "105156.648000", "105156.651000", "105156.654000", "105156.657000", "105156.660000", "105156.663000", "105156.666000", "105156.668000", "105156.671000", "105156.674000", "105156.677000", "105156.680000", "105156.682000", "105156.685000", "105156.695000", "105156.698000", "105216.637000", "105216.640000", "105216.643000", "105216.646000", "105216.649000", "105216.652000", "105216.654000", "105216.657000", "105216.660000", "105216.663000", "105216.666000", "105216.669000", "105216.672000", "105216.675000", "105216.678000", "105216.682000", "105216.685000", "105216.688000", "105216.691000", "105216.694000", "105236.636000", "105236.639000", "105236.642000", "105236.645000", "105236.648000", "105236.650000", "105236.653000", "105236.656000", "105236.659000", "105236.662000", "105236.665000", "105236.668000", "105236.670000", "105236.673000", "105236.676000", "105236.679000", "105236.682000", "105236.685000", "105236.687000", "105236.690000", "105236.693000", "105256.636000", "105256.639000", "105256.642000", "105256.645000", "105256.647000", "105256.650000", "105256.653000", "105256.656000", "105256.659000", "105256.662000", "105256.665000", "105256.667000", "105256.670000", "105256.673000", "105256.676000", "105256.679000", "105256.682000", "105256.684000", "105256.687000", "105256.690000", "105316.636000", "105316.639000", "105316.642000", "105316.645000", "105316.647000", "105316.650000", "105316.653000", "105316.656000", "105316.659000", "105316.662000", "105316.665000", "105316.667000", "105316.670000", "105316.673000", "105316.676000", "105316.679000", "105316.682000", "105316.685000", "105316.687000", "105316.690000", "105356.637000", "105356.640000", "105356.643000", "105356.645000", "105356.649000", "105356.651000", "105356.654000", "105356.657000", "105356.660000", "105356.663000", "105356.666000", "105356.675000", "105356.678000", "105356.681000", "105356.684000", "105356.687000", "105356.690000", "105356.693000", "105356.695000", "105356.698000", "105356.701000", "105356.704000", "105356.707000", "105356.710000", "105356.713000", "105356.715000", "105356.718000", "105356.721000", "105356.724000", "105436.637000", "105436.640000", "105436.643000", "105436.646000", "105436.649000", "105436.652000", "105436.655000", "105436.658000", "105436.660000", "105436.663000", "105436.666000", "105436.669000", "105436.672000", "105436.675000", "105436.678000", "105436.680000", "105436.683000", "105436.686000", "105436.689000", "105436.692000", "105436.695000", "105436.698000", "105436.701000", "105436.703000", "105436.706000", "105436.709000", "105436.712000", "105456.636000", "105456.639000", "105456.642000", "105456.645000", "105456.648000", "105456.650000", "105456.653000", "105456.656000", "105456.659000", "105456.662000", "105456.665000", "105456.667000", "105456.671000", "105536.636000", "105536.639000", "105536.642000", "105536.645000", "105536.648000", "105536.651000", "105536.666000", "105536.669000", "105536.672000", "105536.684000", "105536.687000", "105536.690000", "105536.693000", "105536.696000", "105536.699000", "105536.701000", "105536.704000", "105536.707000", "105536.710000", "105536.713000", "105536.716000", "105536.719000", "105536.721000", "105536.724000", "105536.727000", "105536.730000", "105536.733000", "105616.637000", "105616.640000", "105616.643000", "105616.645000", "105616.649000", "105616.651000", "105616.654000", "105616.657000", "105616.660000", "105616.663000", "105616.666000", "105616.669000", "105616.672000", "105616.674000", "105616.677000", "105616.680000", "105616.683000", "105616.686000", "105616.689000", "105616.692000", "105616.695000", "105616.697000", "105616.700000", "105616.703000", "105616.706000", "105616.709000", "105616.712000", "105656.637000", "105656.640000", "105656.643000", "105656.646000", "105656.649000", "105656.651000", "105656.654000", "105656.657000", "105656.660000", "105656.663000", "105656.666000", "105656.669000", "105656.672000", "105656.675000", "105656.677000", "105656.680000", "105656.683000", "105656.686000", "105656.689000", "105656.692000", "105656.695000", "105656.697000", "105656.700000", "105656.703000", "105656.706000", "105656.709000", "105656.712000", "105736.636000", "105736.639000", "105736.642000", "105736.645000", "105736.648000", "105736.650000", "105736.653000", "105736.656000", "105736.659000", "105736.662000", "105736.665000", "105736.668000", "105736.671000", "105736.673000", "105736.676000", "105736.679000", "105736.682000", "105736.685000", "105736.688000", "105736.691000", "105736.693000", "105736.696000", "105736.699000", "105736.702000", "105736.705000", "105736.708000", "105736.711000", "105816.636000", "105816.639000", "105816.642000", "105816.645000", "105816.648000", "105816.650000", "105816.653000", "105816.657000", "105816.660000", "105816.663000", "105816.666000", "105816.669000", "105816.672000", "105816.674000", "105816.677000", "105816.680000", "105816.683000", "105816.686000", "105816.689000", "105816.692000", "105816.695000", "105816.698000", "105816.700000", "105816.703000", "105816.706000", "105816.709000", "105856.637000", "105856.640000", "105856.643000", "105856.646000", "105856.649000", "105856.652000", "105856.654000", "105856.657000", "105856.660000", "105856.663000", "105856.666000", "105856.669000", "105856.672000", "105856.674000", "105856.677000", "105856.680000", "105856.683000", "105856.686000", "105856.689000", "105856.692000", "105856.695000", "105856.698000", "105856.700000", "105856.703000", "105856.706000", "105856.709000", "105856.712000", "105936.636000", "105936.639000", "105936.642000", "105936.645000", "105936.648000", "105936.651000", "105936.654000", "105936.656000", "105936.659000", "105936.662000", "105936.665000", "105936.668000", "105936.671000", "105936.674000", "105936.677000", "105936.680000", "105936.683000", "105936.685000", "105936.689000", "105936.691000", "105936.694000", "105936.697000", "105936.700000", "105936.703000", "105936.706000", "105936.709000", "105936.712000", "110016.636000", "110016.639000", "110016.642000", "110016.645000", "110016.648000", "110016.651000", "110016.654000", "110016.667000", "110016.670000", "110016.673000", "110016.675000", "110016.678000", "110016.681000", "110016.684000", "110016.687000", "110016.690000", "110016.692000", "110016.695000", "110016.698000", "110016.701000", "110016.704000", "110016.707000", "110016.710000", "110016.713000", "110016.715000", "110016.718000", "110016.721000", "110056.637000", "110056.640000", "110056.643000", "110056.646000", "110056.653000", "110056.656000", "110056.659000", "110056.662000", "110056.665000", "110056.668000", "110056.671000", "110056.673000", "110056.676000", "110056.679000", "110056.682000", "110056.685000", "110056.688000", "110056.691000", "110056.694000", "110056.696000", "110056.700000", "110056.702000", "110056.705000", "110056.708000", "110056.711000", "110056.714000", "110056.717000", "110059.245000", "110059.248000"],
