{
  "AcquisitionMatrixPE": 104,
  "AcquisitionNumber": 1,
  "AcquisitionTime": "15:23:5.215000",
  "BandwidthPerPixelPhaseEncode": 17.17,
  "BaseResolution": 104,
  "BodyPartExamined": "BRAIN",
  "CoilString": "HC1-7;NC1_2",
  "ConsistencyInfo": "N4_VE11C_LATEST_20160120",
  "ConversionSoftware": "dcm2niix",
  "ConversionSoftwareVersion": "v1.0.20190902",
  "DerivedVendorReportedEchoSpacing": 0.000560011,
  "DeviceSerialNumber": "167006",
  "DwellTime": 2.1e-06,
  "EchoTime": 0.037,
  "EchoTrainLength": 104,
  "EffectiveEchoSpacing": 0.000560011,
  "FlipAngle": 52,
  "ImageComments": "Unaliased_MB4_PE3_LB",
  "ImageOrientationPatientDICOM": [0.998796, -0.0490538, -0.000290251, 0.0458791, 0.936217, -0.348414],
  "ImageType": [
    "ORIGINAL",
    "PRIMARY",
    "M",
    "MB",
    "ND",
    "MOSAIC"
],
  "ImagingFrequency": 123.259,
  "InPlanePhaseEncodingDirectionDICOM": "COL",
  "InstitutionAddress": "Chemin_Queen-Mary_4565_Montreal_District_CA_H3W_1W5",
  "InstitutionName": "IUGM",
  "InstitutionalDepartmentName": "Department",
  "MRAcquisitionType": "2D",
  "MagneticFieldStrength": 3,
  "Manufacturer": "Siemens",
  "ManufacturersModelName": "Prisma_fit",
  "Modality": "MR",
  "MultibandAccelerationFactor": 4,
  "PartialFourier": 1,
  "PatientPosition": "HFS",
  "PercentPhaseFOV": 100,
  "PhaseEncodingDirection": "j",
  "PhaseEncodingSteps": 104,
  "PhaseResolution": 1,
  "PixelBandwidth": 2290,
  "ProcedureStepDescription": "video_friends",
  "ProtocolName": "func_task-friends-s05e04a",
  "PulseSequenceDetails": "%CustomerSeq%_cmrr_mbep2d_bold",
  "ReceiveCoilActiveElements": "HC1-7;NC1,2",
  "ReceiveCoilName": "HeadNeck_64",
  "ReconMatrixPE": 104,
  "RepetitionTime": 1.49,
  "SAR": 0.0303054,
  "ScanOptions": "FS",
  "ScanningSequence": "EP",
  "SequenceName": "epfid2d1_104",
  "SequenceVariant": "SK_SS",
  "SeriesDescription": "func_task-friends-s05e04a",
  "SeriesNumber": 11,
  "ShimSetting": [641, -7256, -8839, 630, 24, -237, -75, -19],
  "SliceThickness": 2,
  "SliceTiming": [0, 0.7825, 0.0975, 0.88, 0.195, 0.98, 0.2925, 1.0775, 0.39, 1.175, 0.49, 1.2725, 0.5875, 1.37, 0.685, 0, 0.7825, 0.0975, 0.88, 0.195, 0.98, 0.2925, 1.0775, 0.39, 1.175, 0.49, 1.2725, 0.5875, 1.37, 0.685, 0, 0.7825, 0.0975, 0.88, 0.195, 0.98, 0.2925, 1.0775, 0.39, 1.175, 0.49, 1.2725, 0.5875, 1.37, 0.685, 0, 0.7825, 0.0975, 0.88, 0.195, 0.98, 0.2925, 1.0775, 0.39, 1.175, 0.49, 1.2725, 0.5875, 1.37, 0.685],
  "SoftwareVersions": "syngo_MR_E11",
  "SpacingBetweenSlices": 2,
  "StationName": "MRC35049",
  "TaskName": "s05e04a",
  "TotalReadoutTime": 0.0576811,
  "TxRefAmp": 219.642,
  "WipMemBlock": "1eb9902f-b69d-490c-a907-75ab3c7438f1||Sequence: R016 ve11c/master r/e634e98; Dec 19 2017 11:00:25 by eja",
  "dcmmeta_affine": [
    [-1.9975922107696533, 0.09175825864076614, -0.03472558781504631, 98.26468658447266],
    [0.09810763597488403, 1.8724342584609985, -0.6959632635116577, -78.4002914428711],
    [-0.0005805013352073729, 0.6968287825584412, 1.8746811151504517, -69.79210662841797],
    [0.0, 0.0, 0.0, 1.0]
],
  "dcmmeta_reorient_transform": [
    [0.0, -1.0, 0.0, 103.0],
    [1.0, 0.0, 0.0, 0.0],
    [0.0, 0.0, 1.0, 0.0],
    [0.0, 0.0, 0.0, 1.0]
],
  "dcmmeta_shape": [104, 104, 60, 488],
  "dcmmeta_slice_dim": 2,
  "dcmmeta_version": 0.6,
  "global": {
    "const": {
      "AcquisitionMatrix": [104, 0, 0, 104],
      "AngioFlag": "N",
      "BitsAllocated": 16,
      "BitsStored": 16,
      "BodyPartExamined": "BRAIN",
      "Columns": 832,
      "EchoNumbers": 1,
      "EchoTime": 37.0,
      "EchoTrainLength": 104,
      "FlipAngle": 52.0,
      "HighBit": 15,
      "ImageOrientationPatient": [0.99879609466754, -0.0490538177049, -0.0002902506687, 0.0458791308813, 0.93621712668887, -0.3484144041856],
      "ImagePositionPatient": [-868.23934884009, -760.31532290378, 255.8382457392],
      "ImageType": [
        "ORIGINAL",
        "PRIMARY",
        "M",
        "MB",
        "ND",
        "MOSAIC"
],
      "ImagedNucleus": "1H",
      "ImagingFrequency": 123.258955,
      "InPlanePhaseEncodingDirection": "COL",
      "MRAcquisitionType": "2D",
      "MagneticFieldStrength": 3.0,
      "Manufacturer": "SIEMENS",
      "ManufacturerModelName": "Prisma_fit",
      "Modality": "MR",
      "NumberOfAverages": 1.0,
      "NumberOfPhaseEncodingSteps": 104,
      "PercentPhaseFieldOfView": 100.0,
      "PercentSampling": 100.0,
      "PerformedProcedureStepStartTime": "144718.555000",
      "PhotometricInterpretation": "MONOCHROME2",
      "PixelBandwidth": 2290.0,
      "PixelRepresentation": 0,
      "PixelSpacing": [2.0, 2.0],
      "ProtocolName": "func_task-friends-s05e04a",
      "RepetitionTime": 1490.0,
      "Rows": 832,
      "SAR": 0.03030542525869,
      "SamplesPerPixel": 1,
      "ScanOptions": "FS",
      "ScanningSequence": "EP",
      "SequenceName": "epfid2d1_104",
      "SequenceVariant": [
        "SK",
        "SS"
],
      "SeriesDescription": "func_task-friends-s05e04a",
      "SeriesNumber": 11,
      "SeriesTime": "152431.776000",
      "SliceLocation": -39.843262825274,
      "SliceThickness": 2.0,
      "SmallestImagePixelValue": 0,
      "SoftwareVersions": "syngo MR E11",
      "SpacingBetweenSlices": 2.0000000159752,
      "SpecificCharacterSet": "ISO_IR 100",
      "StudyID": "1",
      "StudyTime": "144718.493000",
      "TransmitCoilName": "Body",
      "VariableFlipAngleFlag": "N",
      "WindowCenterWidthExplanation": "Algo1",
      "dBdt": 0.0},
    "slices": {}
  },
  "time": {
    "samples": {
      "AcquisitionNumber": [1, 2, 3, 4, 5, 6, 7, 8, 9, 10, 11, 12, 13, 14, 15, 16, 17, 18, 19, 20, 21, 22, 23, 24, 25, 26, 27, 28, 29, 30, 31, 32, 33, 34, 35, 36, 37, 38, 39, 40, 41, 42, 43, 44, 45, 46, 47, 48, 49, 50, 51, 52, 53, 54, 55, 56, 57, 58, 59, 60, 61, 62, 63, 64, 65, 66, 67, 68, 69, 70, 71, 72, 73, 74, 75, 76, 77, 78, 79, 80, 81, 82, 83, 84, 85, 86, 87, 88, 89, 90, 91, 92, 93, 94, 95, 96, 97, 98, 99, 100, 101, 102, 103, 104, 105, 106, 107, 108, 109, 110, 111, 112, 113, 114, 115, 116, 117, 118, 119, 120, 121, 122, 123, 124, 125, 126, 127, 128, 129, 130, 131, 132, 133, 134, 135, 136, 137, 138, 139, 140, 141, 142, 143, 144, 145, 146, 147, 148, 149, 150, 151, 152, 153, 154, 155, 156, 157, 158, 159, 160, 161, 162, 163, 164, 165, 166, 167, 168, 169, 170, 171, 172, 173, 174, 175, 176, 177, 178, 179, 180, 181, 182, 183, 184, 185, 186, 187, 188, 189, 190, 191, 192, 193, 194, 195, 196, 197, 198, 199, 200, 201, 202, 203, 204, 205, 206, 207, 208, 209, 210, 211, 212, 213, 214, 215, 216, 217, 218, 219, 220, 221, 222, 223, 224, 225, 226, 227, 228, 229, 230, 231, 232, 233, 234, 235, 236, 237, 238, 239, 240, 241, 242, 243, 244, 245, 246, 247, 248, 249, 250, 251, 252, 253, 254, 255, 256, 257, 258, 259, 260, 261, 262, 263, 264, 265, 266, 267, 268, 269, 270, 271, 272, 273, 274, 275, 276, 277, 278, 279, 280, 281, 282, 283, 284, 285, 286, 287, 288, 289, 290, 291, 292, 293, 294, 295, 296, 297, 298, 299, 300, 301, 302, 303, 304, 305, 306, 307, 308, 309, 310, 311, 312, 313, 314, 315, 316, 317, 318, 319, 320, 321, 322, 323, 324, 325, 326, 327, 328, 329, 330, 331, 332, 333, 334, 335, 336, 337, 338, 339, 340, 341, 342, 343, 344, 345, 346, 347, 348, 349, 350, 351, 352, 353, 354, 355, 356, 357, 358, 359, 360, 361, 362, 363, 364, 365, 366, 367, 368, 369, 370, 371, 372, 373, 374, 375, 376, 377, 378, 379, 380, 381, 382, 383, 384, 385, 386, 387, 388, 389, 390, 391, 392, 393, 394, 395, 396, 397, 398, 399, 400, 401, 402, 403, 404, 405, 406, 407, 408, 409, 410, 411, 412, 413, 414, 415, 416, 417, 418, 419, 420, 421, 422, 423, 424, 425, 426, 427, 428, 429, 430, 431, 432, 433, 434, 435, 436, 437, 438, 439, 440, 441, 442, 443, 444, 445, 446, 447, 448, 449, 450, 451, 452, 453, 454, 455, 456, 457, 458, 459, 460, 461, 462, 463, 464, 465, 466, 467, 468, 469, 470, 471, 472, 473, 474, 475, 476, 477, 478, 479, 480, 481, 482, 483, 484, 485, 486, 487, 488],
      "AcquisitionTime": ["152305.215000", "152306.705000", "152308.195000", "152309.685000", "152311.175000", "152312.665000", "152314.155000", "152315.645000", "152317.135000", "152318.625000", "152320.115000", "152321.605000", "152323.095000", "152324.585000", "152326.075000", "152327.565000", "152329.055000", "152330.545000", "152332.035000", "152333.525000", "152335.015000", "152336.505000", "152337.995000", "152339.485000", "152340.975000", "152342.465000", "152343.955000", "152345.445000", "152346.935000", "152348.425000", "152349.915000", "152351.405000", "152352.895000", "152354.385000", "152355.875000", "152357.365000", "152358.855000", "152400.345000", "152401.835000", "152403.325000", "152404.815000", "152406.305000", "152407.795000", "152409.285000", "152410.775000", "152412.265000", "152413.755000", "152415.245000", "152416.735000", "152418.225000", "152419.715000", "152421.205000", "152422.695000", "152424.185000", "152425.675000", "152427.165000", "152428.655000", "152430.145000", "152431.635000", "152433.125000", "152434.615000", "152436.105000", "152437.595000", "152439.085000", "152440.575000", "152442.065000", "152443.555000", "152445.045000", "152446.535000", "152448.025000", "152449.515000", "152451.005000", "152452.495000", "152453.985000", "152455.475000", "152456.965000", "152458.455000", "152459.945000", "152501.435000", "152502.925000", "152504.415000", "152505.905000", "152507.395000", "152508.885000", "152510.375000", "152511.865000", "152513.355000", "152514.845000", "152516.335000", "152517.825000", "152519.315000", "152520.805000", "152522.295000", "152523.785000", "152525.275000", "152526.765000", "152528.255000", "152529.745000", "152531.235000", "152532.725000", "152534.215000", "152535.705000", "152537.195000", "152538.685000", "152540.175000", "152541.665000", "152543.155000", "152544.645000", "152546.135000", "152547.625000", "152549.115000", "152550.605000", "152552.095000", "152553.585000", "152555.075000", "152556.565000", "152558.055000", "152559.545000", "152601.035000", "152602.525000", "152604.015000", "152605.505000", "152606.995000", "152608.485000", "152609.975000", "152611.465000", "152612.955000", "152614.445000", "152615.935000", "152617.425000", "152618.915000", "152620.405000", "152621.895000", "152623.385000", "152624.875000", "152626.365000", "152627.855000", "152629.345000", "152630.835000", "152632.325000", "152633.815000", "152635.305000", "152636.795000", "152638.285000", "152639.775000", "152641.265000", "152642.755000", "152644.245000", "152645.735000", "152647.225000", "152648.715000", "152650.205000", "152651.695000", "152653.185000", "152654.675000", "152656.165000", "152657.655000", "152659.145000", "152700.635000", "152702.125000", "152703.615000", "152705.105000", "152706.595000", "152708.085000", "152709.575000", "152711.065000", "152712.555000", "152714.045000", "152715.535000", "152717.025000", "152718.515000", "152720.005000", "152721.495000", "152722.985000", "152724.475000", "152725.965000", "152727.455000", "152728.945000", "152730.435000", "152731.925000", "152733.415000", "152734.905000", "152736.395000", "152737.885000", "152739.375000", "152740.865000", "152742.355000", "152743.845000", "152745.335000", "152746.825000", "152748.315000", "152749.805000", "152751.295000", "152752.785000", "152754.275000", "152755.765000", "152757.255000", "152758.745000", "152800.235000", "152801.725000", "152803.215000", "152804.705000", "152806.195000", "152807.685000", "152809.175000", "152810.665000", "152812.155000", "152813.645000", "152815.135000", "152816.625000", "152818.115000", "152819.605000", "152821.095000", "152822.585000", "152824.075000", "152825.565000", "152827.055000", "152828.545000", "152830.035000", "152831.525000", "152833.015000", "152834.505000", "152835.995000", "152837.485000", "152838.975000", "152840.465000", "152841.955000", "152843.445000", "152844.935000", "152846.425000", "152847.915000", "152849.405000", "152850.895000", "152852.385000", "152853.875000", "152855.365000", "152856.855000", "152858.345000", "152859.835000", "152901.325000", "152902.815000", "152904.305000", "152905.795000", "152907.285000", "152908.775000", "152910.265000", "152911.755000", "152913.245000", "152914.735000", "152916.225000", "152917.715000", "152919.205000", "152920.695000", "152922.185000", "152923.675000", "152925.165000", "152926.655000", "152928.145000", "152929.635000", "152931.125000", "152932.615000", "152934.105000", "152935.595000", "152937.085000", "152938.575000", "152940.065000", "152941.555000", "152943.045000", "152944.535000", "152946.025000", "152947.515000", "152949.005000", "152950.495000", "152951.985000", "152953.475000", "152954.965000", "152956.455000", "152957.945000", "152959.435000", "153000.925000", "153002.415000", "153003.905000", "153005.395000", "153006.885000", "153008.375000", "153009.865000", "153011.355000", "153012.845000", "153014.335000", "153015.825000", "153017.315000", "153018.805000", "153020.295000", "153021.785000", "153023.275000", "153024.765000", "153026.255000", "153027.745000", "153029.235000", "153030.725000", "153032.215000", "153033.705000", "153035.195000", "153036.685000", "153038.175000", "153039.665000", "153041.155000", "153042.645000", "153044.135000", "153045.625000", "153047.115000", "153048.605000", "153050.095000", "153051.585000", "153053.075000", "153054.565000", "153056.055000", "153057.545000", "153059.035000", "153100.525000", "153102.015000", "153103.505000", "153104.995000", "153106.485000", "153107.975000", "153109.465000", "153110.955000", "153112.445000", "153113.935000", "153115.425000", "153116.915000", "153118.405000", "153119.895000", "153121.385000", "153122.875000", "153124.365000", "153125.855000", "153127.345000", "153128.835000", "153130.325000", "153131.815000", "153133.305000", "153134.795000", "153136.285000", "153137.775000", "153139.265000", "153140.755000", "153142.245000", "153143.735000", "153145.225000", "153146.715000", "153148.205000", "153149.695000", "153151.185000", "153152.675000", "153154.165000", "153155.655000", "153157.145000", "153158.635000", "153200.125000", "153201.615000", "153203.105000", "153204.595000", "153206.085000", "153207.575000", "153209.065000", "153210.555000", "153212.045000", "153213.535000", "153215.025000", "153216.515000", "153218.005000", "153219.495000", "153220.985000", "153222.475000", "153223.965000", "153225.455000", "153226.945000", "153228.435000", "153229.925000", "153231.415000", "153232.905000", "153234.395000", "153235.885000", "153237.375000", "153238.865000", "153240.355000", "153241.845000", "153243.335000", "153244.825000", "153246.315000", "153247.805000", "153249.295000", "153250.785000", "153252.275000", "153253.765000", "153255.255000", "153256.745000", "153258.235000", "153259.725000", "153301.215000", "153302.705000", "153304.195000", "153305.685000", "153307.175000", "153308.665000", "153310.155000", "153311.645000", "153313.135000", "153314.625000", "153316.115000", "153317.605000", "153319.095000", "153320.585000", "153322.075000", "153323.565000", "153325.055000", "153326.545000", "153328.035000", "153329.525000", "153331.015000", "153332.505000", "153333.995000", "153335.485000", "153336.975000", "153338.465000", "153339.955000", "153341.445000", "153342.935000", "153344.425000", "153345.915000", "153347.405000", "153348.895000", "153350.385000", "153351.875000", "153353.365000", "153354.855000", "153356.345000", "153357.835000", "153359.325000", "153400.815000", "153402.305000", "153403.795000", "153405.285000", "153406.775000", "153408.265000", "153409.755000", "153411.245000", "153412.735000", "153414.225000", "153415.715000", "153417.205000", "153418.695000", "153420.185000", "153421.675000", "153423.165000", "153424.655000", "153426.145000", "153427.635000", "153429.125000", "153430.615000", "153432.105000", "153433.595000", "153435.085000", "153436.575000", "153438.065000", "153439.555000", "153441.045000", "153442.535000", "153444.025000", "153445.515000", "153447.005000", "153448.495000", "153449.985000", "153451.475000", "153452.965000", "153454.455000", "153455.945000", "153457.435000", "153458.925000", "153500.415000", "153501.905000", "153503.395000", "153504.885000", "153506.375000", "153507.865000", "153509.355000", "153510.845000"],
      "ContentTime": ["152431.779000", "152431.782000", "152431.785000", "152431.788000", "152431.791000", "152431.794000", "152431.797000", "152431.800000", "152431.842000", "152431.845000", "152431.847000", "152431.850000", "152431.853000", "152431.856000", "152431.859000", "152431.862000", "152431.865000", "152431.868000", "152431.871000", "152431.874000", "152431.876000", "152431.879000", "152431.882000", "152431.885000", "152431.888000", "152431.891000", "152431.894000", "152431.897000", "152431.900000", "152431.903000", "152431.905000", "152431.916000", "152431.919000", "152451.747000", "152451.750000", "152451.758000", "152451.762000", "152451.765000", "152451.768000", "152451.771000", "152451.774000", "152451.777000", "152451.780000", "152451.783000", "152451.786000", "152451.788000", "152451.791000", "152451.794000", "152451.797000", "152451.800000", "152451.803000", "152451.806000", "152451.809000", "152511.747000", "152511.750000", "152511.753000", "152511.762000", "152511.765000", "152511.768000", "152511.771000", "152511.774000", "152511.777000", "152511.780000", "152511.782000", "152511.785000", "152511.788000", "152511.791000", "152511.794000", "152511.797000", "152511.800000", "152511.803000", "152511.806000", "152511.808000", "152531.747000", "152531.750000", "152531.753000", "152531.756000", "152531.759000", "152531.761000", "152531.764000", "152531.776000", "152531.779000", "152531.781000", "152531.784000", "152531.787000", "152531.790000", "152531.793000", "152531.796000", "152531.799000", "152531.801000", "152531.818000", "152531.821000", "152531.823000", "152611.747000", "152611.750000", "152611.753000", "152611.756000", "152611.759000", "152611.761000", "152611.764000", "152611.767000", "152611.770000", "152611.773000", "152611.776000", "152611.779000", "152611.782000", "152611.785000", "152611.788000", "152611.791000", "152611.794000", "152611.797000", "152611.800000", "152611.803000", "152611.806000", "152611.808000", "152611.811000", "152611.814000", "152611.817000", "152611.820000", "152611.823000", "152611.826000", "152611.829000", "152611.832000", "152611.835000", "152651.747000", "152651.750000", "152651.753000", "152651.756000", "152651.759000", "152651.762000", "152651.765000", "152651.768000", "152651.770000", "152651.773000", "152651.776000", "152651.779000", "152651.782000", "152651.785000", "152651.794000", "152651.797000", "152651.800000", "152651.803000", "152651.806000", "152651.809000", "152651.812000", "152651.815000", "152651.818000", "152651.821000", "152651.824000", "152651.826000", "152651.829000", "152731.747000", "152731.750000", "152731.753000", "152731.756000", "152731.759000", "152731.762000", "152731.765000", "152731.768000", "152731.776000", "152731.779000", "152731.782000", "152731.784000", "152731.787000", "152731.790000", "152731.793000", "152731.796000", "152731.799000", "152731.802000", "152731.805000", "152731.808000", "152731.814000", "152731.817000", "152731.820000", "152731.823000", "152731.826000", "152731.829000", "152731.831000", "152811.747000", "152811.750000", "152811.753000", "152811.756000", "152811.759000", "152811.762000", "152811.765000", "152811.768000", "152811.770000", "152811.773000", "152811.776000", "152811.779000", "152811.782000", "152811.785000", "152811.788000", "152811.791000", "152811.794000", "152811.796000", "152811.799000", "152811.802000", "152811.805000", "152811.808000", "152811.811000", "152811.814000", "152811.817000", "152811.820000", "152811.822000", "152851.747000", "152851.750000", "152851.753000", "152851.756000", "152851.759000", "152851.762000", "152851.765000", "152851.768000", "152851.771000", "152851.774000", "152851.777000", "152851.781000", "152851.784000", "152851.787000", "152851.790000", "152851.792000", "152851.795000", "152851.798000", "152851.801000", "152851.804000", "152851.807000", "152851.810000", "152851.813000", "152851.816000", "152851.819000", "152851.822000", "152931.747000", "152931.750000", "152931.763000", "152931.766000", "152931.769000", "152931.772000", "152931.775000", "152931.778000", "152931.781000", "152931.783000", "152931.786000", "152931.789000", "152931.792000", "152931.795000", "152931.798000", "152931.801000", "152931.804000", "152931.807000", "152931.810000", "152931.812000", "152931.815000", "152931.818000", "152931.821000", "152931.824000", "152931.827000", "152931.830000", "152931.833000", "153011.747000", "153011.750000", "153011.753000", "153011.756000", "153011.759000", "153011.762000", "153011.765000", "153011.768000", "153011.770000", "153011.773000", "153011.776000", "153011.779000", "153011.782000", "153011.785000", "153011.788000", "153011.791000", "153011.794000", "153011.796000", "153011.799000", "153011.802000", "153011.805000", "153011.808000", "153011.811000", "153011.814000", "153011.817000", "153011.820000", "153011.828000", "153051.747000", "153051.750000", "153051.753000", "153051.756000", "153051.759000", "153051.762000", "153051.765000", "153051.767000", "153051.770000", "153051.773000", "153051.776000", "153051.779000", "153051.782000", "153051.785000", "153051.788000", "153051.791000", "153051.794000", "153051.796000", "153051.799000", "153051.802000", "153051.805000", "153051.808000", "153051.811000", "153051.814000", "153051.817000", "153051.819000", "153051.822000", "153131.746000", "153131.749000", "153131.752000", "153131.763000", "153131.766000", "153131.769000", "153131.771000", "153131.774000", "153131.777000", "153131.780000", "153131.783000", "153131.786000", "153131.789000", "153131.792000", "153131.795000", "153131.798000", "153131.801000", "153131.804000", "153131.807000", "153131.813000", "153131.816000", "153131.819000", "153131.822000", "153131.824000", "153131.827000", "153131.830000", "153131.833000", "153211.747000", "153211.750000", "153211.753000", "153211.756000", "153211.759000", "153211.762000", "153211.765000", "153211.768000", "153211.771000", "153211.773000", "153211.776000", "153211.779000", "153211.782000", "153211.785000", "153211.788000", "153211.791000", "153211.794000", "153211.797000", "153211.800000", "153211.803000", "153211.805000", "153211.808000", "153211.811000", "153211.814000", "153211.817000", "153211.820000", "153211.823000", "153251.747000", "153251.750000", "153251.753000", "153251.756000", "153251.759000", "153251.762000", "153251.765000", "153251.768000", "153251.771000", "153251.773000", "153251.776000", "153251.779000", "153251.782000", "153251.785000", "153251.788000", "153251.791000", "153251.794000", "153251.797000", "153251.800000", "153251.803000", "153251.805000", "153251.808000", "153251.811000", "153251.814000", "153251.817000", "153251.820000", "153251.823000", "153331.747000", "153331.750000", "153331.758000", "153331.761000", "153331.764000", "153331.767000", "153331.770000", "153331.773000", "153331.776000", "153331.779000", "153331.782000", "153331.785000", "153331.788000", "153331.791000", "153331.794000", "153331.797000", "153331.799000", "153331.802000", "153331.805000", "153331.808000", "153331.811000", "153331.814000", "153331.817000", "153331.820000", "153331.823000", "153331.826000", "153411.747000", "153411.750000", "153411.753000", "153411.756000", "153411.759000", "153411.762000", "153411.765000", "153411.768000", "153411.771000", "153411.774000", "153411.776000", "153411.779000", "153411.782000", "153411.785000", "153411.788000", "153411.791000", "153411.794000", "153411.797000", "153411.800000", "153411.803000", "153411.806000", "153411.808000", "153411.811000", "153411.814000", "153411.817000", "153411.820000", "153411.823000", "153451.747000", "153451.750000", "153451.754000", "153451.757000", "153451.760000", "153451.763000", "153451.765000", "153451.768000", "153451.771000", "153451.774000", "153451.777000", "153451.780000", "153451.783000", "153451.786000", "153451.789000", "153451.792000", "153451.795000", "153451.798000", "153451.801000", "153451.804000", "153451.807000", "153451.810000", "153451.821000", "153451.824000", "153451.827000", "153451.830000", "153451.833000", "153513.262000", "153513.266000", "153513.269000", "153513.272000", "153513.275000", "153513.278000", "153513.281000", "153513.284000", "153513.287000", "153513.290000", "153513.293000", "153513.296000", "153513.299000", "153513.302000", "153513.305000"],
