{
  "AcquisitionMatrixPE": 104,
  "AcquisitionNumber": 1,
  "AcquisitionTime": "15:35:54.162500",
  "BandwidthPerPixelPhaseEncode": 17.17,
  "BaseResolution": 104,
  "BodyPartExamined": "BRAIN",
  "CoilString": "HC1-7;NC1_2",
  "ConsistencyInfo": "N4_VE11C_LATEST_20160120",
  "ConversionSoftware": "dcm2niix",
  "ConversionSoftwareVersion": "v1.0.20190902",
  "DerivedVendorReportedEchoSpacing": 0.000560011,
  "DeviceSerialNumber": "167006",
  "DwellTime": 2.1e-06,
  "EchoTime": 0.037,
  "EchoTrainLength": 104,
  "EffectiveEchoSpacing": 0.000560011,
  "FlipAngle": 52,
  "ImageComments": "Unaliased_MB4_PE3_LB",
  "ImageOrientationPatientDICOM": [0.998796, -0.0490538, -0.000290251, 0.0458791, 0.936217, -0.348414],
  "ImageType": [
    "ORIGINAL",
    "PRIMARY",
    "M",
    "MB",
    "ND",
    "MOSAIC"
],
  "ImagingFrequency": 123.259,
  "InPlanePhaseEncodingDirectionDICOM": "COL",
  "InstitutionAddress": "Chemin_Queen-Mary_4565_Montreal_District_CA_H3W_1W5",
  "InstitutionName": "IUGM",
  "InstitutionalDepartmentName": "Department",
  "MRAcquisitionType": "2D",
  "MagneticFieldStrength": 3,
  "Manufacturer": "Siemens",
  "ManufacturersModelName": "Prisma_fit",
  "Modality": "MR",
  "MultibandAccelerationFactor": 4,
  "PartialFourier": 1,
  "PatientPosition": "HFS",
  "PercentPhaseFOV": 100,
  "PhaseEncodingDirection": "j",
  "PhaseEncodingSteps": 104,
  "PhaseResolution": 1,
  "PixelBandwidth": 2290,
  "ProcedureStepDescription": "video_friends",
  "ProtocolName": "func_task-friends-s05e04b",
  "PulseSequenceDetails": "%CustomerSeq%_cmrr_mbep2d_bold",
  "ReceiveCoilActiveElements": "HC1-7;NC1,2",
  "ReceiveCoilName": "HeadNeck_64",
  "ReconMatrixPE": 104,
  "RepetitionTime": 1.49,
  "SAR": 0.0303139,
  "ScanOptions": "FS",
  "ScanningSequence": "EP",
  "SequenceName": "epfid2d1_104",
  "SequenceVariant": "SK_SS",
  "SeriesDescription": "func_task-friends-s05e04b",
  "SeriesNumber": 13,
  "ShimSetting": [641, -7256, -8839, 630, 24, -237, -75, -19],
  "SliceThickness": 2,
  "SliceTiming": [0, 0.7825, 0.0975, 0.88, 0.195, 0.98, 0.2925, 1.0775, 0.39, 1.175, 0.49, 1.2725, 0.5875, 1.37, 0.685, 0, 0.7825, 0.0975, 0.88, 0.195, 0.98, 0.2925, 1.0775, 0.39, 1.175, 0.49, 1.2725, 0.5875, 1.37, 0.685, 0, 0.7825, 0.0975, 0.88, 0.195, 0.98, 0.2925, 1.0775, 0.39, 1.175, 0.49, 1.2725, 0.5875, 1.37, 0.685, 0, 0.7825, 0.0975, 0.88, 0.195, 0.98, 0.2925, 1.0775, 0.39, 1.175, 0.49, 1.2725, 0.5875, 1.37, 0.685],
  "SoftwareVersions": "syngo_MR_E11",
  "SpacingBetweenSlices": 2,
  "StationName": "MRC35049",
  "TaskName": "s05e04b",
  "TotalReadoutTime": 0.0576811,
  "TxRefAmp": 219.642,
  "WipMemBlock": "3cff59ec-f92d-4b51-bb6b-ef65920a0451||Sequence: R016 ve11c/master r/e634e98; Dec 19 2017 11:00:25 by eja",
  "dcmmeta_affine": [
    [-1.9975922107696533, 0.09175825864076614, -0.03472558781504631, 98.26468658447266],
    [0.09810763597488403, 1.8724342584609985, -0.6959632635116577, -78.4002914428711],
    [-0.0005805013352073729, 0.6968287825584412, 1.8746811151504517, -69.79210662841797],
    [0.0, 0.0, 0.0, 1.0]
],
  "dcmmeta_reorient_transform": [
    [0.0, -1.0, 0.0, 103.0],
    [1.0, 0.0, 0.0, 0.0],
    [0.0, 0.0, 1.0, 0.0],
    [0.0, 0.0, 0.0, 1.0]
],
  "dcmmeta_shape": [104, 104, 60, 524],
  "dcmmeta_slice_dim": 2,
  "dcmmeta_version": 0.6,
  "global": {
    "const": {
      "AcquisitionMatrix": [104, 0, 0, 104],
      "AngioFlag": "N",
      "BitsAllocated": 16,
      "BitsStored": 16,
      "BodyPartExamined": "BRAIN",
      "Columns": 832,
      "EchoNumbers": 1,
      "EchoTime": 37.0,
      "EchoTrainLength": 104,
      "FlipAngle": 52.0,
      "HighBit": 15,
      "ImageOrientationPatient": [0.99879609466754, -0.0490538177049, -0.0002902506687, 0.0458791308813, 0.93621712668887, -0.3484144041856],
      "ImagePositionPatient": [-868.23934884009, -760.31532290378, 255.8382457392],
      "ImageType": [
        "ORIGINAL",
        "PRIMARY",
        "M",
        "MB",
        "ND",
        "MOSAIC"
],
      "ImagedNucleus": "1H",
      "ImagingFrequency": 123.258964,
      "InPlanePhaseEncodingDirection": "COL",
      "MRAcquisitionType": "2D",
      "MagneticFieldStrength": 3.0,
      "Manufacturer": "SIEMENS",
      "ManufacturerModelName": "Prisma_fit",
      "Modality": "MR",
      "NumberOfAverages": 1.0,
      "NumberOfPhaseEncodingSteps": 104,
      "PercentPhaseFieldOfView": 100.0,
      "PercentSampling": 100.0,
      "PerformedProcedureStepStartTime": "144718.555000",
      "PhotometricInterpretation": "MONOCHROME2",
      "PixelBandwidth": 2290.0,
      "PixelRepresentation": 0,
      "PixelSpacing": [2.0, 2.0],
      "ProtocolName": "func_task-friends-s05e04b",
      "RepetitionTime": 1490.0,
      "Rows": 832,
      "SAR": 0.03031386955001,
      "SamplesPerPixel": 1,
      "ScanOptions": "FS",
      "ScanningSequence": "EP",
      "SequenceName": "epfid2d1_104",
      "SequenceVariant": [
        "SK",
        "SS"
],
      "SeriesDescription": "func_task-friends-s05e04b",
      "SeriesNumber": 13,
      "SeriesTime": "153714.597000",
      "SliceLocation": -39.843262825274,
      "SliceThickness": 2.0,
      "SmallestImagePixelValue": 0,
      "SoftwareVersions": "syngo MR E11",
      "SpacingBetweenSlices": 2.0000000159752,
      "SpecificCharacterSet": "ISO_IR 100",
      "StudyID": "1",
      "StudyTime": "144718.493000",
      "TransmitCoilName": "Body",
      "VariableFlipAngleFlag": "N",
      "WindowCenterWidthExplanation": "Algo1",
      "dBdt": 0.0},
    "slices": {}
  },
  "time": {
    "samples": {
      "AcquisitionNumber": [1, 2, 3, 4, 5, 6, 7, 8, 9, 10, 11, 12, 13, 14, 15, 16, 17, 18, 19, 20, 21, 22, 23, 24, 25, 26, 27, 28, 29, 30, 31, 32, 33, 34, 35, 36, 37, 38, 39, 40, 41, 42, 43, 44, 45, 46, 47, 48, 49, 50, 51, 52, 53, 54, 55, 56, 57, 58, 59, 60, 61, 62, 63, 64, 65, 66, 67, 68, 69, 70, 71, 72, 73, 74, 75, 76, 77, 78, 79, 80, 81, 82, 83, 84, 85, 86, 87, 88, 89, 90, 91, 92, 93, 94, 95, 96, 97, 98, 99, 100, 101, 102, 103, 104, 105, 106, 107, 108, 109, 110, 111, 112, 113, 114, 115, 116, 117, 118, 119, 120, 121, 122, 123, 124, 125, 126, 127, 128, 129, 130, 131, 132, 133, 134, 135, 136, 137, 138, 139, 140, 141, 142, 143, 144, 145, 146, 147, 148, 149, 150, 151, 152, 153, 154, 155, 156, 157, 158, 159, 160, 161, 162, 163, 164, 165, 166, 167, 168, 169, 170, 171, 172, 173, 174, 175, 176, 177, 178, 179, 180, 181, 182, 183, 184, 185, 186, 187, 188, 189, 190, 191, 192, 193, 194, 195, 196, 197, 198, 199, 200, 201, 202, 203, 204, 205, 206, 207, 208, 209, 210, 211, 212, 213, 214, 215, 216, 217, 218, 219, 220, 221, 222, 223, 224, 225, 226, 227, 228, 229, 230, 231, 232, 233, 234, 235, 236, 237, 238, 239, 240, 241, 242, 243, 244, 245, 246, 247, 248, 249, 250, 251, 252, 253, 254, 255, 256, 257, 258, 259, 260, 261, 262, 263, 264, 265, 266, 267, 268, 269, 270, 271, 272, 273, 274, 275, 276, 277, 278, 279, 280, 281, 282, 283, 284, 285, 286, 287, 288, 289, 290, 291, 292, 293, 294, 295, 296, 297, 298, 299, 300, 301, 302, 303, 304, 305, 306, 307, 308, 309, 310, 311, 312, 313, 314, 315, 316, 317, 318, 319, 320, 321, 322, 323, 324, 325, 326, 327, 328, 329, 330, 331, 332, 333, 334, 335, 336, 337, 338, 339, 340, 341, 342, 343, 344, 345, 346, 347, 348, 349, 350, 351, 352, 353, 354, 355, 356, 357, 358, 359, 360, 361, 362, 363, 364, 365, 366, 367, 368, 369, 370, 371, 372, 373, 374, 375, 376, 377, 378, 379, 380, 381, 382, 383, 384, 385, 386, 387, 388, 389, 390, 391, 392, 393, 394, 395, 396, 397, 398, 399, 400, 401, 402, 403, 404, 405, 406, 407, 408, 409, 410, 411, 412, 413, 414, 415, 416, 417, 418, 419, 420, 421, 422, 423, 424, 425, 426, 427, 428, 429, 430, 431, 432, 433, 434, 435, 436, 437, 438, 439, 440, 441, 442, 443, 444, 445, 446, 447, 448, 449, 450, 451, 452, 453, 454, 455, 456, 457, 458, 459, 460, 461, 462, 463, 464, 465, 466, 467, 468, 469, 470, 471, 472, 473, 474, 475, 476, 477, 478, 479, 480, 481, 482, 483, 484, 485, 486, 487, 488, 489, 490, 491, 492, 493, 494, 495, 496, 497, 498, 499, 500, 501, 502, 503, 504, 505, 506, 507, 508, 509, 510, 511, 512, 513, 514, 515, 516, 517, 518, 519, 520, 521, 522, 523, 524],
      "AcquisitionTime": ["153554.162500", "153555.652500", "153557.142500", "153558.632500", "153600.122500", "153601.612500", "153603.102500", "153604.592500", "153606.082500", "153607.572500", "153609.062500", "153610.552500", "153612.042500", "153613.532500", "153615.022500", "153616.512500", "153618.002500", "153619.492500", "153620.982500", "153622.472500", "153623.962500", "153625.452500", "153626.942500", "153628.432500", "153629.922500", "153631.412500", "153632.902500", "153634.392500", "153635.882500", "153637.372500", "153638.862500", "153640.352500", "153641.842500", "153643.332500", "153644.822500", "153646.312500", "153647.802500", "153649.292500", "153650.782500", "153652.272500", "153653.762500", "153655.252500", "153656.742500", "153658.232500", "153659.722500", "153701.212500", "153702.702500", "153704.192500", "153705.682500", "153707.172500", "153708.662500", "153710.152500", "153711.642500", "153713.132500", "153714.622500", "153716.112500", "153717.602500", "153719.092500", "153720.582500", "153722.072500", "153723.562500", "153725.052500", "153726.542500", "153728.032500", "153729.522500", "153731.012500", "153732.502500", "153733.992500", "153735.482500", "153736.972500", "153738.462500", "153739.952500", "153741.442500", "153742.932500", "153744.422500", "153745.912500", "153747.402500", "153748.892500", "153750.382500", "153751.872500", "153753.362500", "153754.852500", "153756.342500", "153757.832500", "153759.322500", "153800.812500", "153802.302500", "153803.792500", "153805.282500", "153806.772500", "153808.262500", "153809.752500", "153811.242500", "153812.732500", "153814.222500", "153815.712500", "153817.202500", "153818.692500", "153820.182500", "153821.672500", "153823.162500", "153824.652500", "153826.142500", "153827.632500", "153829.122500", "153830.612500", "153832.102500", "153833.592500", "153835.082500", "153836.572500", "153838.062500", "153839.552500", "153841.042500", "153842.532500", "153844.022500", "153845.512500", "153847.002500", "153848.492500", "153849.982500", "153851.472500", "153852.962500", "153854.452500", "153855.942500", "153857.432500", "153858.922500", "153900.412500", "153901.902500", "153903.392500", "153904.882500", "153906.372500", "153907.862500", "153909.352500", "153910.842500", "153912.332500", "153913.822500", "153915.312500", "153916.802500", "153918.292500", "153919.782500", "153921.272500", "153922.762500", "153924.252500", "153925.742500", "153927.232500", "153928.722500", "153930.212500", "153931.702500", "153933.192500", "153934.682500", "153936.172500", "153937.662500", "153939.152500", "153940.642500", "153942.132500", "153943.622500", "153945.112500", "153946.602500", "153948.092500", "153949.582500", "153951.072500", "153952.562500", "153954.052500", "153955.542500", "153957.032500", "153958.522500", "154000.012500", "154001.502500", "154002.992500", "154004.482500", "154005.972500", "154007.462500", "154008.952500", "154010.442500", "154011.932500", "154013.422500", "154014.912500", "154016.402500", "154017.892500", "154019.382500", "154020.872500", "154022.362500", "154023.852500", "154025.342500", "154026.832500", "154028.322500", "154029.812500", "154031.302500", "154032.792500", "154034.282500", "154035.772500", "154037.262500", "154038.752500", "154040.242500", "154041.732500", "154043.222500", "154044.712500", "154046.202500", "154047.692500", "154049.182500", "154050.672500", "154052.162500", "154053.652500", "154055.142500", "154056.632500", "154058.122500", "154059.612500", "154101.102500", "154102.592500", "154104.082500", "154105.572500", "154107.062500", "154108.552500", "154110.042500", "154111.532500", "154113.022500", "154114.512500", "154116.002500", "154117.492500", "154118.982500", "154120.472500", "154121.962500", "154123.452500", "154124.942500", "154126.432500", "154127.922500", "154129.412500", "154130.902500", "154132.392500", "154133.882500", "154135.372500", "154136.862500", "154138.352500", "154139.842500", "154141.332500", "154142.822500", "154144.312500", "154145.802500", "154147.292500", "154148.782500", "154150.272500", "154151.762500", "154153.252500", "154154.742500", "154156.232500", "154157.722500", "154159.212500", "154200.702500", "154202.192500", "154203.682500", "154205.172500", "154206.662500", "154208.152500", "154209.642500", "154211.132500", "154212.622500", "154214.112500", "154215.602500", "154217.092500", "154218.582500", "154220.072500", "154221.562500", "154223.052500", "154224.542500", "154226.032500", "154227.522500", "154229.012500", "154230.502500", "154231.992500", "154233.482500", "154234.972500", "154236.462500", "154237.952500", "154239.442500", "154240.932500", "154242.422500", "154243.912500", "154245.402500", "154246.892500", "154248.382500", "154249.872500", "154251.362500", "154252.852500", "154254.342500", "154255.832500", "154257.322500", "154258.812500", "154300.302500", "154301.792500", "154303.282500", "154304.772500", "154306.262500", "154307.752500", "154309.242500", "154310.732500", "154312.222500", "154313.712500", "154315.202500", "154316.692500", "154318.182500", "154319.672500", "154321.162500", "154322.652500", "154324.142500", "154325.632500", "154327.122500", "154328.612500", "154330.102500", "154331.592500", "154333.082500", "154334.572500", "154336.062500", "154337.552500", "154339.042500", "154340.532500", "154342.022500", "154343.512500", "154345.002500", "154346.492500", "154347.982500", "154349.472500", "154350.962500", "154352.452500", "154353.942500", "154355.432500", "154356.922500", "154358.412500", "154359.902500", "154401.392500", "154402.882500", "154404.372500", "154405.862500", "154407.352500", "154408.842500", "154410.332500", "154411.822500", "154413.312500", "154414.802500", "154416.292500", "154417.782500", "154419.272500", "154420.762500", "154422.252500", "154423.742500", "154425.232500", "154426.722500", "154428.212500", "154429.702500", "154431.192500", "154432.682500", "154434.172500", "154435.662500", "154437.152500", "154438.642500", "154440.132500", "154441.622500", "154443.112500", "154444.602500", "154446.092500", "154447.582500", "154449.072500", "154450.562500", "154452.052500", "154453.542500", "154455.032500", "154456.522500", "154458.012500", "154459.502500", "154500.992500", "154502.482500", "154503.972500", "154505.462500", "154506.952500", "154508.442500", "154509.932500", "154511.422500", "154512.912500", "154514.402500", "154515.892500", "154517.382500", "154518.872500", "154520.362500", "154521.852500", "154523.342500", "154524.832500", "154526.322500", "154527.812500", "154529.302500", "154530.792500", "154532.282500", "154533.772500", "154535.262500", "154536.752500", "154538.242500", "154539.732500", "154541.222500", "154542.712500", "154544.202500", "154545.692500", "154547.182500", "154548.672500", "154550.162500", "154551.652500", "154553.142500", "154554.632500", "154556.122500", "154557.612500", "154559.102500", "154600.592500", "154602.082500", "154603.572500", "154605.062500", "154606.552500", "154608.042500", "154609.532500", "154611.022500", "154612.512500", "154614.002500", "154615.492500", "154616.982500", "154618.472500", "154619.962500", "154621.452500", "154622.942500", "154624.432500", "154625.922500", "154627.412500", "154628.902500", "154630.392500", "154631.882500", "154633.372500", "154634.862500", "154636.352500", "154637.842500", "154639.332500", "154640.822500", "154642.312500", "154643.802500", "154645.292500", "154646.782500", "154648.272500", "154649.762500", "154651.252500", "154652.742500", "154654.232500", "154655.722500", "154657.212500", "154658.702500", "154700.192500", "154701.682500", "154703.172500", "154704.662500", "154706.152500", "154707.642500", "154709.132500", "154710.622500", "154712.112500", "154713.602500", "154715.092500", "154716.582500", "154718.072500", "154719.562500", "154721.052500", "154722.542500", "154724.032500", "154725.522500", "154727.012500", "154728.502500", "154729.992500", "154731.482500", "154732.972500", "154734.462500", "154735.952500", "154737.442500", "154738.932500", "154740.422500", "154741.912500", "154743.402500", "154744.892500", "154746.382500", "154747.872500", "154749.362500", "154750.852500", "154752.342500", "154753.832500", "154755.322500", "154756.812500", "154758.302500", "154759.792500", "154801.282500", "154802.772500", "154804.262500", "154805.752500", "154807.242500", "154808.732500", "154810.222500", "154811.712500", "154813.202500", "154814.692500", "154816.182500", "154817.672500", "154819.162500", "154820.652500", "154822.142500", "154823.632500", "154825.122500", "154826.612500", "154828.102500", "154829.592500", "154831.082500", "154832.572500", "154834.062500", "154835.552500", "154837.042500", "154838.532500", "154840.022500", "154841.512500", "154843.002500", "154844.492500", "154845.982500", "154847.472500", "154848.962500", "154850.452500", "154851.942500", "154853.432500"],
      "ContentTime": ["153714.604000", "153714.607000", "153714.610000", "153714.613000", "153714.616000", "153714.619000", "153714.622000", "153714.625000", "153714.628000", "153714.631000", "153714.633000", "153714.636000", "153714.646000", "153714.649000", "153714.652000", "153714.655000", "153714.658000", "153714.661000", "153714.664000", "153714.667000", "153714.669000", "153714.672000", "153714.675000", "153714.678000", "153714.681000", "153714.684000", "153734.573000", "153734.576000", "153734.579000", "153734.582000", "153734.585000", "153734.587000", "153734.590000", "153734.593000", "153734.605000", "153734.607000", "153734.610000", "153734.613000", "153734.616000", "153734.619000", "153734.622000", "153734.625000", "153734.628000", "153734.631000", "153734.634000", "153734.637000", "153754.573000", "153754.576000", "153754.579000", "153754.582000", "153754.585000", "153754.588000", "153754.600000", "153754.603000", "153754.606000", "153754.612000", "153754.615000", "153754.618000", "153754.621000", "153754.624000", "153754.626000", "153754.629000", "153754.632000", "153754.635000", "153754.638000", "153754.641000", "153814.573000", "153814.576000", "153814.579000", "153814.582000", "153814.585000", "153814.588000", "153814.590000", "153814.593000", "153814.596000", "153814.599000", "153814.602000", "153814.605000", "153814.608000", "153814.611000", "153814.614000", "153814.616000", "153814.619000", "153814.622000", "153814.625000", "153814.628000", "153814.631000", "153834.574000", "153834.581000", "153834.584000", "153834.587000", "153834.590000", "153834.592000", "153834.595000", "153834.598000", "153834.601000", "153834.604000", "153834.607000", "153834.610000", "153834.613000", "153834.615000", "153834.618000", "153834.621000", "153834.624000", "153834.627000", "153834.630000", "153834.633000", "153914.574000", "153914.577000", "153914.580000", "153914.583000", "153914.586000", "153914.588000", "153914.591000", "153914.594000", "153914.597000", "153914.600000", "153914.603000", "153914.606000", "153914.609000", "153914.612000", "153914.614000", "153914.617000", "153914.620000", "153914.623000", "153914.626000", "153914.629000", "153914.632000", "153914.635000", "153914.653000", "153914.656000", "153914.675000", "153914.677000", "153914.680000", "153954.573000", "153954.576000", "153954.579000", "153954.582000", "153954.585000", "153954.588000", "153954.590000", "153954.593000", "153954.596000", "153954.599000", "153954.602000", "153954.605000", "153954.608000", "153954.611000", "153954.614000", "153954.617000", "153954.620000", "153954.622000", "153954.625000", "153954.628000", "153954.631000", "153954.637000", "153954.640000", "153954.643000", "153954.646000", "153954.649000", "153954.652000", "154034.573000", "154034.576000", "154034.579000", "154034.582000", "154034.585000", "154034.588000", "154034.591000", "154034.593000", "154034.596000", "154034.599000", "154034.602000", "154034.605000", "154034.608000", "154034.611000", "154034.614000", "154034.617000", "154034.620000", "154034.622000", "154034.625000", "154034.628000", "154034.631000", "154034.634000", "154034.637000", "154034.640000", "154034.643000", "154034.646000", "154034.649000", "154114.575000", "154114.578000", "154114.581000", "154114.584000", "154114.587000", "154114.590000", "154114.593000", "154114.596000", "154114.599000", "154114.602000", "154114.604000", "154114.607000", "154114.610000", "154114.613000", "154114.616000", "154114.619000", "154114.622000", "154114.625000", "154114.628000", "154114.631000", "154114.640000", "154114.643000", "154114.646000", "154114.649000", "154114.652000", "154114.655000", "154154.573000", "154154.576000", "154154.579000", "154154.582000", "154154.585000", "154154.588000", "154154.591000", "154154.594000", "154154.597000", "154154.600000", "154154.603000", "154154.606000", "154154.608000", "154154.611000", "154154.614000", "154154.617000", "154154.620000", "154154.623000", "154154.626000", "154154.629000", "154154.632000", "154154.635000", "154154.637000", "154154.640000", "154154.643000", "154154.646000", "154154.649000", "154234.573000", "154234.576000", "154234.579000", "154234.582000", "154234.585000", "154234.588000", "154234.591000", "154234.594000", "154234.597000", "154234.600000", "154234.603000", "154234.606000", "154234.608000", "154234.611000", "154234.614000", "154234.617000", "154234.620000", "154234.623000", "154234.626000", "154234.629000", "154234.632000", "154234.635000", "154234.638000", "154234.640000", "154234.643000", "154234.646000", "154234.649000", "154314.574000", "154314.577000", "154314.580000", "154314.583000", "154314.586000", "154314.589000", "154314.592000", "154314.595000", "154314.597000", "154314.600000", "154314.603000", "154314.606000", "154314.609000", "154314.612000", "154314.615000", "154314.618000", "154314.621000", "154314.623000", "154314.626000", "154314.629000", "154314.632000", "154314.644000", "154314.647000", "154314.650000", "154314.653000", "154314.656000", "154314.659000", "154354.574000", "154354.577000", "154354.580000", "154354.583000", "154354.586000", "154354.589000", "154354.592000", "154354.595000", "154354.597000", "154354.600000", "154354.603000", "154354.606000", "154354.609000", "154354.612000", "154354.615000", "154354.618000", "154354.621000", "154354.624000", "154354.634000", "154354.637000", "154354.640000", "154354.643000", "154354.646000", "154354.649000", "154354.652000", "154354.655000", "154354.657000", "154434.573000", "154434.576000", "154434.579000", "154434.582000", "154434.585000", "154434.588000", "154434.591000", "154434.594000", "154434.597000", "154434.600000", "154434.602000", "154434.605000", "154434.608000", "154434.611000", "154434.614000", "154434.617000", "154434.620000", "154434.623000", "154434.626000", "154434.629000", "154434.631000", "154434.634000", "154434.637000", "154434.647000", "154434.650000", "154434.652000", "154434.655000", "154514.574000", "154514.578000", "154514.581000", "154514.584000", "154514.587000", "154514.591000", "154514.594000", "154514.597000", "154514.600000", "154514.603000", "154514.606000", "154514.609000", "154514.612000", "154514.615000", "154514.618000", "154514.620000", "154514.623000", "154514.626000", "154514.629000", "154514.632000", "154514.635000", "154514.638000", "154514.641000", "154514.644000", "154514.647000", "154514.650000", "154554.574000", "154554.577000", "154554.580000", "154554.583000", "154554.586000", "154554.589000", "154554.592000", "154554.595000", "154554.598000", "154554.601000", "154554.603000", "154554.606000", "154554.609000", "154554.612000", "154554.615000", "154554.618000", "154554.621000", "154554.624000", "154554.627000", "154554.630000", "154554.633000", "154554.636000", "154554.639000", "154554.641000", "154554.644000", "154554.647000", "154554.650000", "154634.573000", "154634.576000", "154634.579000", "154634.582000", "154634.585000", "154634.588000", "154634.591000", "154634.594000", "154634.597000", "154634.600000", "154634.603000", "154634.606000", "154634.609000", "154634.611000", "154634.614000", "154634.617000", "154634.620000", "154634.623000", "154634.626000", "154634.629000", "154634.632000", "154634.635000", "154634.638000", "154634.641000", "154634.644000", "154634.646000", "154634.649000", "154714.573000", "154714.576000", "154714.579000", "154714.582000", "154714.585000", "154714.588000", "154714.591000", "154714.594000", "154714.597000", "154714.600000", "154714.602000", "154714.605000", "154714.608000", "154714.611000", "154714.614000", "154714.617000", "154714.620000", "154714.623000", "154714.626000", "154714.629000", "154714.632000", "154714.634000", "154714.637000", "154714.640000", "154714.643000", "154714.646000", "154714.649000", "154754.574000", "154754.577000", "154754.580000", "154754.583000", "154754.586000", "154754.602000", "154754.605000", "154754.608000", "154754.611000", "154754.614000", "154754.617000", "154754.620000", "154754.622000", "154754.625000", "154754.628000", "154754.631000", "154754.634000", "154754.637000", "154754.640000", "154754.643000", "154754.646000", "154754.649000", "154754.652000", "154754.655000", "154754.658000", "154754.660000", "154754.663000", "154834.584000", "154834.588000", "154834.590000", "154834.593000", "154834.596000", "154834.599000", "154834.602000", "154834.605000", "154834.608000", "154834.611000", "154834.614000", "154834.617000", "154834.619000", "154834.622000", "154834.625000", "154834.628000", "154834.631000", "154834.634000", "154834.637000", "154834.640000", "154834.643000", "154834.646000", "154834.649000", "154834.652000", "154834.654000", "154834.657000", "154834.660000", "154855.173000", "154855.176000", "154855.179000", "154855.182000", "154855.185000", "154855.188000", "154855.191000", "154855.194000", "154855.197000", "154855.200000", "154855.203000", "154855.206000", "154855.209000", "154855.212000"],
