{
  "AcquisitionMatrixPE": 104,
  "AcquisitionNumber": 1,
  "AcquisitionTime": "16:02:16.897500",
  "BandwidthPerPixelPhaseEncode": 17.17,
  "BaseResolution": 104,
  "BodyPartExamined": "BRAIN",
  "CoilString": "HC1-7;NC1_2",
  "ConsistencyInfo": "N4_VE11C_LATEST_20160120",
  "ConversionSoftware": "dcm2niix",
  "ConversionSoftwareVersion": "v1.0.20190902",
  "DerivedVendorReportedEchoSpacing": 0.000560011,
  "DeviceSerialNumber": "167006",
  "DwellTime": 2.1e-06,
  "EchoTime": 0.037,
  "EchoTrainLength": 104,
  "EffectiveEchoSpacing": 0.000560011,
  "FlipAngle": 52,
  "ImageComments": "Unaliased_MB4_PE3_LB",
  "ImageOrientationPatientDICOM": [0.998796, -0.0490538, -0.000290251, 0.0458791, 0.936217, -0.348414],
  "ImageType": [
    "ORIGINAL",
    "PRIMARY",
    "M",
    "MB",
    "ND",
    "MOSAIC"
],
  "ImagingFrequency": 123.259,
  "InPlanePhaseEncodingDirectionDICOM": "COL",
  "InstitutionAddress": "Chemin_Queen-Mary_4565_Montreal_District_CA_H3W_1W5",
  "InstitutionName": "IUGM",
  "InstitutionalDepartmentName": "Department",
  "MRAcquisitionType": "2D",
  "MagneticFieldStrength": 3,
  "Manufacturer": "Siemens",
  "ManufacturersModelName": "Prisma_fit",
  "Modality": "MR",
  "MultibandAccelerationFactor": 4,
  "PartialFourier": 1,
  "PatientPosition": "HFS",
  "PercentPhaseFOV": 100,
  "PhaseEncodingDirection": "j",
  "PhaseEncodingSteps": 104,
  "PhaseResolution": 1,
  "PixelBandwidth": 2290,
  "ProcedureStepDescription": "video_friends",
  "ProtocolName": "func_task-friends-s05e05b",
  "PulseSequenceDetails": "%CustomerSeq%_cmrr_mbep2d_bold",
  "ReceiveCoilActiveElements": "HC1-7;NC1,2",
  "ReceiveCoilName": "HeadNeck_64",
  "ReconMatrixPE": 104,
  "RepetitionTime": 1.49,
  "SAR": 0.0303132,
  "ScanOptions": "FS",
  "ScanningSequence": "EP",
  "SequenceName": "epfid2d1_104",
  "SequenceVariant": "SK_SS",
  "SeriesDescription": "func_task-friends-s05e05b",
  "SeriesNumber": 17,
  "ShimSetting": [641, -7256, -8839, 630, 24, -237, -75, -19],
  "SliceThickness": 2,
  "SliceTiming": [0, 0.7825, 0.0975, 0.88, 0.195, 0.98, 0.2925, 1.0775, 0.39, 1.175, 0.49, 1.2725, 0.5875, 1.37, 0.685, 0, 0.7825, 0.0975, 0.88, 0.195, 0.98, 0.2925, 1.0775, 0.39, 1.175, 0.49, 1.2725, 0.5875, 1.37, 0.685, 0, 0.7825, 0.0975, 0.88, 0.195, 0.98, 0.2925, 1.0775, 0.39, 1.175, 0.49, 1.2725, 0.5875, 1.37, 0.685, 0, 0.7825, 0.0975, 0.88, 0.195, 0.98, 0.2925, 1.0775, 0.39, 1.175, 0.49, 1.2725, 0.5875, 1.37, 0.685],
  "SoftwareVersions": "syngo_MR_E11",
  "SpacingBetweenSlices": 2,
  "StationName": "MRC35049",
  "TaskName": "s05e05b",
  "TotalReadoutTime": 0.0576811,
  "TxRefAmp": 219.642,
  "WipMemBlock": "6e31320f-0acd-4e9d-9d9f-007568881459||Sequence: R016 ve11c/master r/e634e98; Dec 19 2017 11:00:25 by eja",
  "dcmmeta_affine": [
    [-1.9975922107696533, 0.09175825864076614, -0.03472558781504631, 98.26468658447266],
    [0.09810763597488403, 1.8724342584609985, -0.6959632635116577, -78.4002914428711],
    [-0.0005805013352073729, 0.6968287825584412, 1.8746811151504517, -69.79210662841797],
    [0.0, 0.0, 0.0, 1.0]
],
  "dcmmeta_reorient_transform": [
    [0.0, -1.0, 0.0, 103.0],
    [1.0, 0.0, 0.0, 0.0],
    [0.0, 0.0, 1.0, 0.0],
    [0.0, 0.0, 0.0, 1.0]
],
  "dcmmeta_shape": [104, 104, 60, 521],
  "dcmmeta_slice_dim": 2,
  "dcmmeta_version": 0.6,
  "global": {
    "const": {
      "AcquisitionMatrix": [104, 0, 0, 104],
      "AngioFlag": "N",
      "BitsAllocated": 16,
      "BitsStored": 16,
      "BodyPartExamined": "BRAIN",
      "Columns": 832,
      "EchoNumbers": 1,
      "EchoTime": 37.0,
      "EchoTrainLength": 104,
      "FlipAngle": 52.0,
      "HighBit": 15,
      "ImageOrientationPatient": [0.99879609466754, -0.0490538177049, -0.0002902506687, 0.0458791308813, 0.93621712668887, -0.3484144041856],
      "ImagePositionPatient": [-868.23934884009, -760.31532290378, 255.8382457392],
      "ImageType": [
        "ORIGINAL",
        "PRIMARY",
        "M",
        "MB",
        "ND",
        "MOSAIC"
],
      "ImagedNucleus": "1H",
      "ImagingFrequency": 123.258975,
      "InPlanePhaseEncodingDirection": "COL",
      "MRAcquisitionType": "2D",
      "MagneticFieldStrength": 3.0,
      "Manufacturer": "SIEMENS",
      "ManufacturerModelName": "Prisma_fit",
      "Modality": "MR",
      "NumberOfAverages": 1.0,
      "NumberOfPhaseEncodingSteps": 104,
      "PercentPhaseFieldOfView": 100.0,
      "PercentSampling": 100.0,
      "PerformedProcedureStepStartTime": "144718.555000",
      "PhotometricInterpretation": "MONOCHROME2",
      "PixelBandwidth": 2290.0,
      "PixelRepresentation": 0,
      "PixelSpacing": [2.0, 2.0],
      "ProtocolName": "func_task-friends-s05e05b",
      "RepetitionTime": 1490.0,
      "Rows": 832,
      "SAR": 0.03031321101506,
      "SamplesPerPixel": 1,
      "ScanOptions": "FS",
      "ScanningSequence": "EP",
      "SequenceName": "epfid2d1_104",
      "SequenceVariant": [
        "SK",
        "SS"
],
      "SeriesDescription": "func_task-friends-s05e05b",
      "SeriesNumber": 17,
      "SeriesTime": "160331.769000",
      "SliceLocation": -39.843262825274,
      "SliceThickness": 2.0,
      "SmallestImagePixelValue": 0,
      "SoftwareVersions": "syngo MR E11",
      "SpacingBetweenSlices": 2.0000000159752,
      "SpecificCharacterSet": "ISO_IR 100",
      "StudyID": "1",
      "StudyTime": "144718.493000",
      "TransmitCoilName": "Body",
      "VariableFlipAngleFlag": "N",
      "WindowCenterWidthExplanation": "Algo1",
      "dBdt": 0.0},
    "slices": {}
  },
  "time": {
    "samples": {
      "AcquisitionNumber": [1, 2, 3, 4, 5, 6, 7, 8, 9, 10, 11, 12, 13, 14, 15, 16, 17, 18, 19, 20, 21, 22, 23, 24, 25, 26, 27, 28, 29, 30, 31, 32, 33, 34, 35, 36, 37, 38, 39, 40, 41, 42, 43, 44, 45, 46, 47, 48, 49, 50, 51, 52, 53, 54, 55, 56, 57, 58, 59, 60, 61, 62, 63, 64, 65, 66, 67, 68, 69, 70, 71, 72, 73, 74, 75, 76, 77, 78, 79, 80, 81, 82, 83, 84, 85, 86, 87, 88, 89, 90, 91, 92, 93, 94, 95, 96, 97, 98, 99, 100, 101, 102, 103, 104, 105, 106, 107, 108, 109, 110, 111, 112, 113, 114, 115, 116, 117, 118, 119, 120, 121, 122, 123, 124, 125, 126, 127, 128, 129, 130, 131, 132, 133, 134, 135, 136, 137, 138, 139, 140, 141, 142, 143, 144, 145, 146, 147, 148, 149, 150, 151, 152, 153, 154, 155, 156, 157, 158, 159, 160, 161, 162, 163, 164, 165, 166, 167, 168, 169, 170, 171, 172, 173, 174, 175, 176, 177, 178, 179, 180, 181, 182, 183, 184, 185, 186, 187, 188, 189, 190, 191, 192, 193, 194, 195, 196, 197, 198, 199, 200, 201, 202, 203, 204, 205, 206, 207, 208, 209, 210, 211, 212, 213, 214, 215, 216, 217, 218, 219, 220, 221, 222, 223, 224, 225, 226, 227, 228, 229, 230, 231, 232, 233, 234, 235, 236, 237, 238, 239, 240, 241, 242, 243, 244, 245, 246, 247, 248, 249, 250, 251, 252, 253, 254, 255, 256, 257, 258, 259, 260, 261, 262, 263, 264, 265, 266, 267, 268, 269, 270, 271, 272, 273, 274, 275, 276, 277, 278, 279, 280, 281, 282, 283, 284, 285, 286, 287, 288, 289, 290, 291, 292, 293, 294, 295, 296, 297, 298, 299, 300, 301, 302, 303, 304, 305, 306, 307, 308, 309, 310, 311, 312, 313, 314, 315, 316, 317, 318, 319, 320, 321, 322, 323, 324, 325, 326, 327, 328, 329, 330, 331, 332, 333, 334, 335, 336, 337, 338, 339, 340, 341, 342, 343, 344, 345, 346, 347, 348, 349, 350, 351, 352, 353, 354, 355, 356, 357, 358, 359, 360, 361, 362, 363, 364, 365, 366, 367, 368, 369, 370, 371, 372, 373, 374, 375, 376, 377, 378, 379, 380, 381, 382, 383, 384, 385, 386, 387, 388, 389, 390, 391, 392, 393, 394, 395, 396, 397, 398, 399, 400, 401, 402, 403, 404, 405, 406, 407, 408, 409, 410, 411, 412, 413, 414, 415, 416, 417, 418, 419, 420, 421, 422, 423, 424, 425, 426, 427, 428, 429, 430, 431, 432, 433, 434, 435, 436, 437, 438, 439, 440, 441, 442, 443, 444, 445, 446, 447, 448, 449, 450, 451, 452, 453, 454, 455, 456, 457, 458, 459, 460, 461, 462, 463, 464, 465, 466, 467, 468, 469, 470, 471, 472, 473, 474, 475, 476, 477, 478, 479, 480, 481, 482, 483, 484, 485, 486, 487, 488, 489, 490, 491, 492, 493, 494, 495, 496, 497, 498, 499, 500, 501, 502, 503, 504, 505, 506, 507, 508, 509, 510, 511, 512, 513, 514, 515, 516, 517, 518, 519, 520, 521],
      "AcquisitionTime": ["160216.897500", "160218.387500", "160219.877500", "160221.367500", "160222.857500", "160224.347500", "160225.837500", "160227.327500", "160228.817500", "160230.307500", "160231.797500", "160233.287500", "160234.777500", "160236.267500", "160237.757500", "160239.247500", "160240.737500", "160242.227500", "160243.717500", "160245.207500", "160246.697500", "160248.187500", "160249.677500", "160251.167500", "160252.657500", "160254.147500", "160255.637500", "160257.127500", "160258.617500", "160300.107500", "160301.597500", "160303.087500", "160304.577500", "160306.067500", "160307.557500", "160309.047500", "160310.537500", "160312.027500", "160313.517500", "160315.007500", "160316.497500", "160317.987500", "160319.477500", "160320.967500", "160322.457500", "160323.947500", "160325.437500", "160326.927500", "160328.417500", "160329.907500", "160331.397500", "160332.887500", "160334.377500", "160335.867500", "160337.357500", "160338.847500", "160340.337500", "160341.827500", "160343.317500", "160344.807500", "160346.297500", "160347.787500", "160349.277500", "160350.767500", "160352.257500", "160353.747500", "160355.237500", "160356.727500", "160358.217500", "160359.707500", "160401.197500", "160402.687500", "160404.177500", "160405.667500", "160407.157500", "160408.647500", "160410.137500", "160411.627500", "160413.117500", "160414.607500", "160416.097500", "160417.587500", "160419.077500", "160420.567500", "160422.057500", "160423.547500", "160425.037500", "160426.527500", "160428.017500", "160429.507500", "160430.997500", "160432.487500", "160433.977500", "160435.467500", "160436.957500", "160438.447500", "160439.937500", "160441.427500", "160442.917500", "160444.407500", "160445.897500", "160447.387500", "160448.877500", "160450.367500", "160451.857500", "160453.347500", "160454.837500", "160456.327500", "160457.817500", "160459.307500", "160500.797500", "160502.287500", "160503.777500", "160505.267500", "160506.757500", "160508.247500", "160509.737500", "160511.227500", "160512.717500", "160514.207500", "160515.697500", "160517.187500", "160518.677500", "160520.167500", "160521.657500", "160523.147500", "160524.637500", "160526.127500", "160527.617500", "160529.107500", "160530.597500", "160532.087500", "160533.577500", "160535.067500", "160536.557500", "160538.047500", "160539.537500", "160541.027500", "160542.517500", "160544.007500", "160545.497500", "160546.987500", "160548.477500", "160549.967500", "160551.457500", "160552.947500", "160554.437500", "160555.927500", "160557.417500", "160558.907500", "160600.397500", "160601.887500", "160603.377500", "160604.867500", "160606.357500", "160607.847500", "160609.337500", "160610.827500", "160612.317500", "160613.807500", "160615.297500", "160616.787500", "160618.277500", "160619.767500", "160621.257500", "160622.747500", "160624.237500", "160625.727500", "160627.217500", "160628.707500", "160630.197500", "160631.687500", "160633.177500", "160634.667500", "160636.157500", "160637.647500", "160639.137500", "160640.627500", "160642.117500", "160643.607500", "160645.097500", "160646.587500", "160648.077500", "160649.567500", "160651.057500", "160652.547500", "160654.037500", "160655.527500", "160657.017500", "160658.507500", "160659.997500", "160701.487500", "160702.977500", "160704.467500", "160705.957500", "160707.447500", "160708.937500", "160710.427500", "160711.917500", "160713.407500", "160714.897500", "160716.387500", "160717.877500", "160719.367500", "160720.857500", "160722.347500", "160723.837500", "160725.327500", "160726.817500", "160728.307500", "160729.797500", "160731.287500", "160732.777500", "160734.267500", "160735.757500", "160737.247500", "160738.737500", "160740.227500", "160741.717500", "160743.207500", "160744.697500", "160746.187500", "160747.677500", "160749.167500", "160750.657500", "160752.147500", "160753.637500", "160755.127500", "160756.617500", "160758.107500", "160759.597500", "160801.087500", "160802.577500", "160804.067500", "160805.557500", "160807.047500", "160808.537500", "160810.027500", "160811.517500", "160813.007500", "160814.497500", "160815.987500", "160817.477500", "160818.967500", "160820.457500", "160821.947500", "160823.437500", "160824.927500", "160826.417500", "160827.907500", "160829.397500", "160830.887500", "160832.377500", "160833.867500", "160835.357500", "160836.847500", "160838.337500", "160839.827500", "160841.317500", "160842.807500", "160844.297500", "160845.787500", "160847.277500", "160848.767500", "160850.257500", "160851.747500", "160853.237500", "160854.727500", "160856.217500", "160857.707500", "160859.197500", "160900.687500", "160902.177500", "160903.667500", "160905.157500", "160906.647500", "160908.137500", "160909.627500", "160911.117500", "160912.607500", "160914.097500", "160915.587500", "160917.077500", "160918.567500", "160920.057500", "160921.547500", "160923.037500", "160924.527500", "160926.017500", "160927.507500", "160928.997500", "160930.487500", "160931.977500", "160933.467500", "160934.957500", "160936.447500", "160937.937500", "160939.427500", "160940.917500", "160942.407500", "160943.897500", "160945.387500", "160946.877500", "160948.367500", "160949.857500", "160951.347500", "160952.837500", "160954.327500", "160955.817500", "160957.307500", "160958.797500", "161000.287500", "161001.777500", "161003.267500", "161004.757500", "161006.247500", "161007.737500", "161009.227500", "161010.717500", "161012.207500", "161013.697500", "161015.187500", "161016.677500", "161018.167500", "161019.657500", "161021.147500", "161022.637500", "161024.127500", "161025.617500", "161027.107500", "161028.597500", "161030.087500", "161031.577500", "161033.067500", "161034.557500", "161036.047500", "161037.537500", "161039.027500", "161040.517500", "161042.007500", "161043.497500", "161044.987500", "161046.477500", "161047.967500", "161049.457500", "161050.947500", "161052.437500", "161053.927500", "161055.417500", "161056.907500", "161058.397500", "161059.887500", "161101.377500", "161102.867500", "161104.357500", "161105.847500", "161107.337500", "161108.827500", "161110.317500", "161111.807500", "161113.297500", "161114.787500", "161116.277500", "161117.767500", "161119.257500", "161120.747500", "161122.237500", "161123.727500", "161125.217500", "161126.707500", "161128.197500", "161129.687500", "161131.177500", "161132.667500", "161134.157500", "161135.647500", "161137.137500", "161138.627500", "161140.117500", "161141.607500", "161143.097500", "161144.587500", "161146.077500", "161147.567500", "161149.057500", "161150.547500", "161152.037500", "161153.527500", "161155.017500", "161156.507500", "161157.997500", "161159.487500", "161200.977500", "161202.467500", "161203.957500", "161205.447500", "161206.937500", "161208.427500", "161209.917500", "161211.407500", "161212.897500", "161214.387500", "161215.877500", "161217.367500", "161218.857500", "161220.347500", "161221.837500", "161223.327500", "161224.817500", "161226.307500", "161227.797500", "161229.287500", "161230.777500", "161232.267500", "161233.757500", "161235.247500", "161236.737500", "161238.227500", "161239.717500", "161241.207500", "161242.697500", "161244.187500", "161245.677500", "161247.167500", "161248.657500", "161250.147500", "161251.637500", "161253.127500", "161254.617500", "161256.107500", "161257.597500", "161259.087500", "161300.577500", "161302.067500", "161303.557500", "161305.047500", "161306.537500", "161308.027500", "161309.517500", "161311.007500", "161312.497500", "161313.987500", "161315.477500", "161316.967500", "161318.457500", "161319.947500", "161321.437500", "161322.927500", "161324.417500", "161325.907500", "161327.397500", "161328.887500", "161330.377500", "161331.867500", "161333.357500", "161334.847500", "161336.337500", "161337.827500", "161339.317500", "161340.807500", "161342.297500", "161343.787500", "161345.277500", "161346.767500", "161348.257500", "161349.747500", "161351.237500", "161352.727500", "161354.217500", "161355.707500", "161357.197500", "161358.687500", "161400.177500", "161401.667500", "161403.157500", "161404.647500", "161406.137500", "161407.627500", "161409.117500", "161410.607500", "161412.097500", "161413.587500", "161415.077500", "161416.567500", "161418.057500", "161419.547500", "161421.037500", "161422.527500", "161424.017500", "161425.507500", "161426.997500", "161428.487500", "161429.977500", "161431.467500", "161432.957500", "161434.447500", "161435.937500", "161437.427500", "161438.917500", "161440.407500", "161441.897500", "161443.387500", "161444.877500", "161446.367500", "161447.857500", "161449.347500", "161450.837500", "161452.327500", "161453.817500", "161455.307500", "161456.797500", "161458.287500", "161459.777500", "161501.267500", "161502.757500", "161504.247500", "161505.737500", "161507.227500", "161508.717500", "161510.207500", "161511.697500"],
      "ContentTime": ["160331.772000", "160331.776000", "160331.779000", "160331.782000", "160331.785000", "160331.787000", "160331.790000", "160331.793000", "160331.802000", "160331.805000", "160331.808000", "160331.811000", "160331.814000", "160331.816000", "160331.819000", "160331.822000", "160331.825000", "160331.828000", "160331.831000", "160331.834000", "160331.837000", "160331.840000", "160351.747000", "160351.750000", "160351.753000", "160351.756000", "160351.759000", "160351.762000", "160351.764000", "160351.767000", "160351.770000", "160351.773000", "160351.776000", "160351.779000", "160351.782000", "160351.785000", "160351.788000", "160351.790000", "160351.793000", "160351.796000", "160351.799000", "160351.802000", "160411.747000", "160411.750000", "160411.753000", "160411.756000", "160411.759000", "160411.762000", "160411.764000", "160411.767000", "160411.770000", "160411.773000", "160411.776000", "160411.779000", "160411.782000", "160411.785000", "160411.788000", "160411.791000", "160411.793000", "160411.805000", "160411.808000", "160411.811000", "160431.747000", "160431.750000", "160431.753000", "160431.756000", "160431.759000", "160431.762000", "160431.764000", "160431.767000", "160431.770000", "160431.773000", "160431.776000", "160431.779000", "160431.782000", "160431.785000", "160431.788000", "160431.791000", "160431.794000", "160431.796000", "160431.799000", "160431.802000", "160451.748000", "160451.751000", "160451.755000", "160451.759000", "160451.762000", "160451.766000", "160451.769000", "160451.772000", "160451.785000", "160451.788000", "160451.791000", "160451.794000", "160451.797000", "160451.800000", "160451.802000", "160451.805000", "160451.808000", "160451.811000", "160451.814000", "160451.817000", "160531.747000", "160531.750000", "160531.753000", "160531.756000", "160531.759000", "160531.762000", "160531.765000", "160531.768000", "160531.771000", "160531.773000", "160531.776000", "160531.779000", "160531.782000", "160531.785000", "160531.788000", "160531.791000", "160531.794000", "160531.797000", "160531.800000", "160531.803000", "160531.805000", "160531.808000", "160531.811000", "160531.814000", "160531.817000", "160531.820000", "160531.823000", "160531.826000", "160611.747000", "160611.750000", "160611.753000", "160611.756000", "160611.759000", "160611.762000", "160611.765000", "160611.768000", "160611.771000", "160611.774000", "160611.776000", "160611.779000", "160611.782000", "160611.785000", "160611.788000", "160611.791000", "160611.794000", "160611.797000", "160611.800000", "160611.803000", "160611.806000", "160611.809000", "160611.811000", "160611.814000", "160611.817000", "160611.820000", "160611.823000", "160651.747000", "160651.750000", "160651.753000", "160651.756000", "160651.759000", "160651.762000", "160651.765000", "160651.768000", "160651.770000", "160651.773000", "160651.776000", "160651.779000", "160651.782000", "160651.785000", "160651.788000", "160651.791000", "160651.794000", "160651.797000", "160651.800000", "160651.803000", "160651.805000", "160651.808000", "160651.811000", "160651.814000", "160651.817000", "160651.820000", "160651.823000", "160731.747000", "160731.750000", "160731.753000", "160731.756000", "160731.759000", "160731.762000", "160731.765000", "160731.768000", "160731.771000", "160731.774000", "160731.777000", "160731.780000", "160731.783000", "160731.785000", "160731.788000", "160731.791000", "160731.794000", "160731.797000", "160731.800000", "160731.803000", "160731.806000", "160731.809000", "160731.811000", "160731.814000", "160731.817000", "160731.820000", "160811.747000", "160811.750000", "160811.753000", "160811.756000", "160811.759000", "160811.762000", "160811.765000", "160811.768000", "160811.771000", "160811.773000", "160811.776000", "160811.779000", "160811.782000", "160811.785000", "160811.788000", "160811.791000", "160811.794000", "160811.797000", "160811.800000", "160811.803000", "160811.805000", "160811.808000", "160811.811000", "160811.814000", "160811.817000", "160811.820000", "160811.823000", "160851.747000", "160851.750000", "160851.753000", "160851.756000", "160851.759000", "160851.762000", "160851.765000", "160851.768000", "160851.770000", "160851.773000", "160851.776000", "160851.779000", "160851.782000", "160851.785000", "160851.788000", "160851.791000", "160851.794000", "160851.797000", "160851.800000", "160851.802000", "160851.805000", "160851.808000", "160851.811000", "160851.814000", "160851.817000", "160851.820000", "160851.823000", "160931.747000", "160931.750000", "160931.753000", "160931.756000", "160931.759000", "160931.762000", "160931.765000", "160931.768000", "160931.771000", "160931.774000", "160931.786000", "160931.789000", "160931.792000", "160931.795000", "160931.797000", "160931.800000", "160931.803000", "160931.806000", "160931.809000", "160931.812000", "160931.815000", "160931.818000", "160931.821000", "160931.824000", "160931.827000", "160931.830000", "160931.832000", "161011.747000", "161011.750000", "161011.753000", "161011.756000", "161011.759000", "161011.762000", "161011.765000", "161011.768000", "161011.771000", "161011.774000", "161011.776000", "161011.779000", "161011.782000", "161011.785000", "161011.788000", "161011.791000", "161011.794000", "161011.797000", "161011.800000", "161011.803000", "161011.805000", "161011.808000", "161011.811000", "161011.814000", "161011.817000", "161011.820000", "161011.823000", "161051.747000", "161051.750000", "161051.753000", "161051.756000", "161051.759000", "161051.762000", "161051.765000", "161051.768000", "161051.771000", "161051.774000", "161051.776000", "161051.779000", "161051.782000", "161051.785000", "161051.788000", "161051.791000", "161051.794000", "161051.797000", "161051.800000", "161051.803000", "161051.805000", "161051.808000", "161051.811000", "161051.814000", "161051.817000", "161051.820000", "161051.823000", "161131.747000", "161131.750000", "161131.753000", "161131.756000", "161131.759000", "161131.762000", "161131.765000", "161131.768000", "161131.771000", "161131.774000", "161131.777000", "161131.780000", "161131.782000", "161131.785000", "161131.788000", "161131.791000", "161131.794000", "161131.797000", "161131.800000", "161131.803000", "161131.806000", "161131.809000", "161131.812000", "161131.815000", "161131.818000", "161131.821000", "161131.824000", "161211.747000", "161211.750000", "161211.753000", "161211.756000", "161211.759000", "161211.762000", "161211.765000", "161211.768000", "161211.771000", "161211.774000", "161211.777000", "161211.780000", "161211.783000", "161211.786000", "161211.789000", "161211.792000", "161211.794000", "161211.797000", "161211.800000", "161211.803000", "161211.806000", "161211.809000", "161211.812000", "161211.815000", "161211.824000", "161211.827000", "161251.747000", "161251.750000", "161251.753000", "161251.756000", "161251.759000", "161251.762000", "161251.765000", "161251.768000", "161251.771000", "161251.774000", "161251.776000", "161251.779000", "161251.782000", "161251.785000", "161251.788000", "161251.791000", "161251.794000", "161251.797000", "161251.800000", "161251.803000", "161251.806000", "161251.809000", "161251.812000", "161251.815000", "161251.817000", "161251.820000", "161251.823000", "161331.747000", "161331.751000", "161331.754000", "161331.757000", "161331.760000", "161331.762000", "161331.766000", "161331.768000", "161331.771000", "161331.774000", "161331.777000", "161331.780000", "161331.783000", "161331.786000", "161331.789000", "161331.792000", "161331.795000", "161331.797000", "161331.800000", "161331.803000", "161331.806000", "161331.809000", "161331.812000", "161331.815000", "161331.818000", "161331.821000", "161331.824000", "161411.747000", "161411.750000", "161411.753000", "161411.756000", "161411.759000", "161411.762000", "161411.765000", "161411.773000", "161411.776000", "161411.779000", "161411.782000", "161411.785000", "161411.788000", "161411.791000", "161411.794000", "161411.797000", "161411.799000", "161411.802000", "161411.805000", "161411.808000", "161411.811000", "161411.814000", "161411.817000", "161411.820000", "161411.823000", "161411.826000", "161411.829000", "161451.747000", "161451.750000", "161451.753000", "161451.756000", "161451.759000", "161451.762000", "161451.765000", "161451.768000", "161451.771000", "161451.773000", "161451.776000", "161451.779000", "161451.782000", "161451.785000", "161451.788000", "161451.791000", "161451.794000", "161451.797000", "161451.800000", "161451.803000", "161451.806000", "161451.808000", "161451.811000", "161451.814000", "161451.817000", "161451.820000", "161451.823000", "161513.702000", "161513.706000", "161513.709000", "161513.712000", "161513.715000", "161513.718000", "161513.721000", "161513.725000", "161513.728000", "161513.731000", "161513.734000", "161513.737000", "161513.739000", "161513.742000", "161513.745000"],
