{
  "AcquisitionMatrixPE": 104,
  "AcquisitionNumber": 1,
  "AcquisitionTime": "11:26:0.950000",
  "BandwidthPerPixelPhaseEncode": 17.17,
  "BaseResolution": 104,
  "BodyPartExamined": "BRAIN",
  "CoilString": "HC1-7;NC1_2",
  "ConsistencyInfo": "N4_VE11C_LATEST_20160120",
  "ConversionSoftware": "dcm2niix",
  "ConversionSoftwareVersion": "v1.0.20190902",
  "DerivedVendorReportedEchoSpacing": 0.000560011,
  "DeviceSerialNumber": "167006",
  "DwellTime": 2.1e-06,
  "EchoTime": 0.037,
  "EchoTrainLength": 104,
  "EffectiveEchoSpacing": 0.000560011,
  "FlipAngle": 52,
  "ImageComments": "Unaliased_MB4_PE3_LB",
  "ImageOrientationPatientDICOM": [0.99841, -0.00471999, -0.0561744, -0.00749309, 0.976535, -0.21523],
  "ImageType": [
    "ORIGINAL",
    "PRIMARY",
    "M",
    "MB",
    "ND",
    "MOSAIC"
],
  "ImagingFrequency": 123.259,
  "InPlanePhaseEncodingDirectionDICOM": "COL",
  "InstitutionAddress": "Chemin_Queen-Mary_4565_Montreal_District_CA_H3W_1W5",
  "InstitutionName": "IUGM",
  "InstitutionalDepartmentName": "Department",
  "MRAcquisitionType": "2D",
  "MagneticFieldStrength": 3,
  "Manufacturer": "Siemens",
  "ManufacturersModelName": "Prisma_fit",
  "Modality": "MR",
  "MultibandAccelerationFactor": 4,
  "PartialFourier": 1,
  "PatientPosition": "HFS",
  "PercentPhaseFOV": 100,
  "PhaseEncodingDirection": "j",
  "PhaseEncodingSteps": 104,
  "PhaseResolution": 1,
  "PixelBandwidth": 2290,
  "ProcedureStepDescription": "video_friends",
  "ProtocolName": "func_task-friends-s04e11b",
  "PulseSequenceDetails": "%CustomerSeq%_cmrr_mbep2d_bold",
  "ReceiveCoilActiveElements": "HC1-7;NC1,2",
  "ReceiveCoilName": "HeadNeck_64",
  "ReconMatrixPE": 104,
  "RepetitionTime": 1.49,
  "SAR": 0.0288287,
  "ScanOptions": "FS",
  "ScanningSequence": "EP",
  "SequenceName": "epfid2d1_104",
  "SequenceVariant": "SK_SS",
  "SeriesDescription": "func_task-friends-s04e11b",
  "SeriesNumber": 15,
  "ShimSetting": [607, -7247, -8836, 610, -66, -263, 6, 37],
  "SliceThickness": 2,
  "SliceTiming": [0, 0.785, 0.0975, 0.8825, 0.1975, 0.98, 0.295, 1.0775, 0.3925, 1.1775, 0.49, 1.275, 0.5875, 1.3725, 0.6875, 0, 0.785, 0.0975, 0.8825, 0.1975, 0.98, 0.295, 1.0775, 0.3925, 1.1775, 0.49, 1.275, 0.5875, 1.3725, 0.6875, 0, 0.785, 0.0975, 0.8825, 0.1975, 0.98, 0.295, 1.0775, 0.3925, 1.1775, 0.49, 1.275, 0.5875, 1.3725, 0.6875, 0, 0.785, 0.0975, 0.8825, 0.1975, 0.98, 0.295, 1.0775, 0.3925, 1.1775, 0.49, 1.275, 0.5875, 1.3725, 0.6875],
  "SoftwareVersions": "syngo_MR_E11",
  "SpacingBetweenSlices": 2,
  "StationName": "MRC35049",
  "TaskName": "s04e11b",
  "TotalReadoutTime": 0.0576811,
  "TxRefAmp": 216.724,
  "WipMemBlock": "04957e29-5ee8-4fa0-b9ac-3636ab6114f6||Sequence: R016 ve11c/master r/e634e98; Dec 19 2017 11:00:25 by eja",
  "dcmmeta_affine": [
    [-1.9968196153640747, -0.014986172318458557, -0.11174424737691879, 102.1535873413086],
    [0.009439987130463123, 1.9530693292617798, -0.4306170642375946, -84.31814575195312],
    [-0.11234878748655319, 0.43045976758003235, 1.9498927593231201, -48.26971435546875],
    [0.0, 0.0, 0.0, 1.0]
],
  "dcmmeta_reorient_transform": [
    [0.0, -1.0, 0.0, 103.0],
    [1.0, 0.0, 0.0, 0.0],
    [0.0, 0.0, 1.0, 0.0],
    [0.0, 0.0, 0.0, 1.0]
],
  "dcmmeta_shape": [104, 104, 60, 483],
  "dcmmeta_slice_dim": 2,
  "dcmmeta_version": 0.6,
  "global": {
    "const": {
      "AcquisitionMatrix": [104, 0, 0, 104],
      "AngioFlag": "N",
      "BitsAllocated": 16,
      "BitsStored": 16,
      "BodyPartExamined": "BRAIN",
      "Columns": 832,
      "EchoNumbers": 1,
      "EchoTime": 37.0,
      "EchoTrainLength": 104,
      "FlipAngle": 52.0,
      "HighBit": 15,
      "ImageOrientationPatient": [0.99840981523051, -0.0047199934409, -0.0561743937511, -0.0074930860655, 0.97653466576884, -0.2152298776029],
      "ImagePositionPatient": [-821.99738804543, -824.32907945631, 193.64994846254],
      "ImageType": [
        "ORIGINAL",
        "PRIMARY",
        "M",
        "MB",
        "ND",
        "MOSAIC"
],
      "ImagedNucleus": "1H",
      "ImagingFrequency": 123.259031,
      "InPlanePhaseEncodingDirection": "COL",
      "MRAcquisitionType": "2D",
      "MagneticFieldStrength": 3.0,
      "Manufacturer": "SIEMENS",
      "ManufacturerModelName": "Prisma_fit",
      "Modality": "MR",
      "NumberOfAverages": 1.0,
      "NumberOfPhaseEncodingSteps": 104,
      "PercentPhaseFieldOfView": 100.0,
      "PercentSampling": 100.0,
      "PerformedProcedureStepStartTime": "095637.535000",
      "PhotometricInterpretation": "MONOCHROME2",
      "PixelBandwidth": 2290.0,
      "PixelRepresentation": 0,
      "PixelSpacing": [2.0, 2.0],
      "ProtocolName": "func_task-friends-s04e11b",
      "RepetitionTime": 1490.0,
      "Rows": 832,
      "SAR": 0.02882871715324,
      "SamplesPerPixel": 1,
      "ScanOptions": "FS",
      "ScanningSequence": "EP",
      "SequenceName": "epfid2d1_104",
      "SequenceVariant": [
        "SK",
        "SS"
],
      "SeriesDescription": "func_task-friends-s04e11b",
      "SeriesNumber": 15,
      "SeriesTime": "112728.041000",
      "SliceLocation": -34.613508620081,
      "SliceThickness": 2.0,
      "SmallestImagePixelValue": 0,
      "SoftwareVersions": "syngo MR E11",
      "SpacingBetweenSlices": 1.9999999303276,
      "SpecificCharacterSet": "ISO_IR 100",
      "StudyID": "1",
      "StudyTime": "095637.425000",
      "TransmitCoilName": "Body",
      "VariableFlipAngleFlag": "N",
      "WindowCenterWidthExplanation": "Algo1",
      "dBdt": 0.0},
    "slices": {}
  },
  "time": {
    "samples": {
      "AcquisitionNumber": [1, 2, 3, 4, 5, 6, 7, 8, 9, 10, 11, 12, 13, 14, 15, 16, 17, 18, 19, 20, 21, 22, 23, 24, 25, 26, 27, 28, 29, 30, 31, 32, 33, 34, 35, 36, 37, 38, 39, 40, 41, 42, 43, 44, 45, 46, 47, 48, 49, 50, 51, 52, 53, 54, 55, 56, 57, 58, 59, 60, 61, 62, 63, 64, 65, 66, 67, 68, 69, 70, 71, 72, 73, 74, 75, 76, 77, 78, 79, 80, 81, 82, 83, 84, 85, 86, 87, 88, 89, 90, 91, 92, 93, 94, 95, 96, 97, 98, 99, 100, 101, 102, 103, 104, 105, 106, 107, 108, 109, 110, 111, 112, 113, 114, 115, 116, 117, 118, 119, 120, 121, 122, 123, 124, 125, 126, 127, 128, 129, 130, 131, 132, 133, 134, 135, 136, 137, 138, 139, 140, 141, 142, 143, 144, 145, 146, 147, 148, 149, 150, 151, 152, 153, 154, 155, 156, 157, 158, 159, 160, 161, 162, 163, 164, 165, 166, 167, 168, 169, 170, 171, 172, 173, 174, 175, 176, 177, 178, 179, 180, 181, 182, 183, 184, 185, 186, 187, 188, 189, 190, 191, 192, 193, 194, 195, 196, 197, 198, 199, 200, 201, 202, 203, 204, 205, 206, 207, 208, 209, 210, 211, 212, 213, 214, 215, 216, 217, 218, 219, 220, 221, 222, 223, 224, 225, 226, 227, 228, 229, 230, 231, 232, 233, 234, 235, 236, 237, 238, 239, 240, 241, 242, 243, 244, 245, 246, 247, 248, 249, 250, 251, 252, 253, 254, 255, 256, 257, 258, 259, 260, 261, 262, 263, 264, 265, 266, 267, 268, 269, 270, 271, 272, 273, 274, 275, 276, 277, 278, 279, 280, 281, 282, 283, 284, 285, 286, 287, 288, 289, 290, 291, 292, 293, 294, 295, 296, 297, 298, 299, 300, 301, 302, 303, 304, 305, 306, 307, 308, 309, 310, 311, 312, 313, 314, 315, 316, 317, 318, 319, 320, 321, 322, 323, 324, 325, 326, 327, 328, 329, 330, 331, 332, 333, 334, 335, 336, 337, 338, 339, 340, 341, 342, 343, 344, 345, 346, 347, 348, 349, 350, 351, 352, 353, 354, 355, 356, 357, 358, 359, 360, 361, 362, 363, 364, 365, 366, 367, 368, 369, 370, 371, 372, 373, 374, 375, 376, 377, 378, 379, 380, 381, 382, 383, 384, 385, 386, 387, 388, 389, 390, 391, 392, 393, 394, 395, 396, 397, 398, 399, 400, 401, 402, 403, 404, 405, 406, 407, 408, 409, 410, 411, 412, 413, 414, 415, 416, 417, 418, 419, 420, 421, 422, 423, 424, 425, 426, 427, 428, 429, 430, 431, 432, 433, 434, 435, 436, 437, 438, 439, 440, 441, 442, 443, 444, 445, 446, 447, 448, 449, 450, 451, 452, 453, 454, 455, 456, 457, 458, 459, 460, 461, 462, 463, 464, 465, 466, 467, 468, 469, 470, 471, 472, 473, 474, 475, 476, 477, 478, 479, 480, 481, 482, 483],
      "AcquisitionTime": ["112600.950000", "112602.440000", "112603.930000", "112605.420000", "112606.910000", "112608.400000", "112609.890000", "112611.380000", "112612.870000", "112614.360000", "112615.850000", "112617.340000", "112618.830000", "112620.320000", "112621.810000", "112623.300000", "112624.790000", "112626.280000", "112627.770000", "112629.260000", "112630.750000", "112632.240000", "112633.730000", "112635.220000", "112636.710000", "112638.200000", "112639.690000", "112641.180000", "112642.670000", "112644.160000", "112645.650000", "112647.140000", "112648.630000", "112650.120000", "112651.610000", "112653.100000", "112654.590000", "112656.080000", "112657.570000", "112659.060000", "112700.550000", "112702.040000", "112703.530000", "112705.020000", "112706.510000", "112708.000000", "112709.490000", "112710.980000", "112712.470000", "112713.960000", "112715.450000", "112716.940000", "112718.430000", "112719.920000", "112721.410000", "112722.900000", "112724.390000", "112725.880000", "112727.370000", "112728.860000", "112730.350000", "112731.840000", "112733.330000", "112734.820000", "112736.310000", "112737.800000", "112739.290000", "112740.780000", "112742.270000", "112743.760000", "112745.250000", "112746.740000", "112748.230000", "112749.720000", "112751.210000", "112752.700000", "112754.190000", "112755.680000", "112757.170000", "112758.660000", "112800.150000", "112801.640000", "112803.130000", "112804.620000", "112806.110000", "112807.600000", "112809.090000", "112810.580000", "112812.070000", "112813.560000", "112815.050000", "112816.540000", "112818.030000", "112819.520000", "112821.010000", "112822.500000", "112823.990000", "112825.480000", "112826.970000", "112828.460000", "112829.950000", "112831.440000", "112832.930000", "112834.420000", "112835.910000", "112837.400000", "112838.890000", "112840.380000", "112841.870000", "112843.360000", "112844.850000", "112846.340000", "112847.830000", "112849.320000", "112850.810000", "112852.300000", "112853.790000", "112855.280000", "112856.770000", "112858.260000", "112859.750000", "112901.240000", "112902.730000", "112904.220000", "112905.710000", "112907.200000", "112908.690000", "112910.180000", "112911.670000", "112913.160000", "112914.650000", "112916.140000", "112917.630000", "112919.120000", "112920.610000", "112922.100000", "112923.590000", "112925.080000", "112926.570000", "112928.060000", "112929.550000", "112931.040000", "112932.530000", "112934.020000", "112935.510000", "112937.000000", "112938.490000", "112939.980000", "112941.470000", "112942.960000", "112944.450000", "112945.940000", "112947.430000", "112948.920000", "112950.410000", "112951.900000", "112953.390000", "112954.880000", "112956.370000", "112957.860000", "112959.350000", "113000.840000", "113002.330000", "113003.820000", "113005.310000", "113006.800000", "113008.290000", "113009.780000", "113011.270000", "113012.760000", "113014.250000", "113015.740000", "113017.230000", "113018.720000", "113020.210000", "113021.700000", "113023.190000", "113024.680000", "113026.170000", "113027.660000", "113029.150000", "113030.640000", "113032.130000", "113033.620000", "113035.110000", "113036.600000", "113038.090000", "113039.580000", "113041.070000", "113042.560000", "113044.050000", "113045.540000", "113047.030000", "113048.520000", "113050.010000", "113051.500000", "113052.990000", "113054.480000", "113055.970000", "113057.460000", "113058.950000", "113100.440000", "113101.930000", "113103.420000", "113104.910000", "113106.400000", "113107.890000", "113109.380000", "113110.870000", "113112.360000", "113113.850000", "113115.340000", "113116.830000", "113118.320000", "113119.810000", "113121.300000", "113122.790000", "113124.280000", "113125.770000", "113127.260000", "113128.750000", "113130.240000", "113131.730000", "113133.220000", "113134.710000", "113136.200000", "113137.690000", "113139.180000", "113140.670000", "113142.160000", "113143.650000", "113145.140000", "113146.630000", "113148.120000", "113149.610000", "113151.100000", "113152.590000", "113154.080000", "113155.570000", "113157.060000", "113158.550000", "113200.040000", "113201.530000", "113203.020000", "113204.510000", "113206.000000", "113207.490000", "113208.980000", "113210.470000", "113211.960000", "113213.450000", "113214.940000", "113216.430000", "113217.920000", "113219.410000", "113220.900000", "113222.390000", "113223.880000", "113225.370000", "113226.860000", "113228.350000", "113229.840000", "113231.330000", "113232.820000", "113234.310000", "113235.800000", "113237.290000", "113238.780000", "113240.270000", "113241.760000", "113243.250000", "113244.740000", "113246.230000", "113247.720000", "113249.210000", "113250.700000", "113252.190000", "113253.680000", "113255.170000", "113256.660000", "113258.150000", "113259.640000", "113301.130000", "113302.620000", "113304.110000", "113305.600000", "113307.090000", "113308.580000", "113310.070000", "113311.560000", "113313.050000", "113314.540000", "113316.030000", "113317.520000", "113319.010000", "113320.500000", "113321.990000", "113323.480000", "113324.970000", "113326.460000", "113327.950000", "113329.440000", "113330.930000", "113332.420000", "113333.910000", "113335.400000", "113336.890000", "113338.380000", "113339.870000", "113341.360000", "113342.850000", "113344.340000", "113345.830000", "113347.320000", "113348.810000", "113350.300000", "113351.790000", "113353.280000", "113354.770000", "113356.260000", "113357.750000", "113359.240000", "113400.730000", "113402.220000", "113403.710000", "113405.200000", "113406.690000", "113408.180000", "113409.670000", "113411.160000", "113412.650000", "113414.140000", "113415.630000", "113417.120000", "113418.610000", "113420.100000", "113421.590000", "113423.080000", "113424.570000", "113426.060000", "113427.550000", "113429.040000", "113430.530000", "113432.020000", "113433.510000", "113435.000000", "113436.490000", "113437.980000", "113439.470000", "113440.960000", "113442.450000", "113443.940000", "113445.430000", "113446.920000", "113448.410000", "113449.900000", "113451.390000", "113452.880000", "113454.370000", "113455.860000", "113457.350000", "113458.840000", "113500.330000", "113501.820000", "113503.310000", "113504.800000", "113506.290000", "113507.780000", "113509.270000", "113510.760000", "113512.250000", "113513.740000", "113515.230000", "113516.720000", "113518.210000", "113519.700000", "113521.190000", "113522.680000", "113524.170000", "113525.660000", "113527.150000", "113528.640000", "113530.130000", "113531.620000", "113533.110000", "113534.600000", "113536.090000", "113537.580000", "113539.070000", "113540.560000", "113542.050000", "113543.540000", "113545.030000", "113546.520000", "113548.010000", "113549.500000", "113550.990000", "113552.480000", "113553.970000", "113555.460000", "113556.950000", "113558.440000", "113559.930000", "113601.420000", "113602.910000", "113604.400000", "113605.890000", "113607.380000", "113608.870000", "113610.360000", "113611.850000", "113613.340000", "113614.830000", "113616.320000", "113617.810000", "113619.300000", "113620.790000", "113622.280000", "113623.770000", "113625.260000", "113626.750000", "113628.240000", "113629.730000", "113631.220000", "113632.710000", "113634.200000", "113635.690000", "113637.180000", "113638.670000", "113640.160000", "113641.650000", "113643.140000", "113644.630000", "113646.120000", "113647.610000", "113649.100000", "113650.590000", "113652.080000", "113653.570000", "113655.060000", "113656.550000", "113658.040000", "113659.530000", "113701.020000", "113702.510000", "113704.000000", "113705.490000", "113706.980000", "113708.470000", "113709.960000", "113711.450000", "113712.940000", "113714.430000", "113715.920000", "113717.410000", "113718.900000", "113720.390000", "113721.880000", "113723.370000", "113724.860000", "113726.350000", "113727.840000", "113729.330000", "113730.820000", "113732.310000", "113733.800000", "113735.290000", "113736.780000", "113738.270000", "113739.760000", "113741.250000", "113742.740000", "113744.230000", "113745.720000", "113747.210000", "113748.700000", "113750.190000", "113751.680000", "113753.170000", "113754.660000", "113756.150000", "113757.640000", "113759.130000"],
      "ContentTime": ["112728.043000", "112728.047000", "112728.049000", "112728.052000", "112728.055000", "112728.058000", "112728.061000", "112728.064000", "112728.067000", "112728.069000", "112728.072000", "112728.075000", "112728.078000", "112728.081000", "112728.084000", "112728.087000", "112728.089000", "112728.092000", "112728.095000", "112728.098000", "112728.101000", "112728.103000", "112728.106000", "112728.109000", "112728.112000", "112728.115000", "112728.118000", "112728.120000", "112728.123000", "112728.126000", "112728.129000", "112728.131000", "112728.134000", "112728.137000", "112728.140000", "112748.011000", "112748.014000", "112748.017000", "112748.020000", "112748.022000", "112748.026000", "112748.029000", "112748.032000", "112748.035000", "112748.038000", "112748.040000", "112748.043000", "112748.046000", "112748.049000", "112748.052000", "112748.055000", "112748.058000", "112748.067000", "112748.070000", "112748.072000", "112808.011000", "112808.014000", "112808.016000", "112808.019000", "112808.038000", "112808.041000", "112808.044000", "112808.047000", "112808.050000", "112808.053000", "112808.055000", "112808.058000", "112808.061000", "112808.064000", "112808.066000", "112808.069000", "112808.072000", "112808.075000", "112808.078000", "112808.080000", "112828.011000", "112828.014000", "112828.017000", "112828.019000", "112828.022000", "112828.025000", "112828.028000", "112828.031000", "112828.033000", "112828.036000", "112828.039000", "112828.042000", "112828.045000", "112828.047000", "112828.050000", "112828.053000", "112828.056000", "112828.059000", "112828.062000", "112828.064000", "112908.012000", "112908.015000", "112908.018000", "112908.020000", "112908.023000", "112908.026000", "112908.029000", "112908.032000", "112908.035000", "112908.037000", "112908.040000", "112908.043000", "112908.046000", "112908.049000", "112908.052000", "112908.054000", "112908.057000", "112908.060000", "112908.063000", "112908.066000", "112908.068000", "112908.071000", "112908.074000", "112908.077000", "112908.082000", "112908.084000", "112908.087000", "112908.090000", "112908.093000", "112908.096000", "112948.011000", "112948.014000", "112948.021000", "112948.023000", "112948.026000", "112948.029000", "112948.032000", "112948.035000", "112948.038000", "112948.041000", "112948.044000", "112948.046000", "112948.049000", "112948.052000", "112948.055000", "112948.058000", "112948.061000", "112948.076000", "112948.080000", "112948.082000", "112948.085000", "112948.088000", "112948.091000", "112948.094000", "112948.096000", "112948.099000", "112948.102000", "113028.011000", "113028.014000", "113028.017000", "113028.020000", "113028.023000", "113028.038000", "113028.041000", "113028.044000", "113028.047000", "113028.050000", "113028.053000", "113028.055000", "113028.058000", "113028.061000", "113028.064000", "113028.067000", "113028.069000", "113028.072000", "113028.075000", "113028.078000", "113028.081000", "113028.084000", "113028.086000", "113028.089000", "113028.092000", "113028.095000", "113108.011000", "113108.014000", "113108.017000", "113108.020000", "113108.023000", "113108.025000", "113108.028000", "113108.031000", "113108.034000", "113108.037000", "113108.040000", "113108.042000", "113108.045000", "113108.048000", "113108.051000", "113108.054000", "113108.057000", "113108.059000", "113108.062000", "113108.065000", "113108.068000", "113108.071000", "113108.074000", "113108.076000", "113108.079000", "113108.082000", "113108.085000", "113148.012000", "113148.015000", "113148.018000", "113148.021000", "113148.024000", "113148.026000", "113148.029000", "113148.032000", "113148.035000", "113148.038000", "113148.040000", "113148.043000", "113148.046000", "113148.049000", "113148.052000", "113148.055000", "113148.057000", "113148.060000", "113148.063000", "113148.066000", "113148.069000", "113148.072000", "113148.074000", "113148.077000", "113148.080000", "113148.083000", "113148.086000", "113228.011000", "113228.014000", "113228.017000", "113228.020000", "113228.022000", "113228.025000", "113228.028000", "113228.031000", "113228.034000", "113228.044000", "113228.047000", "113228.050000", "113228.053000", "113228.056000", "113228.058000", "113228.061000", "113228.064000", "113228.067000", "113228.070000", "113228.073000", "113228.075000", "113228.078000", "113228.081000", "113228.084000", "113228.087000", "113228.089000", "113228.092000", "113308.011000", "113308.014000", "113308.017000", "113308.020000", "113308.022000", "113308.025000", "113308.028000", "113308.031000", "113308.034000", "113308.037000", "113308.040000", "113308.042000", "113308.054000", "113308.057000", "113308.060000", "113308.063000", "113308.066000", "113308.069000", "113308.072000", "113308.075000", "113308.078000", "113308.080000", "113308.083000", "113308.086000", "113308.089000", "113308.092000", "113308.095000", "113348.012000", "113348.015000", "113348.018000", "113348.021000", "113348.024000", "113348.027000", "113348.029000", "113348.032000", "113348.035000", "113348.038000", "113348.041000", "113348.044000", "113348.047000", "113348.049000", "113348.052000", "113348.055000", "113348.058000", "113348.061000", "113348.064000", "113348.066000", "113348.069000", "113348.072000", "113348.075000", "113348.078000", "113348.081000", "113348.083000", "113348.086000", "113428.011000", "113428.014000", "113428.017000", "113428.019000", "113428.022000", "113428.025000", "113428.028000", "113428.031000", "113428.034000", "113428.036000", "113428.039000", "113428.042000", "113428.045000", "113428.065000", "113428.068000", "113428.071000", "113428.073000", "113428.076000", "113428.079000", "113428.082000", "113428.085000", "113428.087000", "113428.090000", "113428.093000", "113428.096000", "113428.099000", "113428.102000", "113448.011000", "113448.014000", "113448.017000", "113448.020000", "113448.022000", "113448.025000", "113448.028000", "113448.031000", "113448.034000", "113448.037000", "113448.039000", "113448.042000", "113448.045000", "113528.011000", "113528.014000", "113528.017000", "113528.020000", "113528.022000", "113528.025000", "113528.028000", "113528.031000", "113528.034000", "113528.037000", "113528.039000", "113528.042000", "113528.045000", "113528.048000", "113528.051000", "113528.054000", "113528.056000", "113528.059000", "113528.062000", "113528.065000", "113528.068000", "113528.071000", "113528.073000", "113528.076000", "113528.079000", "113528.082000", "113528.085000", "113608.012000", "113608.015000", "113608.018000", "113608.021000", "113608.023000", "113608.026000", "113608.029000", "113608.032000", "113608.035000", "113608.037000", "113608.040000", "113608.043000", "113608.046000", "113608.049000", "113608.052000", "113608.054000", "113608.057000", "113608.060000", "113608.063000", "113608.066000", "113608.069000", "113608.071000", "113608.074000", "113608.077000", "113608.080000", "113608.083000", "113608.085000", "113648.011000", "113648.014000", "113648.017000", "113648.020000", "113648.023000", "113648.026000", "113648.029000", "113648.032000", "113648.034000", "113648.037000", "113648.040000", "113648.043000", "113648.046000", "113648.049000", "113648.051000", "113648.054000", "113648.057000", "113648.060000", "113648.063000", "113648.066000", "113648.068000", "113648.071000", "113648.074000", "113648.077000", "113648.080000", "113648.083000", "113648.085000", "113728.011000", "113728.014000", "113728.017000", "113728.020000", "113728.022000", "113728.025000", "113728.028000", "113728.031000", "113728.034000", "113728.037000", "113728.040000", "113728.042000", "113728.045000", "113728.048000", "113728.051000", "113728.054000", "113728.056000", "113728.059000", "113728.062000", "113728.065000", "113728.069000", "113728.072000", "113728.075000", "113728.077000", "113728.080000", "113728.083000", "113801.045000", "113801.049000", "113801.051000", "113801.054000", "113801.057000", "113801.061000", "113801.063000", "113801.066000", "113801.069000", "113801.072000", "113801.075000", "113801.078000", "113801.081000", "113801.084000", "113801.088000", "113801.091000", "113801.094000", "113801.097000", "113801.100000", "113801.103000", "113801.105000", "113801.108000", "113801.111000"],
