{
  "AcquisitionMatrixPE": 104,
  "AcquisitionNumber": 1,
  "AcquisitionTime": "16:32:50.277500",
  "BandwidthPerPixelPhaseEncode": 17.17,
  "BaseResolution": 104,
  "BodyPartExamined": "BRAIN",
  "CoilString": "HC1-7;NC1_2",
  "ConsistencyInfo": "N4_VE11C_LATEST_20160120",
  "ConversionSoftware": "dcm2niix",
  "ConversionSoftwareVersion": "v1.0.20190720  (JP2:OpenJPEG) GCC7.3.0",
  "DerivedVendorReportedEchoSpacing": 0.000560011,
  "DeviceSerialNumber": "167006",
  "DwellTime": 2.1e-06,
  "EchoTime": 0.037,
  "EchoTrainLength": 104,
  "EffectiveEchoSpacing": 0.000560011,
  "FlipAngle": 52,
  "ImageComments": "Unaliased_MB4_PE3_LB",
  "ImageOrientationPatientDICOM": [0.999985, -0.000961446, 0.00530756, 0.00366514, 0.843048, -0.537826],
  "ImageType": [
    "ORIGINAL",
    "PRIMARY",
    "M",
    "MB",
    "ND",
    "MOSAIC"
],
  "ImagingFrequency": 123.259,
  "InPlanePhaseEncodingDirectionDICOM": "COL",
  "InstitutionAddress": "Chemin_Queen-Mary_4565_Montreal_District_CA_H3W_1W5",
  "InstitutionName": "IUGM",
  "InstitutionalDepartmentName": "Department",
  "MRAcquisitionType": "2D",
  "MagneticFieldStrength": 3,
  "Manufacturer": "Siemens",
  "ManufacturersModelName": "Prisma_fit",
  "Modality": "MR",
  "MultibandAccelerationFactor": 4,
  "PartialFourier": 1,
  "PatientPosition": "HFS",
  "PercentPhaseFOV": 100,
  "PhaseEncodingDirection": "j",
  "PhaseEncodingSteps": 104,
  "PhaseResolution": 1,
  "PixelBandwidth": 2290,
  "ProcedureStepDescription": "video_friends",
  "ProtocolName": "func_task-s01e11a",
  "PulseSequenceDetails": "%CustomerSeq%_cmrr_mbep2d_bold",
  "ReceiveCoilActiveElements": "HC1-7;NC1,2",
  "ReceiveCoilName": "HeadNeck_64",
  "ReconMatrixPE": 104,
  "RepetitionTime": 1.49,
  "SAR": 0.0371386,
  "ScanOptions": "FS",
  "ScanningSequence": "EP",
  "SequenceName": "epfid2d1_104",
  "SequenceVariant": "SK_SS",
  "SeriesDescription": "func_task-s01e11a",
  "SeriesNumber": 16,
  "ShimSetting": [623, -7177, -8887, 395, -8, -168, 8, -7],
  "SliceThickness": 2,
  "SliceTiming": [0, 0.785, 0.0975, 0.8825, 0.1975, 0.98, 0.295, 1.0775, 0.3925, 1.1775, 0.49, 1.275, 0.5875, 1.3725, 0.6875, 0, 0.785, 0.0975, 0.8825, 0.1975, 0.98, 0.295, 1.0775, 0.3925, 1.1775, 0.49, 1.275, 0.5875, 1.3725, 0.6875, 0, 0.785, 0.0975, 0.8825, 0.1975, 0.98, 0.295, 1.0775, 0.3925, 1.1775, 0.49, 1.275, 0.5875, 1.3725, 0.6875, 0, 0.785, 0.0975, 0.8825, 0.1975, 0.98, 0.295, 1.0775, 0.3925, 1.1775, 0.49, 1.275, 0.5875, 1.3725, 0.6875],
  "SoftwareVersions": "syngo_MR_E11",
  "SpacingBetweenSlices": 2,
  "StationName": "MRC35049",
  "TaskName": "friends",
  "TotalReadoutTime": 0.0576811,
  "TxRefAmp": 251.534,
  "WipMemBlock": "f9d6c88c-62e6-4e93-a3fe-886061a41caf||Sequence: R016 ve11c/master r/e634e98; Dec 19 2017 11:00:25 by eja",
  "dcmmeta_affine": [
    [-1.9999709129333496, 0.007330283988267183, 0.007914865389466286, 102.6148910522461],
    [0.0019228915916755795, 1.6860953569412231, -1.0756759643554688, -56.886131286621094],
    [0.010615114122629166, 1.0756527185440063, 1.6860778331756592, -108.3019790649414],
    [0.0, 0.0, 0.0, 1.0]
],
  "dcmmeta_reorient_transform": [
    [0.0, -1.0, 0.0, 103.0],
    [1.0, 0.0, 0.0, 0.0],
    [0.0, 0.0, 1.0, 0.0],
    [0.0, 0.0, 0.0, 1.0]
],
  "dcmmeta_shape": [104, 104, 60, 477],
  "dcmmeta_slice_dim": 2,
  "dcmmeta_version": 0.6,
  "global": {
    "const": {
      "AcquisitionMatrix": [104, 0, 0, 104],
      "AngioFlag": "N",
      "BitsAllocated": 16,
      "BitsStored": 16,
      "BodyPartExamined": "BRAIN",
      "Columns": 832,
      "EchoNumbers": 1,
      "EchoTime": 37.0,
      "EchoTrainLength": 104,
      "FlipAngle": 52.0,
      "HighBit": 15,
      "ImageOrientationPatient": [0.99998545262526, -0.0009614458053, 0.00530755686022, 0.00366514188682, 0.84304767824737, -0.5378263464508],
      "ImagePositionPatient": [-834.02754307575, -729.82046684261, 390.16392456537],
      "ImageType": [
        "ORIGINAL",
        "PRIMARY",
        "M",
        "MB",
        "ND",
        "MOSAIC"
],
      "ImagedNucleus": "1H",
      "ImagingFrequency": 123.259177,
      "InPlanePhaseEncodingDirection": "COL",
      "MRAcquisitionType": "2D",
      "MagneticFieldStrength": 3.0,
      "Manufacturer": "SIEMENS",
      "ManufacturerModelName": "Prisma_fit",
      "Modality": "MR",
      "NumberOfAverages": 1.0,
      "NumberOfPhaseEncodingSteps": 104,
      "PercentPhaseFieldOfView": 100.0,
      "PercentSampling": 100.0,
      "PerformedProcedureStepStartTime": "153514.919000",
      "PhotometricInterpretation": "MONOCHROME2",
      "PixelBandwidth": 2290.0,
      "PixelRepresentation": 0,
      "PixelSpacing": [2.0, 2.0],
      "ProtocolName": "func_task-s01e11a",
      "RepetitionTime": 1490.0,
      "Rows": 832,
      "SAR": 0.03713855155605,
      "SamplesPerPixel": 1,
      "ScanOptions": "FS",
      "ScanningSequence": "EP",
      "SequenceName": "epfid2d1_104",
      "SequenceVariant": [
        "SK",
        "SS"
],
      "SeriesDescription": "func_task-s01e11a",
      "SeriesNumber": 16,
      "SeriesTime": "163419.524000",
      "SliceLocation": -60.301173936194,
      "SliceThickness": 2.0,
      "SmallestImagePixelValue": 0,
      "SoftwareVersions": "syngo MR E11",
      "SpacingBetweenSlices": 1.9999999851967,
      "SpecificCharacterSet": "ISO_IR 100",
      "StudyID": "1",
      "StudyTime": "153514.845000",
      "TransmitCoilName": "Body",
      "VariableFlipAngleFlag": "N",
      "WindowCenterWidthExplanation": "Algo1",
      "dBdt": 0.0},
    "slices": {}
  },
  "time": {
    "samples": {
      "AcquisitionNumber": [1, 2, 3, 4, 5, 6, 7, 8, 9, 10, 11, 12, 13, 14, 15, 16, 17, 18, 19, 20, 21, 22, 23, 24, 25, 26, 27, 28, 29, 30, 31, 32, 33, 34, 35, 36, 37, 38, 39, 40, 41, 42, 43, 44, 45, 46, 47, 48, 49, 50, 51, 52, 53, 54, 55, 56, 57, 58, 59, 60, 61, 62, 63, 64, 65, 66, 67, 68, 69, 70, 71, 72, 73, 74, 75, 76, 77, 78, 79, 80, 81, 82, 83, 84, 85, 86, 87, 88, 89, 90, 91, 92, 93, 94, 95, 96, 97, 98, 99, 100, 101, 102, 103, 104, 105, 106, 107, 108, 109, 110, 111, 112, 113, 114, 115, 116, 117, 118, 119, 120, 121, 122, 123, 124, 125, 126, 127, 128, 129, 130, 131, 132, 133, 134, 135, 136, 137, 138, 139, 140, 141, 142, 143, 144, 145, 146, 147, 148, 149, 150, 151, 152, 153, 154, 155, 156, 157, 158, 159, 160, 161, 162, 163, 164, 165, 166, 167, 168, 169, 170, 171, 172, 173, 174, 175, 176, 177, 178, 179, 180, 181, 182, 183, 184, 185, 186, 187, 188, 189, 190, 191, 192, 193, 194, 195, 196, 197, 198, 199, 200, 201, 202, 203, 204, 205, 206, 207, 208, 209, 210, 211, 212, 213, 214, 215, 216, 217, 218, 219, 220, 221, 222, 223, 224, 225, 226, 227, 228, 229, 230, 231, 232, 233, 234, 235, 236, 237, 238, 239, 240, 241, 242, 243, 244, 245, 246, 247, 248, 249, 250, 251, 252, 253, 254, 255, 256, 257, 258, 259, 260, 261, 262, 263, 264, 265, 266, 267, 268, 269, 270, 271, 272, 273, 274, 275, 276, 277, 278, 279, 280, 281, 282, 283, 284, 285, 286, 287, 288, 289, 290, 291, 292, 293, 294, 295, 296, 297, 298, 299, 300, 301, 302, 303, 304, 305, 306, 307, 308, 309, 310, 311, 312, 313, 314, 315, 316, 317, 318, 319, 320, 321, 322, 323, 324, 325, 326, 327, 328, 329, 330, 331, 332, 333, 334, 335, 336, 337, 338, 339, 340, 341, 342, 343, 344, 345, 346, 347, 348, 349, 350, 351, 352, 353, 354, 355, 356, 357, 358, 359, 360, 361, 362, 363, 364, 365, 366, 367, 368, 369, 370, 371, 372, 373, 374, 375, 376, 377, 378, 379, 380, 381, 382, 383, 384, 385, 386, 387, 388, 389, 390, 391, 392, 393, 394, 395, 396, 397, 398, 399, 400, 401, 402, 403, 404, 405, 406, 407, 408, 409, 410, 411, 412, 413, 414, 415, 416, 417, 418, 419, 420, 421, 422, 423, 424, 425, 426, 427, 428, 429, 430, 431, 432, 433, 434, 435, 436, 437, 438, 439, 440, 441, 442, 443, 444, 445, 446, 447, 448, 449, 450, 451, 452, 453, 454, 455, 456, 457, 458, 459, 460, 461, 462, 463, 464, 465, 466, 467, 468, 469, 470, 471, 472, 473, 474, 475, 476, 477],
      "AcquisitionTime": ["163250.277500", "163251.767500", "163253.257500", "163254.747500", "163256.237500", "163257.727500", "163259.217500", "163300.707500", "163302.197500", "163303.687500", "163305.177500", "163306.667500", "163308.157500", "163309.647500", "163311.137500", "163312.627500", "163314.117500", "163315.607500", "163317.097500", "163318.587500", "163320.077500", "163321.567500", "163323.057500", "163324.547500", "163326.037500", "163327.527500", "163329.017500", "163330.507500", "163331.997500", "163333.487500", "163334.977500", "163336.467500", "163337.957500", "163339.447500", "163340.937500", "163342.427500", "163343.917500", "163345.407500", "163346.897500", "163348.387500", "163349.877500", "163351.367500", "163352.857500", "163354.347500", "163355.837500", "163357.327500", "163358.817500", "163400.307500", "163401.797500", "163403.287500", "163404.777500", "163406.267500", "163407.757500", "163409.247500", "163410.737500", "163412.227500", "163413.717500", "163415.207500", "163416.697500", "163418.187500", "163419.677500", "163421.167500", "163422.657500", "163424.147500", "163425.637500", "163427.127500", "163428.617500", "163430.107500", "163431.597500", "163433.087500", "163434.577500", "163436.067500", "163437.557500", "163439.047500", "163440.537500", "163442.027500", "163443.517500", "163445.007500", "163446.497500", "163447.987500", "163449.477500", "163450.967500", "163452.457500", "163453.947500", "163455.437500", "163456.927500", "163458.417500", "163459.907500", "163501.397500", "163502.887500", "163504.377500", "163505.867500", "163507.357500", "163508.847500", "163510.337500", "163511.827500", "163513.317500", "163514.807500", "163516.297500", "163517.787500", "163519.277500", "163520.767500", "163522.257500", "163523.747500", "163525.237500", "163526.727500", "163528.217500", "163529.707500", "163531.197500", "163532.687500", "163534.177500", "163535.667500", "163537.157500", "163538.647500", "163540.137500", "163541.627500", "163543.117500", "163544.607500", "163546.097500", "163547.587500", "163549.077500", "163550.567500", "163552.057500", "163553.547500", "163555.037500", "163556.527500", "163558.017500", "163559.507500", "163600.997500", "163602.487500", "163603.977500", "163605.467500", "163606.957500", "163608.447500", "163609.937500", "163611.427500", "163612.917500", "163614.407500", "163615.897500", "163617.387500", "163618.877500", "163620.367500", "163621.857500", "163623.347500", "163624.837500", "163626.327500", "163627.817500", "163629.307500", "163630.797500", "163632.287500", "163633.777500", "163635.267500", "163636.757500", "163638.247500", "163639.737500", "163641.227500", "163642.717500", "163644.207500", "163645.697500", "163647.187500", "163648.677500", "163650.167500", "163651.657500", "163653.147500", "163654.637500", "163656.127500", "163657.617500", "163659.107500", "163700.597500", "163702.087500", "163703.577500", "163705.067500", "163706.557500", "163708.047500", "163709.537500", "163711.027500", "163712.517500", "163714.007500", "163715.497500", "163716.987500", "163718.477500", "163719.967500", "163721.457500", "163722.947500", "163724.437500", "163725.927500", "163727.417500", "163728.907500", "163730.397500", "163731.887500", "163733.377500", "163734.867500", "163736.357500", "163737.847500", "163739.337500", "163740.827500", "163742.317500", "163743.807500", "163745.297500", "163746.787500", "163748.277500", "163749.767500", "163751.257500", "163752.747500", "163754.237500", "163755.727500", "163757.217500", "163758.707500", "163800.197500", "163801.687500", "163803.177500", "163804.667500", "163806.157500", "163807.647500", "163809.137500", "163810.627500", "163812.117500", "163813.607500", "163815.097500", "163816.587500", "163818.077500", "163819.567500", "163821.057500", "163822.547500", "163824.037500", "163825.527500", "163827.017500", "163828.507500", "163829.997500", "163831.487500", "163832.977500", "163834.467500", "163835.957500", "163837.447500", "163838.937500", "163840.427500", "163841.917500", "163843.407500", "163844.897500", "163846.387500", "163847.877500", "163849.367500", "163850.857500", "163852.347500", "163853.837500", "163855.327500", "163856.817500", "163858.307500", "163859.797500", "163901.287500", "163902.777500", "163904.267500", "163905.757500", "163907.247500", "163908.737500", "163910.227500", "163911.717500", "163913.207500", "163914.697500", "163916.187500", "163917.677500", "163919.167500", "163920.657500", "163922.147500", "163923.637500", "163925.127500", "163926.617500", "163928.107500", "163929.597500", "163931.087500", "163932.577500", "163934.067500", "163935.557500", "163937.047500", "163938.537500", "163940.027500", "163941.517500", "163943.007500", "163944.497500", "163945.987500", "163947.477500", "163948.967500", "163950.457500", "163951.947500", "163953.437500", "163954.927500", "163956.417500", "163957.907500", "163959.397500", "164000.887500", "164002.377500", "164003.867500", "164005.357500", "164006.847500", "164008.337500", "164009.827500", "164011.317500", "164012.807500", "164014.297500", "164015.787500", "164017.277500", "164018.767500", "164020.257500", "164021.747500", "164023.237500", "164024.727500", "164026.217500", "164027.707500", "164029.197500", "164030.687500", "164032.177500", "164033.667500", "164035.157500", "164036.647500", "164038.137500", "164039.627500", "164041.117500", "164042.607500", "164044.097500", "164045.587500", "164047.077500", "164048.567500", "164050.057500", "164051.547500", "164053.037500", "164054.527500", "164056.017500", "164057.507500", "164058.997500", "164100.487500", "164101.977500", "164103.467500", "164104.957500", "164106.447500", "164107.937500", "164109.427500", "164110.917500", "164112.407500", "164113.897500", "164115.387500", "164116.877500", "164118.367500", "164119.857500", "164121.347500", "164122.837500", "164124.327500", "164125.817500", "164127.307500", "164128.797500", "164130.287500", "164131.777500", "164133.267500", "164134.757500", "164136.247500", "164137.737500", "164139.227500", "164140.717500", "164142.207500", "164143.697500", "164145.187500", "164146.677500", "164148.167500", "164149.657500", "164151.147500", "164152.637500", "164154.127500", "164155.617500", "164157.107500", "164158.597500", "164200.087500", "164201.577500", "164203.067500", "164204.557500", "164206.047500", "164207.537500", "164209.027500", "164210.517500", "164212.007500", "164213.497500", "164214.987500", "164216.477500", "164217.967500", "164219.457500", "164220.947500", "164222.437500", "164223.927500", "164225.417500", "164226.907500", "164228.397500", "164229.887500", "164231.377500", "164232.867500", "164234.357500", "164235.847500", "164237.337500", "164238.827500", "164240.317500", "164241.807500", "164243.297500", "164244.787500", "164246.277500", "164247.767500", "164249.257500", "164250.747500", "164252.237500", "164253.727500", "164255.217500", "164256.707500", "164258.197500", "164259.687500", "164301.177500", "164302.667500", "164304.157500", "164305.647500", "164307.137500", "164308.627500", "164310.117500", "164311.607500", "164313.097500", "164314.587500", "164316.077500", "164317.567500", "164319.057500", "164320.547500", "164322.037500", "164323.527500", "164325.017500", "164326.507500", "164327.997500", "164329.487500", "164330.977500", "164332.467500", "164333.957500", "164335.447500", "164336.937500", "164338.427500", "164339.917500", "164341.407500", "164342.897500", "164344.387500", "164345.877500", "164347.367500", "164348.857500", "164350.347500", "164351.837500", "164353.327500", "164354.817500", "164356.307500", "164357.797500", "164359.287500", "164400.777500", "164402.267500", "164403.757500", "164405.247500", "164406.737500", "164408.227500", "164409.717500", "164411.207500", "164412.697500", "164414.187500", "164415.677500", "164417.167500", "164418.657500", "164420.147500", "164421.637500", "164423.127500", "164424.617500", "164426.107500", "164427.597500", "164429.087500", "164430.577500", "164432.067500", "164433.557500", "164435.047500", "164436.537500", "164438.027500", "164439.517500"],
      "ContentTime": ["163419.527000", "163419.530000", "163419.533000", "163419.536000", "163419.539000", "163419.541000", "163419.544000", "163419.547000", "163419.550000", "163419.553000", "163419.556000", "163419.559000", "163419.562000", "163419.565000", "163419.567000", "163419.570000", "163419.573000", "163419.576000", "163419.579000", "163419.583000", "163419.586000", "163419.589000", "163419.591000", "163419.594000", "163419.597000", "163419.612000", "163419.615000", "163419.618000", "163419.620000", "163419.623000", "163419.626000", "163419.629000", "163419.632000", "163419.635000", "163419.637000", "163439.493000", "163439.496000", "163439.499000", "163439.502000", "163439.505000", "163439.507000", "163439.510000", "163439.513000", "163439.516000", "163439.519000", "163439.522000", "163439.525000", "163439.527000", "163439.530000", "163439.533000", "163439.536000", "163439.539000", "163439.542000", "163439.544000", "163439.547000", "163459.493000", "163459.496000", "163459.499000", "163459.502000", "163459.504000", "163459.507000", "163459.510000", "163459.513000", "163459.516000", "163459.519000", "163459.522000", "163459.524000", "163459.527000", "163459.530000", "163459.533000", "163459.536000", "163459.539000", "163459.542000", "163459.544000", "163459.547000", "163459.550000", "163519.493000", "163519.496000", "163519.499000", "163519.502000", "163519.505000", "163519.507000", "163519.510000", "163519.513000", "163519.516000", "163519.519000", "163519.522000", "163519.524000", "163519.527000", "163519.530000", "163519.533000", "163519.536000", "163519.539000", "163519.542000", "163519.545000", "163519.547000", "163559.492000", "163559.495000", "163559.498000", "163559.500000", "163559.503000", "163559.506000", "163559.509000", "163559.512000", "163559.515000", "163559.518000", "163559.521000", "163559.524000", "163559.527000", "163559.529000", "163559.532000", "163559.535000", "163559.538000", "163559.541000", "163559.544000", "163559.547000", "163559.550000", "163559.552000", "163559.555000", "163559.558000", "163559.561000", "163559.564000", "163559.567000", "163559.570000", "163559.573000", "163559.575000", "163639.493000", "163639.496000", "163639.499000", "163639.502000", "163639.505000", "163639.508000", "163639.510000", "163639.513000", "163639.516000", "163639.519000", "163639.522000", "163639.525000", "163639.528000", "163639.531000", "163639.533000", "163639.536000", "163639.539000", "163639.542000", "163639.545000", "163639.548000", "163639.551000", "163639.554000", "163639.556000", "163639.559000", "163639.562000", "163639.565000", "163639.568000", "163719.493000", "163719.496000", "163719.499000", "163719.502000", "163719.504000", "163719.507000", "163719.510000", "163719.513000", "163719.516000", "163719.522000", "163719.525000", "163719.528000", "163719.530000", "163719.534000", "163719.536000", "163719.539000", "163719.542000", "163719.545000", "163719.548000", "163719.551000", "163719.553000", "163719.556000", "163719.559000", "163719.562000", "163719.565000", "163719.568000", "163719.571000", "163759.493000", "163759.496000", "163759.499000", "163759.502000", "163759.505000", "163759.507000", "163759.510000", "163759.513000", "163759.516000", "163759.519000", "163759.522000", "163759.525000", "163759.528000", "163759.530000", "163759.533000", "163759.536000", "163759.539000", "163759.542000", "163759.545000", "163759.547000", "163759.550000", "163759.553000", "163759.556000", "163759.559000", "163759.562000", "163759.564000", "163759.567000", "163839.492000", "163839.495000", "163839.498000", "163839.501000", "163839.504000", "163839.506000", "163839.509000", "163839.512000", "163839.515000", "163839.518000", "163839.521000", "163839.524000", "163839.527000", "163839.536000", "163839.539000", "163839.542000", "163839.545000", "163839.548000", "163839.550000", "163839.553000", "163839.569000", "163839.572000", "163839.575000", "163839.583000", "163839.586000", "163839.589000", "163839.591000", "163919.493000", "163919.496000", "163919.499000", "163919.502000", "163919.505000", "163919.508000", "163919.511000", "163919.514000", "163919.517000", "163919.521000", "163919.524000", "163919.537000", "163919.540000", "163919.542000", "163919.545000", "163919.548000", "163919.551000", "163919.554000", "163919.557000", "163919.560000", "163919.563000", "163919.566000", "163919.569000", "163919.573000", "163919.576000", "163919.579000", "163959.513000", "163959.516000", "163959.519000", "163959.522000", "163959.525000", "163959.527000", "163959.531000", "163959.533000", "163959.536000", "163959.539000", "163959.542000", "163959.545000", "163959.548000", "163959.550000", "163959.553000", "163959.556000", "163959.559000", "163959.562000", "163959.565000", "163959.567000", "163959.570000", "163959.573000", "163959.576000", "163959.579000", "163959.582000", "163959.585000", "163959.588000", "164039.492000", "164039.495000", "164039.498000", "164039.501000", "164039.504000", "164039.506000", "164039.509000", "164039.512000", "164039.515000", "164039.518000", "164039.521000", "164039.524000", "164039.527000", "164039.530000", "164039.532000", "164039.535000", "164039.538000", "164039.541000", "164039.544000", "164039.547000", "164039.550000", "164039.553000", "164039.556000", "164039.558000", "164039.561000", "164039.564000", "164039.567000", "164119.493000", "164119.496000", "164119.499000", "164119.502000", "164119.505000", "164119.507000", "164119.510000", "164119.523000", "164119.526000", "164119.528000", "164119.532000", "164119.534000", "164119.537000", "164119.540000", "164119.543000", "164119.546000", "164119.549000", "164119.552000", "164119.555000", "164119.558000", "164119.560000", "164119.563000", "164119.566000", "164119.569000", "164119.572000", "164119.575000", "164119.578000", "164139.493000", "164139.496000", "164139.499000", "164139.502000", "164139.505000", "164139.508000", "164139.510000", "164139.513000", "164139.516000", "164139.519000", "164139.522000", "164139.525000", "164139.528000", "164219.493000", "164219.496000", "164219.499000", "164219.502000", "164219.505000", "164219.507000", "164219.510000", "164219.513000", "164219.516000", "164219.519000", "164219.522000", "164219.525000", "164219.528000", "164219.530000", "164219.533000", "164219.536000", "164219.539000", "164219.542000", "164219.545000", "164219.548000", "164219.551000", "164219.553000", "164219.556000", "164219.559000", "164219.562000", "164219.565000", "164219.568000", "164259.492000", "164259.495000", "164259.498000", "164259.501000", "164259.503000", "164259.506000", "164259.509000", "164259.512000", "164259.515000", "164259.518000", "164259.521000", "164259.524000", "164259.527000", "164259.529000", "164259.532000", "164259.535000", "164259.538000", "164259.541000", "164259.544000", "164259.547000", "164259.550000", "164259.573000", "164259.576000", "164259.578000", "164259.581000", "164259.584000", "164259.587000", "164339.493000", "164339.496000", "164339.499000", "164339.502000", "164339.504000", "164339.507000", "164339.510000", "164339.513000", "164339.516000", "164339.519000", "164339.522000", "164339.525000", "164339.528000", "164339.531000", "164339.533000", "164339.536000", "164339.539000", "164339.542000", "164339.545000", "164339.548000", "164339.551000", "164339.554000", "164339.556000", "164339.559000", "164339.562000", "164339.565000", "164339.568000", "164419.493000", "164419.496000", "164419.499000", "164419.502000", "164419.504000", "164419.507000", "164419.510000", "164419.513000", "164419.516000", "164419.519000", "164419.522000", "164419.525000", "164419.528000", "164419.531000", "164419.534000", "164419.536000", "164419.539000", "164419.542000", "164419.545000", "164419.548000", "164419.551000", "164419.554000", "164419.557000", "164419.560000", "164419.562000", "164419.565000", "164419.568000", "164441.604000", "164441.607000", "164441.610000", "164441.613000", "164441.616000", "164441.618000", "164441.621000", "164441.624000", "164441.627000", "164441.636000", "164441.639000", "164441.642000", "164441.645000", "164441.648000", "164441.651000"],
