{
  "AcquisitionMatrixPE": 104,
  "AcquisitionNumber": 1,
  "AcquisitionTime": "16:45:11.605000",
  "BandwidthPerPixelPhaseEncode": 17.17,
  "BaseResolution": 104,
  "BodyPartExamined": "BRAIN",
  "CoilString": "HC1-7;NC1_2",
  "ConsistencyInfo": "N4_VE11C_LATEST_20160120",
  "ConversionSoftware": "dcm2niix",
  "ConversionSoftwareVersion": "v1.0.20190720  (JP2:OpenJPEG) GCC7.3.0",
  "DerivedVendorReportedEchoSpacing": 0.000560011,
  "DeviceSerialNumber": "167006",
  "DwellTime": 2.1e-06,
  "EchoTime": 0.037,
  "EchoTrainLength": 104,
  "EffectiveEchoSpacing": 0.000560011,
  "FlipAngle": 52,
  "ImageComments": "Unaliased_MB4_PE3_LB",
  "ImageOrientationPatientDICOM": [0.999985, -0.000961446, 0.00530756, 0.00366514, 0.843048, -0.537826],
  "ImageType": [
    "ORIGINAL",
    "PRIMARY",
    "M",
    "MB",
    "ND",
    "MOSAIC"
],
  "ImagingFrequency": 123.259,
  "InPlanePhaseEncodingDirectionDICOM": "COL",
  "InstitutionAddress": "Chemin_Queen-Mary_4565_Montreal_District_CA_H3W_1W5",
  "InstitutionName": "IUGM",
  "InstitutionalDepartmentName": "Department",
  "MRAcquisitionType": "2D",
  "MagneticFieldStrength": 3,
  "Manufacturer": "Siemens",
  "ManufacturersModelName": "Prisma_fit",
  "Modality": "MR",
  "MultibandAccelerationFactor": 4,
  "PartialFourier": 1,
  "PatientPosition": "HFS",
  "PercentPhaseFOV": 100,
  "PhaseEncodingDirection": "j",
  "PhaseEncodingSteps": 104,
  "PhaseResolution": 1,
  "PixelBandwidth": 2290,
  "ProcedureStepDescription": "video_friends",
  "ProtocolName": "func_task-s01e11b",
  "PulseSequenceDetails": "%CustomerSeq%_cmrr_mbep2d_bold",
  "ReceiveCoilActiveElements": "HC1-7;NC1,2",
  "ReceiveCoilName": "HeadNeck_64",
  "ReconMatrixPE": 104,
  "RepetitionTime": 1.49,
  "SAR": 0.0371386,
  "ScanOptions": "FS",
  "ScanningSequence": "EP",
  "SequenceName": "epfid2d1_104",
  "SequenceVariant": "SK_SS",
  "SeriesDescription": "func_task-s01e11b",
  "SeriesNumber": 18,
  "ShimSetting": [623, -7177, -8887, 395, -8, -168, 8, -7],
  "SliceThickness": 2,
  "SliceTiming": [0, 0.7825, 0.0975, 0.88, 0.195, 0.98, 0.2925, 1.0775, 0.39, 1.175, 0.49, 1.2725, 0.5875, 1.37, 0.685, 0, 0.7825, 0.0975, 0.88, 0.195, 0.98, 0.2925, 1.0775, 0.39, 1.175, 0.49, 1.2725, 0.5875, 1.37, 0.685, 0, 0.7825, 0.0975, 0.88, 0.195, 0.98, 0.2925, 1.0775, 0.39, 1.175, 0.49, 1.2725, 0.5875, 1.37, 0.685, 0, 0.7825, 0.0975, 0.88, 0.195, 0.98, 0.2925, 1.0775, 0.39, 1.175, 0.49, 1.2725, 0.5875, 1.37, 0.685],
  "SoftwareVersions": "syngo_MR_E11",
  "SpacingBetweenSlices": 2,
  "StationName": "MRC35049",
  "TaskName": "friends",
  "TotalReadoutTime": 0.0576811,
  "TxRefAmp": 251.534,
  "WipMemBlock": "f0a51ccf-921b-45bb-a7bc-d393a261eede||Sequence: R016 ve11c/master r/e634e98; Dec 19 2017 11:00:25 by eja",
  "dcmmeta_affine": [
    [-1.9999709129333496, 0.007330283988267183, 0.007914865389466286, 102.6148910522461],
    [0.0019228915916755795, 1.6860953569412231, -1.0756759643554688, -56.886131286621094],
    [0.010615114122629166, 1.0756527185440063, 1.6860778331756592, -108.3019790649414],
    [0.0, 0.0, 0.0, 1.0]
],
  "dcmmeta_reorient_transform": [
    [0.0, -1.0, 0.0, 103.0],
    [1.0, 0.0, 0.0, 0.0],
    [0.0, 0.0, 1.0, 0.0],
    [0.0, 0.0, 0.0, 1.0]
],
  "dcmmeta_shape": [104, 104, 60, 477],
  "dcmmeta_slice_dim": 2,
  "dcmmeta_version": 0.6,
  "global": {
    "const": {
      "AcquisitionMatrix": [104, 0, 0, 104],
      "AngioFlag": "N",
      "BitsAllocated": 16,
      "BitsStored": 16,
      "BodyPartExamined": "BRAIN",
      "Columns": 832,
      "EchoNumbers": 1,
      "EchoTime": 37.0,
      "EchoTrainLength": 104,
      "FlipAngle": 52.0,
      "HighBit": 15,
      "ImageOrientationPatient": [0.99998545262526, -0.0009614458053, 0.00530755686022, 0.00366514188682, 0.84304767824737, -0.5378263464508],
      "ImagePositionPatient": [-834.02754307575, -729.82046684261, 390.16392456537],
      "ImageType": [
        "ORIGINAL",
        "PRIMARY",
        "M",
        "MB",
        "ND",
        "MOSAIC"
],
      "ImagedNucleus": "1H",
      "ImagingFrequency": 123.259182,
      "InPlanePhaseEncodingDirection": "COL",
      "MRAcquisitionType": "2D",
      "MagneticFieldStrength": 3.0,
      "Manufacturer": "SIEMENS",
      "ManufacturerModelName": "Prisma_fit",
      "Modality": "MR",
      "NumberOfAverages": 1.0,
      "NumberOfPhaseEncodingSteps": 104,
      "PercentPhaseFieldOfView": 100.0,
      "PercentSampling": 100.0,
      "PerformedProcedureStepStartTime": "153514.919000",
      "PhotometricInterpretation": "MONOCHROME2",
      "PixelBandwidth": 2290.0,
      "PixelRepresentation": 0,
      "PixelSpacing": [2.0, 2.0],
      "ProtocolName": "func_task-s01e11b",
      "RepetitionTime": 1490.0,
      "Rows": 832,
      "SAR": 0.03713855155605,
      "SamplesPerPixel": 1,
      "ScanOptions": "FS",
      "ScanningSequence": "EP",
      "SequenceName": "epfid2d1_104",
      "SequenceVariant": [
        "SK",
        "SS"
],
      "SeriesDescription": "func_task-s01e11b",
      "SeriesNumber": 18,
      "SeriesTime": "164644.963000",
      "SliceLocation": -60.301173936194,
      "SliceThickness": 2.0,
      "SmallestImagePixelValue": 0,
      "SoftwareVersions": "syngo MR E11",
      "SpacingBetweenSlices": 1.9999999851967,
      "SpecificCharacterSet": "ISO_IR 100",
      "StudyID": "1",
      "StudyTime": "153514.845000",
      "TransmitCoilName": "Body",
      "VariableFlipAngleFlag": "N",
      "WindowCenterWidthExplanation": "Algo1",
      "dBdt": 0.0},
    "slices": {}
  },
  "time": {
    "samples": {
      "AcquisitionNumber": [1, 2, 3, 4, 5, 6, 7, 8, 9, 10, 11, 12, 13, 14, 15, 16, 17, 18, 19, 20, 21, 22, 23, 24, 25, 26, 27, 28, 29, 30, 31, 32, 33, 34, 35, 36, 37, 38, 39, 40, 41, 42, 43, 44, 45, 46, 47, 48, 49, 50, 51, 52, 53, 54, 55, 56, 57, 58, 59, 60, 61, 62, 63, 64, 65, 66, 67, 68, 69, 70, 71, 72, 73, 74, 75, 76, 77, 78, 79, 80, 81, 82, 83, 84, 85, 86, 87, 88, 89, 90, 91, 92, 93, 94, 95, 96, 97, 98, 99, 100, 101, 102, 103, 104, 105, 106, 107, 108, 109, 110, 111, 112, 113, 114, 115, 116, 117, 118, 119, 120, 121, 122, 123, 124, 125, 126, 127, 128, 129, 130, 131, 132, 133, 134, 135, 136, 137, 138, 139, 140, 141, 142, 143, 144, 145, 146, 147, 148, 149, 150, 151, 152, 153, 154, 155, 156, 157, 158, 159, 160, 161, 162, 163, 164, 165, 166, 167, 168, 169, 170, 171, 172, 173, 174, 175, 176, 177, 178, 179, 180, 181, 182, 183, 184, 185, 186, 187, 188, 189, 190, 191, 192, 193, 194, 195, 196, 197, 198, 199, 200, 201, 202, 203, 204, 205, 206, 207, 208, 209, 210, 211, 212, 213, 214, 215, 216, 217, 218, 219, 220, 221, 222, 223, 224, 225, 226, 227, 228, 229, 230, 231, 232, 233, 234, 235, 236, 237, 238, 239, 240, 241, 242, 243, 244, 245, 246, 247, 248, 249, 250, 251, 252, 253, 254, 255, 256, 257, 258, 259, 260, 261, 262, 263, 264, 265, 266, 267, 268, 269, 270, 271, 272, 273, 274, 275, 276, 277, 278, 279, 280, 281, 282, 283, 284, 285, 286, 287, 288, 289, 290, 291, 292, 293, 294, 295, 296, 297, 298, 299, 300, 301, 302, 303, 304, 305, 306, 307, 308, 309, 310, 311, 312, 313, 314, 315, 316, 317, 318, 319, 320, 321, 322, 323, 324, 325, 326, 327, 328, 329, 330, 331, 332, 333, 334, 335, 336, 337, 338, 339, 340, 341, 342, 343, 344, 345, 346, 347, 348, 349, 350, 351, 352, 353, 354, 355, 356, 357, 358, 359, 360, 361, 362, 363, 364, 365, 366, 367, 368, 369, 370, 371, 372, 373, 374, 375, 376, 377, 378, 379, 380, 381, 382, 383, 384, 385, 386, 387, 388, 389, 390, 391, 392, 393, 394, 395, 396, 397, 398, 399, 400, 401, 402, 403, 404, 405, 406, 407, 408, 409, 410, 411, 412, 413, 414, 415, 416, 417, 418, 419, 420, 421, 422, 423, 424, 425, 426, 427, 428, 429, 430, 431, 432, 433, 434, 435, 436, 437, 438, 439, 440, 441, 442, 443, 444, 445, 446, 447, 448, 449, 450, 451, 452, 453, 454, 455, 456, 457, 458, 459, 460, 461, 462, 463, 464, 465, 466, 467, 468, 469, 470, 471, 472, 473, 474, 475, 476, 477],
      "AcquisitionTime": ["164511.605000", "164513.095000", "164514.585000", "164516.075000", "164517.565000", "164519.055000", "164520.545000", "164522.035000", "164523.525000", "164525.015000", "164526.505000", "164527.995000", "164529.485000", "164530.975000", "164532.465000", "164533.955000", "164535.445000", "164536.935000", "164538.425000", "164539.915000", "164541.405000", "164542.895000", "164544.385000", "164545.875000", "164547.365000", "164548.855000", "164550.345000", "164551.835000", "164553.325000", "164554.815000", "164556.305000", "164557.795000", "164559.285000", "164600.775000", "164602.265000", "164603.755000", "164605.245000", "164606.735000", "164608.225000", "164609.715000", "164611.205000", "164612.695000", "164614.185000", "164615.675000", "164617.165000", "164618.655000", "164620.145000", "164621.635000", "164623.125000", "164624.615000", "164626.105000", "164627.595000", "164629.085000", "164630.575000", "164632.065000", "164633.555000", "164635.045000", "164636.535000", "164638.025000", "164639.515000", "164641.005000", "164642.495000", "164643.985000", "164645.475000", "164646.965000", "164648.455000", "164649.945000", "164651.435000", "164652.925000", "164654.415000", "164655.905000", "164657.395000", "164658.885000", "164700.375000", "164701.865000", "164703.355000", "164704.845000", "164706.335000", "164707.825000", "164709.315000", "164710.805000", "164712.295000", "164713.785000", "164715.275000", "164716.765000", "164718.255000", "164719.745000", "164721.235000", "164722.725000", "164724.215000", "164725.705000", "164727.195000", "164728.685000", "164730.175000", "164731.665000", "164733.155000", "164734.645000", "164736.135000", "164737.625000", "164739.115000", "164740.605000", "164742.095000", "164743.585000", "164745.075000", "164746.565000", "164748.055000", "164749.545000", "164751.035000", "164752.525000", "164754.015000", "164755.505000", "164756.995000", "164758.485000", "164759.975000", "164801.465000", "164802.955000", "164804.445000", "164805.935000", "164807.425000", "164808.915000", "164810.405000", "164811.895000", "164813.385000", "164814.875000", "164816.365000", "164817.855000", "164819.345000", "164820.835000", "164822.325000", "164823.815000", "164825.305000", "164826.795000", "164828.285000", "164829.775000", "164831.265000", "164832.755000", "164834.245000", "164835.735000", "164837.225000", "164838.715000", "164840.205000", "164841.695000", "164843.185000", "164844.675000", "164846.165000", "164847.655000", "164849.145000", "164850.635000", "164852.125000", "164853.615000", "164855.105000", "164856.595000", "164858.085000", "164859.575000", "164901.065000", "164902.555000", "164904.045000", "164905.535000", "164907.025000", "164908.515000", "164910.005000", "164911.495000", "164912.985000", "164914.475000", "164915.965000", "164917.455000", "164918.945000", "164920.435000", "164921.925000", "164923.415000", "164924.905000", "164926.395000", "164927.885000", "164929.375000", "164930.865000", "164932.355000", "164933.845000", "164935.335000", "164936.825000", "164938.315000", "164939.805000", "164941.295000", "164942.785000", "164944.275000", "164945.765000", "164947.255000", "164948.745000", "164950.235000", "164951.725000", "164953.215000", "164954.705000", "164956.195000", "164957.685000", "164959.175000", "165000.665000", "165002.155000", "165003.645000", "165005.135000", "165006.625000", "165008.115000", "165009.605000", "165011.095000", "165012.585000", "165014.075000", "165015.565000", "165017.055000", "165018.545000", "165020.035000", "165021.525000", "165023.015000", "165024.505000", "165025.995000", "165027.485000", "165028.975000", "165030.465000", "165031.955000", "165033.445000", "165034.935000", "165036.425000", "165037.915000", "165039.405000", "165040.895000", "165042.385000", "165043.875000", "165045.365000", "165046.855000", "165048.345000", "165049.835000", "165051.325000", "165052.815000", "165054.305000", "165055.795000", "165057.285000", "165058.775000", "165100.265000", "165101.755000", "165103.245000", "165104.735000", "165106.225000", "165107.715000", "165109.205000", "165110.695000", "165112.185000", "165113.675000", "165115.165000", "165116.655000", "165118.145000", "165119.635000", "165121.125000", "165122.615000", "165124.105000", "165125.595000", "165127.085000", "165128.575000", "165130.065000", "165131.555000", "165133.045000", "165134.535000", "165136.025000", "165137.515000", "165139.005000", "165140.495000", "165141.985000", "165143.475000", "165144.965000", "165146.455000", "165147.945000", "165149.435000", "165150.925000", "165152.415000", "165153.905000", "165155.395000", "165156.885000", "165158.375000", "165159.865000", "165201.355000", "165202.845000", "165204.335000", "165205.825000", "165207.315000", "165208.805000", "165210.295000", "165211.785000", "165213.275000", "165214.765000", "165216.255000", "165217.745000", "165219.235000", "165220.725000", "165222.215000", "165223.705000", "165225.195000", "165226.685000", "165228.175000", "165229.665000", "165231.155000", "165232.645000", "165234.135000", "165235.625000", "165237.115000", "165238.605000", "165240.095000", "165241.585000", "165243.075000", "165244.565000", "165246.055000", "165247.545000", "165249.035000", "165250.525000", "165252.015000", "165253.505000", "165254.995000", "165256.485000", "165257.975000", "165259.465000", "165300.955000", "165302.445000", "165303.935000", "165305.425000", "165306.915000", "165308.405000", "165309.895000", "165311.385000", "165312.875000", "165314.365000", "165315.855000", "165317.345000", "165318.835000", "165320.325000", "165321.815000", "165323.305000", "165324.795000", "165326.285000", "165327.775000", "165329.265000", "165330.755000", "165332.245000", "165333.735000", "165335.225000", "165336.715000", "165338.205000", "165339.695000", "165341.185000", "165342.675000", "165344.165000", "165345.655000", "165347.145000", "165348.635000", "165350.125000", "165351.615000", "165353.105000", "165354.595000", "165356.085000", "165357.575000", "165359.065000", "165400.555000", "165402.045000", "165403.535000", "165405.025000", "165406.515000", "165408.005000", "165409.495000", "165410.985000", "165412.475000", "165413.965000", "165415.455000", "165416.945000", "165418.435000", "165419.925000", "165421.415000", "165422.905000", "165424.395000", "165425.885000", "165427.375000", "165428.865000", "165430.355000", "165431.845000", "165433.335000", "165434.825000", "165436.315000", "165437.805000", "165439.295000", "165440.785000", "165442.275000", "165443.765000", "165445.255000", "165446.745000", "165448.235000", "165449.725000", "165451.215000", "165452.705000", "165454.195000", "165455.685000", "165457.175000", "165458.665000", "165500.155000", "165501.645000", "165503.135000", "165504.625000", "165506.115000", "165507.605000", "165509.095000", "165510.585000", "165512.075000", "165513.565000", "165515.055000", "165516.545000", "165518.035000", "165519.525000", "165521.015000", "165522.505000", "165523.995000", "165525.485000", "165526.975000", "165528.465000", "165529.955000", "165531.445000", "165532.935000", "165534.425000", "165535.915000", "165537.405000", "165538.895000", "165540.385000", "165541.875000", "165543.365000", "165544.855000", "165546.345000", "165547.835000", "165549.325000", "165550.815000", "165552.305000", "165553.795000", "165555.285000", "165556.775000", "165558.265000", "165559.755000", "165601.245000", "165602.735000", "165604.225000", "165605.715000", "165607.205000", "165608.695000", "165610.185000", "165611.675000", "165613.165000", "165614.655000", "165616.145000", "165617.635000", "165619.125000", "165620.615000", "165622.105000", "165623.595000", "165625.085000", "165626.575000", "165628.065000", "165629.555000", "165631.045000", "165632.535000", "165634.025000", "165635.515000", "165637.005000", "165638.495000", "165639.985000", "165641.475000", "165642.965000", "165644.455000", "165645.945000", "165647.435000", "165648.925000", "165650.415000", "165651.905000", "165653.395000", "165654.885000", "165656.375000", "165657.865000", "165659.355000", "165700.845000"],
      "ContentTime": ["164644.967000", "164644.970000", "164644.979000", "164644.982000", "164644.985000", "164644.988000", "164644.991000", "164644.994000", "164644.997000", "164645.001000", "164645.003000", "164645.006000", "164645.009000", "164645.012000", "164645.018000", "164645.021000", "164645.024000", "164645.027000", "164645.030000", "164645.033000", "164645.035000", "164645.038000", "164645.041000", "164645.044000", "164645.047000", "164645.050000", "164645.053000", "164645.055000", "164645.058000", "164645.061000", "164645.064000", "164645.067000", "164645.070000", "164645.073000", "164645.076000", "164645.078000", "164645.081000", "164645.084000", "164704.936000", "164704.939000", "164704.942000", "164704.945000", "164704.948000", "164704.950000", "164704.953000", "164704.956000", "164704.959000", "164704.962000", "164704.965000", "164704.967000", "164704.970000", "164704.973000", "164704.985000", "164704.988000", "164704.991000", "164704.994000", "164704.997000", "164705.001000", "164724.937000", "164724.960000", "164724.963000", "164724.966000", "164724.969000", "164724.973000", "164724.976000", "164724.979000", "164724.982000", "164724.984000", "164724.987000", "164724.990000", "164724.993000", "164724.996000", "164724.998000", "164725.001000", "164725.004000", "164725.007000", "164725.010000", "164725.012000", "164725.015000", "164744.936000", "164744.939000", "164744.942000", "164744.945000", "164744.947000", "164744.950000", "164744.953000", "164744.956000", "164744.959000", "164744.961000", "164744.964000", "164744.967000", "164744.970000", "164744.973000", "164744.976000", "164744.978000", "164744.981000", "164744.984000", "164744.987000", "164744.990000", "164824.936000", "164824.939000", "164824.942000", "164824.945000", "164824.947000", "164824.950000", "164824.953000", "164824.971000", "164824.973000", "164824.976000", "164824.979000", "164824.982000", "164824.985000", "164824.987000", "164824.990000", "164824.995000", "164824.998000", "164825.002000", "164825.005000", "164825.008000", "164825.011000", "164825.013000", "164825.016000", "164825.019000", "164825.022000", "164825.025000", "164825.028000", "164825.031000", "164825.034000", "164825.036000", "164904.936000", "164904.939000", "164904.942000", "164904.945000", "164904.948000", "164904.951000", "164904.954000", "164904.957000", "164904.959000", "164904.962000", "164904.965000", "164904.971000", "164904.974000", "164904.977000", "164904.979000", "164904.982000", "164904.985000", "164904.988000", "164904.991000", "164904.994000", "164904.997000", "164905.001000", "164905.003000", "164905.006000", "164905.009000", "164905.012000", "164944.937000", "164944.940000", "164944.943000", "164944.946000", "164944.949000", "164944.952000", "164944.955000", "164944.957000", "164944.960000", "164944.963000", "164944.966000", "164944.969000", "164944.972000", "164944.974000", "164944.977000", "164944.980000", "164944.983000", "164944.986000", "164944.989000", "164944.992000", "164944.994000", "164944.997000", "164945.000000", "164945.003000", "164945.006000", "164945.009000", "164945.012000", "165024.936000", "165024.939000", "165024.942000", "165024.945000", "165024.948000", "165024.951000", "165024.954000", "165024.956000", "165024.959000", "165024.962000", "165024.965000", "165024.968000", "165024.970000", "165024.973000", "165024.976000", "165024.979000", "165024.982000", "165024.984000", "165024.987000", "165024.990000", "165024.993000", "165024.996000", "165025.000000", "165025.002000", "165025.005000", "165025.008000", "165025.011000", "165104.936000", "165104.939000", "165104.942000", "165104.945000", "165104.947000", "165104.950000", "165104.953000", "165104.956000", "165104.959000", "165104.961000", "165104.964000", "165104.967000", "165104.970000", "165104.973000", "165104.975000", "165104.978000", "165104.981000", "165104.984000", "165104.987000", "165104.990000", "165104.992000", "165104.995000", "165104.998000", "165105.002000", "165105.005000", "165105.008000", "165105.010000", "165124.936000", "165124.939000", "165124.942000", "165124.945000", "165124.948000", "165124.950000", "165124.953000", "165124.956000", "165124.959000", "165124.962000", "165124.964000", "165124.967000", "165124.970000", "165204.937000", "165204.940000", "165204.943000", "165204.946000", "165204.948000", "165204.951000", "165204.954000", "165204.957000", "165204.960000", "165204.963000", "165204.966000", "165204.968000", "165204.971000", "165204.974000", "165204.977000", "165204.980000", "165204.982000", "165204.985000", "165204.988000", "165204.991000", "165204.994000", "165204.997000", "165204.999000", "165205.002000", "165205.005000", "165205.008000", "165205.011000", "165244.936000", "165244.939000", "165244.942000", "165244.945000", "165244.948000", "165244.950000", "165244.953000", "165244.956000", "165244.959000", "165244.962000", "165244.965000", "165244.968000", "165244.971000", "165244.973000", "165244.976000", "165244.979000", "165244.982000", "165244.985000", "165244.988000", "165244.991000", "165244.994000", "165244.997000", "165245.001000", "165245.004000", "165245.006000", "165245.009000", "165245.012000", "165324.936000", "165324.939000", "165324.942000", "165324.944000", "165324.947000", "165324.950000", "165324.953000", "165324.956000", "165324.959000", "165324.962000", "165324.965000", "165324.967000", "165324.970000", "165324.973000", "165324.976000", "165324.979000", "165324.981000", "165324.984000", "165324.987000", "165324.990000", "165324.993000", "165324.995000", "165324.998000", "165325.002000", "165325.005000", "165325.008000", "165325.011000", "165404.936000", "165404.939000", "165404.942000", "165404.945000", "165404.948000", "165404.950000", "165404.953000", "165404.956000", "165404.959000", "165404.962000", "165404.965000", "165404.967000", "165404.970000", "165404.973000", "165404.976000", "165404.979000", "165404.982000", "165404.984000", "165404.987000", "165404.990000", "165404.993000", "165404.996000", "165405.000000", "165405.003000", "165405.005000", "165405.008000", "165405.011000", "165444.936000", "165444.939000", "165444.942000", "165444.945000", "165444.947000", "165444.950000", "165444.953000", "165444.956000", "165444.959000", "165444.962000", "165444.964000", "165444.967000", "165444.970000", "165444.973000", "165444.976000", "165444.978000", "165444.981000", "165444.984000", "165444.987000", "165444.990000", "165444.993000", "165444.995000", "165444.998000", "165445.002000", "165445.005000", "165445.008000", "165445.011000", "165524.936000", "165524.939000", "165524.942000", "165524.945000", "165524.947000", "165524.950000", "165524.953000", "165524.956000", "165524.959000", "165524.962000", "165524.965000", "165524.967000", "165524.970000", "165524.973000", "165524.976000", "165524.979000", "165524.981000", "165524.984000", "165524.987000", "165524.990000", "165524.993000", "165524.999000", "165525.002000", "165525.005000", "165525.007000", "165525.010000", "165525.013000", "165604.936000", "165604.939000", "165604.942000", "165604.945000", "165604.948000", "165604.951000", "165604.953000", "165604.956000", "165604.959000", "165604.962000", "165604.965000", "165604.968000", "165604.971000", "165604.975000", "165604.978000", "165604.981000", "165604.983000", "165604.986000", "165604.989000", "165604.992000", "165604.995000", "165604.998000", "165605.001000", "165605.003000", "165605.006000", "165605.009000", "165644.937000", "165644.940000", "165644.943000", "165644.946000", "165644.949000", "165644.952000", "165644.955000", "165644.958000", "165644.960000", "165644.963000", "165644.966000", "165644.969000", "165644.972000", "165644.975000", "165644.977000", "165644.980000", "165644.983000", "165644.986000", "165644.989000", "165644.992000", "165644.995000", "165644.998000", "165645.001000", "165645.004000", "165645.006000", "165645.009000", "165645.012000", "165703.267000", "165703.270000", "165703.273000", "165703.276000", "165703.279000", "165703.282000", "165703.285000", "165703.288000", "165703.290000", "165703.293000", "165703.301000", "165703.304000", "165703.307000"],
