{
  "AcquisitionMatrixPE": 104,
  "AcquisitionNumber": 1,
  "AcquisitionTime": "14:38:45.417500",
  "BandwidthPerPixelPhaseEncode": 17.17,
  "BaseResolution": 104,
  "BodyPartExamined": "BRAIN",
  "CoilString": "HC1-7;NC1_2",
  "ConsistencyInfo": "N4_VE11C_LATEST_20160120",
  "ConversionSoftware": "dcm2niix",
  "ConversionSoftwareVersion": "v1.0.20200427",
  "DerivedVendorReportedEchoSpacing": 0.000560011,
  "DeviceSerialNumber": "167006",
  "DwellTime": 2.1e-06,
  "EchoTime": 0.037,
  "EchoTrainLength": 104,
  "EffectiveEchoSpacing": 0.000560011,
  "FlipAngle": 52,
  "ImageComments": "Unaliased_MB4_PE3_LB",
  "ImageOrientationPatientDICOM": [0.999538, -0.0295237, 0.00716354, 0.030364, 0.9631, -0.267426],
  "ImageType": [
    "ORIGINAL",
    "PRIMARY",
    "M",
    "MB",
    "ND",
    "MOSAIC"
],
  "ImagingFrequency": 123.259,
  "InPlanePhaseEncodingDirectionDICOM": "COL",
  "InstitutionAddress": "Chemin_Queen-Mary_4565_Montreal_District_CA_H3W_1W5",
  "InstitutionName": "IUGM",
  "InstitutionalDepartmentName": "Department",
  "MRAcquisitionType": "2D",
  "MagneticFieldStrength": 3,
  "Manufacturer": "Siemens",
  "ManufacturersModelName": "Prisma_fit",
  "Modality": "MR",
  "MultibandAccelerationFactor": 4,
  "PartialFourier": 1,
  "PatientPosition": "HFS",
  "PercentPhaseFOV": 100,
  "PercentSampling": 100,
  "PhaseEncodingDirection": "j",
  "PhaseEncodingSteps": 104,
  "PhaseResolution": 1,
  "PixelBandwidth": 2290,
  "ProcedureStepDescription": "video_friends",
  "ProtocolName": "func_task-friends-s03e03b",
  "PulseSequenceDetails": "%CustomerSeq%_cmrr_mbep2d_bold",
  "ReceiveCoilActiveElements": "HC1-7;NC1,2",
  "ReceiveCoilName": "HeadNeck_64",
  "ReconMatrixPE": 104,
  "RepetitionTime": 1.49,
  "SAR": 0.0293498,
  "ScanOptions": "FS",
  "ScanningSequence": "EP",
  "SequenceName": "epfid2d1_104",
  "SequenceVariant": "SK_SS",
  "SeriesDescription": "func_task-friends-s03e03b",
  "SeriesNumber": 15,
  "ShimSetting": [627, -7214, -8814, 734, 9, -23, 28, 11],
  "SliceThickness": 2,
  "SliceTiming": [0, 0.785, 0.1, 0.8825, 0.1975, 0.98, 0.295, 1.0775, 0.3925, 1.1775, 0.49, 1.275, 0.59, 1.3725, 0.6875, 0, 0.785, 0.1, 0.8825, 0.1975, 0.98, 0.295, 1.0775, 0.3925, 1.1775, 0.49, 1.275, 0.59, 1.3725, 0.6875, 0, 0.785, 0.1, 0.8825, 0.1975, 0.98, 0.295, 1.0775, 0.3925, 1.1775, 0.49, 1.275, 0.59, 1.3725, 0.6875, 0, 0.785, 0.1, 0.8825, 0.1975, 0.98, 0.295, 1.0775, 0.3925, 1.1775, 0.49, 1.275, 0.59, 1.3725, 0.6875],
  "SoftwareVersions": "syngo_MR_E11",
  "SpacingBetweenSlices": 2,
  "StationName": "MRC35049",
  "TaskName": "s03e03b",
  "TotalReadoutTime": 0.0576811,
  "TxRefAmp": 205.261,
  "WipMemBlock": "3c9ccf5b-0f29-4d25-9512-fdc159169ec3||Sequence: R016 ve11c/master r/e634e98; Dec 19 2017 11:00:25 by eja",
  "dcmmeta_affine": [
    [-1.9990768432617188, 0.06072801724076271, -0.001992423553019762, 101.78697967529297],
    [0.05904741212725639, 1.9261996746063232, -0.535040557384491, -85.85888671875],
    [0.014327073469758034, 0.5348524451255798, 1.9271034002304077, -63.57805633544922],
    [0.0, 0.0, 0.0, 1.0]
],
  "dcmmeta_reorient_transform": [
    [0.0, -1.0, 0.0, 103.0],
    [1.0, 0.0, 0.0, 0.0],
    [0.0, 0.0, 1.0, 0.0],
    [0.0, 0.0, 0.0, 1.0]
],
  "dcmmeta_shape": [104, 104, 60, 454],
  "dcmmeta_slice_dim": 2,
  "dcmmeta_version": 0.6,
  "global": {
    "const": {
      "AcquisitionMatrix": [104, 0, 0, 104],
      "AngioFlag": "N",
      "BitsAllocated": 16,
      "BitsStored": 16,
      "BodyPartExamined": "BRAIN",
      "Columns": 832,
      "EchoNumbers": 1,
      "EchoTime": 37.0,
      "EchoTrainLength": 104,
      "FlipAngle": 52.0,
      "HighBit": 15,
      "ImageOrientationPatient": [0.99953841072706, -0.0295237060656, 0.00716353693255, 0.03036400901119, 0.96309981192515, -0.2674262126765],
      "ImagePositionPatient": [-857.81093020755, -792.18307779609, 180.98296989452],
      "ImageType": [
        "ORIGINAL",
        "PRIMARY",
        "M",
        "MB",
        "ND",
        "MOSAIC"
],
      "ImagedNucleus": "1H",
      "ImagingFrequency": 123.259091,
      "InPlanePhaseEncodingDirection": "COL",
      "MRAcquisitionType": "2D",
      "MagneticFieldStrength": 3.0,
      "Manufacturer": "SIEMENS",
      "ManufacturerModelName": "Prisma_fit",
      "Modality": "MR",
      "NumberOfAverages": 1.0,
      "NumberOfPhaseEncodingSteps": 104,
      "PercentPhaseFieldOfView": 100.0,
      "PercentSampling": 100.0,
      "PerformedProcedureStepStartTime": "133020.157000",
      "PhotometricInterpretation": "MONOCHROME2",
      "PixelBandwidth": 2290.0,
      "PixelRepresentation": 0,
      "PixelSpacing": [2.0, 2.0],
      "ProtocolName": "func_task-friends-s03e03b",
      "RepetitionTime": 1490.0,
      "Rows": 832,
      "SAR": 0.0293498192443,
      "SamplesPerPixel": 1,
      "ScanOptions": "FS",
      "ScanningSequence": "EP",
      "SequenceName": "epfid2d1_104",
      "SequenceVariant": [
        "SK",
        "SS"
],
      "SeriesDescription": "func_task-friends-s03e03b",
      "SeriesNumber": 15,
      "SeriesTime": "144005.045000",
      "SliceLocation": -38.393153629301,
      "SliceThickness": 2.0,
      "SmallestImagePixelValue": 0,
      "SoftwareVersions": "syngo MR E11",
      "SpacingBetweenSlices": 1.9999999750287,
      "SpecificCharacterSet": "ISO_IR 100",
      "StudyID": "1",
      "StudyTime": "133020.063000",
      "TransmitCoilName": "Body",
      "VariableFlipAngleFlag": "N",
      "WindowCenterWidthExplanation": "Algo1",
      "dBdt": 0.0},
    "slices": {}
  },
  "time": {
    "samples": {
      "AcquisitionNumber": [1, 2, 3, 4, 5, 6, 7, 8, 9, 10, 11, 12, 13, 14, 15, 16, 17, 18, 19, 20, 21, 22, 23, 24, 25, 26, 27, 28, 29, 30, 31, 32, 33, 34, 35, 36, 37, 38, 39, 40, 41, 42, 43, 44, 45, 46, 47, 48, 49, 50, 51, 52, 53, 54, 55, 56, 57, 58, 59, 60, 61, 62, 63, 64, 65, 66, 67, 68, 69, 70, 71, 72, 73, 74, 75, 76, 77, 78, 79, 80, 81, 82, 83, 84, 85, 86, 87, 88, 89, 90, 91, 92, 93, 94, 95, 96, 97, 98, 99, 100, 101, 102, 103, 104, 105, 106, 107, 108, 109, 110, 111, 112, 113, 114, 115, 116, 117, 118, 119, 120, 121, 122, 123, 124, 125, 126, 127, 128, 129, 130, 131, 132, 133, 134, 135, 136, 137, 138, 139, 140, 141, 142, 143, 144, 145, 146, 147, 148, 149, 150, 151, 152, 153, 154, 155, 156, 157, 158, 159, 160, 161, 162, 163, 164, 165, 166, 167, 168, 169, 170, 171, 172, 173, 174, 175, 176, 177, 178, 179, 180, 181, 182, 183, 184, 185, 186, 187, 188, 189, 190, 191, 192, 193, 194, 195, 196, 197, 198, 199, 200, 201, 202, 203, 204, 205, 206, 207, 208, 209, 210, 211, 212, 213, 214, 215, 216, 217, 218, 219, 220, 221, 222, 223, 224, 225, 226, 227, 228, 229, 230, 231, 232, 233, 234, 235, 236, 237, 238, 239, 240, 241, 242, 243, 244, 245, 246, 247, 248, 249, 250, 251, 252, 253, 254, 255, 256, 257, 258, 259, 260, 261, 262, 263, 264, 265, 266, 267, 268, 269, 270, 271, 272, 273, 274, 275, 276, 277, 278, 279, 280, 281, 282, 283, 284, 285, 286, 287, 288, 289, 290, 291, 292, 293, 294, 295, 296, 297, 298, 299, 300, 301, 302, 303, 304, 305, 306, 307, 308, 309, 310, 311, 312, 313, 314, 315, 316, 317, 318, 319, 320, 321, 322, 323, 324, 325, 326, 327, 328, 329, 330, 331, 332, 333, 334, 335, 336, 337, 338, 339, 340, 341, 342, 343, 344, 345, 346, 347, 348, 349, 350, 351, 352, 353, 354, 355, 356, 357, 358, 359, 360, 361, 362, 363, 364, 365, 366, 367, 368, 369, 370, 371, 372, 373, 374, 375, 376, 377, 378, 379, 380, 381, 382, 383, 384, 385, 386, 387, 388, 389, 390, 391, 392, 393, 394, 395, 396, 397, 398, 399, 400, 401, 402, 403, 404, 405, 406, 407, 408, 409, 410, 411, 412, 413, 414, 415, 416, 417, 418, 419, 420, 421, 422, 423, 424, 425, 426, 427, 428, 429, 430, 431, 432, 433, 434, 435, 436, 437, 438, 439, 440, 441, 442, 443, 444, 445, 446, 447, 448, 449, 450, 451, 452, 453, 454],
      "AcquisitionTime": ["143845.417500", "143846.907500", "143848.397500", "143849.887500", "143851.377500", "143852.867500", "143854.357500", "143855.847500", "143857.337500", "143858.827500", "143900.317500", "143901.807500", "143903.297500", "143904.787500", "143906.277500", "143907.767500", "143909.257500", "143910.747500", "143912.237500", "143913.727500", "143915.217500", "143916.707500", "143918.197500", "143919.687500", "143921.177500", "143922.667500", "143924.157500", "143925.647500", "143927.137500", "143928.627500", "143930.117500", "143931.607500", "143933.097500", "143934.587500", "143936.077500", "143937.567500", "143939.057500", "143940.547500", "143942.037500", "143943.527500", "143945.017500", "143946.507500", "143947.997500", "143949.487500", "143950.977500", "143952.467500", "143953.957500", "143955.447500", "143956.937500", "143958.427500", "143959.917500", "144001.407500", "144002.897500", "144004.387500", "144005.877500", "144007.367500", "144008.857500", "144010.347500", "144011.837500", "144013.327500", "144014.817500", "144016.307500", "144017.797500", "144019.287500", "144020.777500", "144022.267500", "144023.757500", "144025.247500", "144026.737500", "144028.227500", "144029.717500", "144031.207500", "144032.697500", "144034.187500", "144035.677500", "144037.167500", "144038.657500", "144040.147500", "144041.637500", "144043.127500", "144044.617500", "144046.107500", "144047.597500", "144049.087500", "144050.577500", "144052.067500", "144053.557500", "144055.047500", "144056.537500", "144058.027500", "144059.517500", "144101.007500", "144102.497500", "144103.987500", "144105.477500", "144106.967500", "144108.457500", "144109.947500", "144111.437500", "144112.927500", "144114.417500", "144115.907500", "144117.397500", "144118.887500", "144120.377500", "144121.867500", "144123.357500", "144124.847500", "144126.337500", "144127.827500", "144129.317500", "144130.807500", "144132.297500", "144133.787500", "144135.277500", "144136.767500", "144138.257500", "144139.747500", "144141.237500", "144142.727500", "144144.217500", "144145.707500", "144147.197500", "144148.687500", "144150.177500", "144151.667500", "144153.157500", "144154.647500", "144156.137500", "144157.627500", "144159.117500", "144200.607500", "144202.097500", "144203.587500", "144205.077500", "144206.567500", "144208.057500", "144209.547500", "144211.037500", "144212.527500", "144214.017500", "144215.507500", "144216.997500", "144218.487500", "144219.977500", "144221.467500", "144222.957500", "144224.447500", "144225.937500", "144227.427500", "144228.917500", "144230.407500", "144231.897500", "144233.387500", "144234.877500", "144236.367500", "144237.857500", "144239.347500", "144240.837500", "144242.327500", "144243.817500", "144245.307500", "144246.797500", "144248.287500", "144249.777500", "144251.267500", "144252.757500", "144254.247500", "144255.737500", "144257.227500", "144258.717500", "144300.207500", "144301.697500", "144303.187500", "144304.677500", "144306.167500", "144307.657500", "144309.147500", "144310.637500", "144312.127500", "144313.617500", "144315.107500", "144316.597500", "144318.087500", "144319.577500", "144321.067500", "144322.557500", "144324.047500", "144325.537500", "144327.027500", "144328.517500", "144330.007500", "144331.497500", "144332.987500", "144334.477500", "144335.967500", "144337.457500", "144338.947500", "144340.437500", "144341.927500", "144343.417500", "144344.907500", "144346.397500", "144347.887500", "144349.377500", "144350.867500", "144352.357500", "144353.847500", "144355.337500", "144356.827500", "144358.317500", "144359.807500", "144401.297500", "144402.787500", "144404.277500", "144405.767500", "144407.257500", "144408.747500", "144410.237500", "144411.727500", "144413.217500", "144414.707500", "144416.197500", "144417.687500", "144419.177500", "144420.667500", "144422.157500", "144423.647500", "144425.137500", "144426.627500", "144428.117500", "144429.607500", "144431.097500", "144432.587500", "144434.077500", "144435.567500", "144437.057500", "144438.547500", "144440.037500", "144441.527500", "144443.017500", "144444.507500", "144445.997500", "144447.487500", "144448.977500", "144450.467500", "144451.957500", "144453.447500", "144454.937500", "144456.427500", "144457.917500", "144459.407500", "144500.897500", "144502.387500", "144503.877500", "144505.367500", "144506.857500", "144508.347500", "144509.837500", "144511.327500", "144512.817500", "144514.307500", "144515.797500", "144517.287500", "144518.777500", "144520.267500", "144521.757500", "144523.247500", "144524.737500", "144526.227500", "144527.717500", "144529.207500", "144530.697500", "144532.187500", "144533.677500", "144535.167500", "144536.657500", "144538.147500", "144539.637500", "144541.127500", "144542.617500", "144544.107500", "144545.597500", "144547.087500", "144548.577500", "144550.067500", "144551.557500", "144553.047500", "144554.537500", "144556.027500", "144557.517500", "144559.007500", "144600.497500", "144601.987500", "144603.477500", "144604.967500", "144606.457500", "144607.947500", "144609.437500", "144610.927500", "144612.417500", "144613.907500", "144615.397500", "144616.887500", "144618.377500", "144619.867500", "144621.357500", "144622.847500", "144624.337500", "144625.827500", "144627.317500", "144628.807500", "144630.297500", "144631.787500", "144633.277500", "144634.767500", "144636.257500", "144637.747500", "144639.237500", "144640.727500", "144642.217500", "144643.707500", "144645.197500", "144646.687500", "144648.177500", "144649.667500", "144651.157500", "144652.647500", "144654.137500", "144655.627500", "144657.117500", "144658.607500", "144700.097500", "144701.587500", "144703.077500", "144704.567500", "144706.057500", "144707.547500", "144709.037500", "144710.527500", "144712.017500", "144713.507500", "144714.997500", "144716.487500", "144717.977500", "144719.467500", "144720.957500", "144722.447500", "144723.937500", "144725.427500", "144726.917500", "144728.407500", "144729.897500", "144731.387500", "144732.877500", "144734.367500", "144735.857500", "144737.347500", "144738.837500", "144740.327500", "144741.817500", "144743.307500", "144744.797500", "144746.287500", "144747.777500", "144749.267500", "144750.757500", "144752.247500", "144753.737500", "144755.227500", "144756.717500", "144758.207500", "144759.697500", "144801.187500", "144802.677500", "144804.167500", "144805.657500", "144807.147500", "144808.637500", "144810.127500", "144811.617500", "144813.107500", "144814.597500", "144816.087500", "144817.577500", "144819.067500", "144820.557500", "144822.047500", "144823.537500", "144825.027500", "144826.517500", "144828.007500", "144829.497500", "144830.987500", "144832.477500", "144833.967500", "144835.457500", "144836.947500", "144838.437500", "144839.927500", "144841.417500", "144842.907500", "144844.397500", "144845.887500", "144847.377500", "144848.867500", "144850.357500", "144851.847500", "144853.337500", "144854.827500", "144856.317500", "144857.807500", "144859.297500", "144900.787500", "144902.277500", "144903.767500", "144905.257500", "144906.747500", "144908.237500", "144909.727500", "144911.217500", "144912.707500", "144914.197500", "144915.687500", "144917.177500", "144918.667500", "144920.157500", "144921.647500", "144923.137500", "144924.627500", "144926.117500", "144927.607500", "144929.097500", "144930.587500", "144932.077500", "144933.567500", "144935.057500", "144936.547500", "144938.037500", "144939.527500", "144941.017500", "144942.507500", "144943.997500", "144945.487500", "144946.977500", "144948.467500", "144949.957500", "144951.447500", "144952.937500", "144954.427500", "144955.917500", "144957.407500", "144958.897500", "145000.387500"],
      "ContentTime": ["144005.048000", "144005.051000", "144005.054000", "144005.057000", "144005.060000", "144005.063000", "144005.066000", "144005.069000", "144005.072000", "144005.074000", "144005.077000", "144005.080000", "144005.083000", "144005.086000", "144005.097000", "144005.100000", "144005.103000", "144005.106000", "144005.114000", "144005.117000", "144005.119000", "144005.122000", "144005.125000", "144025.012000", "144025.015000", "144025.018000", "144025.021000", "144025.024000", "144025.027000", "144025.030000", "144025.033000", "144025.035000", "144025.038000", "144025.041000", "144025.044000", "144025.047000", "144025.050000", "144025.053000", "144025.056000", "144025.059000", "144025.062000", "144025.064000", "144025.067000", "144045.012000", "144045.015000", "144045.018000", "144045.023000", "144045.026000", "144045.029000", "144045.031000", "144045.034000", "144045.037000", "144045.040000", "144045.043000", "144045.046000", "144045.049000", "144045.052000", "144045.055000", "144045.058000", "144045.060000", "144045.069000", "144045.072000", "144045.075000", "144045.078000", "144105.012000", "144105.015000", "144105.018000", "144105.021000", "144105.024000", "144105.027000", "144105.029000", "144105.032000", "144105.035000", "144105.038000", "144105.041000", "144105.044000", "144105.047000", "144105.050000", "144105.053000", "144105.056000", "144105.059000", "144105.062000", "144105.064000", "144105.067000", "144125.011000", "144125.014000", "144125.017000", "144125.020000", "144125.023000", "144125.026000", "144125.028000", "144125.031000", "144125.034000", "144125.037000", "144125.040000", "144125.043000", "144125.046000", "144125.049000", "144125.052000", "144125.054000", "144125.057000", "144125.060000", "144125.063000", "144125.066000", "144205.011000", "144205.014000", "144205.022000", "144205.025000", "144205.028000", "144205.030000", "144205.033000", "144205.036000", "144205.039000", "144205.042000", "144205.045000", "144205.048000", "144205.051000", "144205.054000", "144205.057000", "144205.060000", "144205.062000", "144205.065000", "144205.068000", "144205.071000", "144205.074000", "144205.077000", "144205.080000", "144205.083000", "144205.086000", "144205.088000", "144205.092000", "144205.094000", "144205.097000", "144245.012000", "144245.015000", "144245.018000", "144245.021000", "144245.024000", "144245.027000", "144245.030000", "144245.033000", "144245.035000", "144245.038000", "144245.041000", "144245.044000", "144245.047000", "144245.050000", "144245.053000", "144245.056000", "144245.059000", "144245.062000", "144245.064000", "144245.068000", "144245.070000", "144245.073000", "144245.076000", "144245.079000", "144245.082000", "144245.085000", "144245.088000", "144325.012000", "144325.015000", "144325.018000", "144325.021000", "144325.024000", "144325.027000", "144325.030000", "144325.033000", "144325.036000", "144325.039000", "144325.042000", "144325.045000", "144325.048000", "144325.051000", "144325.054000", "144325.056000", "144325.060000", "144325.062000", "144325.065000", "144325.068000", "144325.071000", "144325.074000", "144325.077000", "144325.080000", "144325.083000", "144325.086000", "144405.011000", "144405.014000", "144405.017000", "144405.020000", "144405.023000", "144405.026000", "144405.029000", "144405.031000", "144405.035000", "144405.037000", "144405.040000", "144405.043000", "144405.046000", "144405.049000", "144405.065000", "144405.068000", "144405.071000", "144405.074000", "144405.077000", "144405.080000", "144405.083000", "144405.086000", "144405.089000", "144405.092000", "144405.095000", "144405.098000", "144405.100000", "144445.011000", "144445.014000", "144445.017000", "144445.020000", "144445.023000", "144445.026000", "144445.029000", "144445.032000", "144445.035000", "144445.038000", "144445.041000", "144445.044000", "144445.046000", "144445.049000", "144445.052000", "144445.055000", "144445.058000", "144445.061000", "144445.064000", "144445.067000", "144445.070000", "144445.073000", "144445.076000", "144445.079000", "144445.082000", "144445.085000", "144445.088000", "144525.012000", "144525.015000", "144525.018000", "144525.021000", "144525.024000", "144525.027000", "144525.030000", "144525.033000", "144525.036000", "144525.039000", "144525.042000", "144525.044000", "144525.047000", "144525.050000", "144525.053000", "144525.056000", "144525.059000", "144525.062000", "144525.065000", "144525.068000", "144525.071000", "144525.074000", "144525.077000", "144525.080000", "144525.083000", "144525.085000", "144525.089000", "144605.011000", "144605.014000", "144605.017000", "144605.020000", "144605.023000", "144605.026000", "144605.029000", "144605.032000", "144605.035000", "144605.038000", "144605.041000", "144605.043000", "144605.046000", "144605.049000", "144605.052000", "144605.055000", "144605.058000", "144605.061000", "144605.064000", "144605.067000", "144605.070000", "144605.073000", "144605.076000", "144605.079000", "144605.081000", "144605.084000", "144605.087000", "144645.011000", "144645.014000", "144645.017000", "144645.020000", "144645.023000", "144645.026000", "144645.029000", "144645.032000", "144645.035000", "144645.038000", "144645.040000", "144645.043000", "144645.046000", "144645.049000", "144645.052000", "144645.055000", "144645.058000", "144645.061000", "144645.064000", "144645.067000", "144645.070000", "144645.073000", "144645.076000", "144645.079000", "144645.082000", "144645.084000", "144645.087000", "144725.012000", "144725.015000", "144725.018000", "144725.021000", "144725.024000", "144725.027000", "144725.030000", "144725.033000", "144725.036000", "144725.038000", "144725.041000", "144725.044000", "144725.047000", "144725.050000", "144725.053000", "144725.056000", "144725.059000", "144725.062000", "144725.065000", "144725.068000", "144725.071000", "144725.074000", "144725.077000", "144725.080000", "144725.083000", "144725.085000", "144725.088000", "144805.011000", "144805.014000", "144805.017000", "144805.020000", "144805.023000", "144805.026000", "144805.029000", "144805.032000", "144805.035000", "144805.038000", "144805.040000", "144805.043000", "144805.046000", "144805.049000", "144805.052000", "144805.055000", "144805.067000", "144805.070000", "144805.073000", "144805.076000", "144805.084000", "144805.087000", "144805.090000", "144805.093000", "144805.096000", "144805.099000", "144845.011000", "144845.025000", "144845.028000", "144845.031000", "144845.034000", "144845.037000", "144845.040000", "144845.043000", "144845.046000", "144845.049000", "144845.057000", "144845.060000", "144845.063000", "144845.066000", "144845.069000", "144845.072000", "144845.075000", "144845.078000", "144845.080000", "144845.083000", "144845.086000", "144845.089000", "144845.092000", "144845.095000", "144845.098000", "144845.101000", "144845.104000", "144925.011000", "144925.014000", "144925.017000", "144925.020000", "144925.023000", "144925.026000", "144925.029000", "144925.032000", "144925.035000", "144925.038000", "144925.040000", "144925.043000", "144925.046000", "144925.049000", "144925.052000", "144925.055000", "144925.058000", "144925.061000", "144925.064000", "144925.067000", "144925.070000", "144925.073000", "144925.076000", "144925.079000", "144925.081000", "144925.084000", "144925.087000", "145002.959000", "145002.962000", "145002.965000", "145002.968000", "145002.971000", "145002.974000", "145002.977000", "145002.980000", "145002.983000", "145002.986000", "145002.988000", "145002.991000", "145002.994000", "145002.997000", "145003.001000", "145003.004000", "145003.007000", "145003.010000", "145003.013000", "145003.016000", "145003.019000", "145003.022000", "145003.025000", "145003.028000", "145003.031000", "145003.034000"],
