{
  "AcquisitionMatrixPE": 104,
  "AcquisitionNumber": 1,
  "AcquisitionTime": "14:14:14.482500",
  "BandwidthPerPixelPhaseEncode": 17.17,
  "BaseResolution": 104,
  "BodyPartExamined": "BRAIN",
  "CoilString": "HC1-7;NC1_2",
  "ConsistencyInfo": "N4_VE11C_LATEST_20160120",
  "ConversionSoftware": "dcm2niix",
  "ConversionSoftwareVersion": "v1.0.20200427",
  "DerivedVendorReportedEchoSpacing": 0.000560011,
  "DeviceSerialNumber": "167006",
  "DwellTime": 2.1e-06,
  "EchoTime": 0.037,
  "EchoTrainLength": 104,
  "EffectiveEchoSpacing": 0.000560011,
  "FlipAngle": 52,
  "ImageComments": "Unaliased_MB4_PE3_LB",
  "ImageOrientationPatientDICOM": [0.999538, -0.0295237, 0.00716354, 0.030364, 0.9631, -0.267426],
  "ImageType": [
    "ORIGINAL",
    "PRIMARY",
    "M",
    "MB",
    "ND",
    "MOSAIC"
],
  "ImagingFrequency": 123.259,
  "InPlanePhaseEncodingDirectionDICOM": "COL",
  "InstitutionAddress": "Chemin_Queen-Mary_4565_Montreal_District_CA_H3W_1W5",
  "InstitutionName": "IUGM",
  "InstitutionalDepartmentName": "Department",
  "MRAcquisitionType": "2D",
  "MagneticFieldStrength": 3,
  "Manufacturer": "Siemens",
  "ManufacturersModelName": "Prisma_fit",
  "Modality": "MR",
  "MultibandAccelerationFactor": 4,
  "PartialFourier": 1,
  "PatientPosition": "HFS",
  "PercentPhaseFOV": 100,
  "PercentSampling": 100,
  "PhaseEncodingDirection": "j",
  "PhaseEncodingSteps": 104,
  "PhaseResolution": 1,
  "PixelBandwidth": 2290,
  "ProcedureStepDescription": "video_friends",
  "ProtocolName": "func_task-friends-s03e02b",
  "PulseSequenceDetails": "%CustomerSeq%_cmrr_mbep2d_bold",
  "ReceiveCoilActiveElements": "HC1-7;NC1,2",
  "ReceiveCoilName": "HeadNeck_64",
  "ReconMatrixPE": 104,
  "RepetitionTime": 1.49,
  "SAR": 0.0293555,
  "ScanOptions": "FS",
  "ScanningSequence": "EP",
  "SequenceName": "epfid2d1_104",
  "SequenceVariant": "SK_SS",
  "SeriesDescription": "func_task-friends-s03e02b",
  "SeriesNumber": 11,
  "ShimSetting": [627, -7214, -8814, 734, 9, -23, 28, 11],
  "SliceThickness": 2,
  "SliceTiming": [0, 0.785, 0.0975, 0.8825, 0.195, 0.98, 0.295, 1.0775, 0.3925, 1.175, 0.49, 1.275, 0.5875, 1.3725, 0.685, 0, 0.785, 0.0975, 0.8825, 0.195, 0.98, 0.295, 1.0775, 0.3925, 1.175, 0.49, 1.275, 0.5875, 1.3725, 0.685, 0, 0.785, 0.0975, 0.8825, 0.195, 0.98, 0.295, 1.0775, 0.3925, 1.175, 0.49, 1.275, 0.5875, 1.3725, 0.685, 0, 0.785, 0.0975, 0.8825, 0.195, 0.98, 0.295, 1.0775, 0.3925, 1.175, 0.49, 1.275, 0.5875, 1.3725, 0.685],
  "SoftwareVersions": "syngo_MR_E11",
  "SpacingBetweenSlices": 2,
  "StationName": "MRC35049",
  "TaskName": "s03e02b",
  "TotalReadoutTime": 0.0576811,
  "TxRefAmp": 205.261,
  "WipMemBlock": "a8f2af13-ee94-487c-9681-ef45c6214964||Sequence: R016 ve11c/master r/e634e98; Dec 19 2017 11:00:25 by eja",
  "dcmmeta_affine": [
    [-1.9990768432617188, 0.06072801724076271, -0.001992423553019762, 101.78697967529297],
    [0.05904741212725639, 1.9261996746063232, -0.535040557384491, -85.85888671875],
    [0.014327073469758034, 0.5348524451255798, 1.9271034002304077, -63.57805633544922],
    [0.0, 0.0, 0.0, 1.0]
],
  "dcmmeta_reorient_transform": [
    [0.0, -1.0, 0.0, 103.0],
    [1.0, 0.0, 0.0, 0.0],
    [0.0, 0.0, 1.0, 0.0],
    [0.0, 0.0, 0.0, 1.0]
],
  "dcmmeta_shape": [104, 104, 60, 475],
  "dcmmeta_slice_dim": 2,
  "dcmmeta_version": 0.6,
  "global": {
    "const": {
      "AcquisitionMatrix": [104, 0, 0, 104],
      "AngioFlag": "N",
      "BitsAllocated": 16,
      "BitsStored": 16,
      "BodyPartExamined": "BRAIN",
      "Columns": 832,
      "EchoNumbers": 1,
      "EchoTime": 37.0,
      "EchoTrainLength": 104,
      "FlipAngle": 52.0,
      "HighBit": 15,
      "ImageOrientationPatient": [0.99953841072706, -0.0295237060656, 0.00716353693255, 0.03036400901119, 0.96309981192515, -0.2674262126765],
      "ImagePositionPatient": [-857.81093020755, -792.18307779609, 180.98296989452],
      "ImageType": [
        "ORIGINAL",
        "PRIMARY",
        "M",
        "MB",
        "ND",
        "MOSAIC"
],
      "ImagedNucleus": "1H",
      "ImagingFrequency": 123.25908,
      "InPlanePhaseEncodingDirection": "COL",
      "MRAcquisitionType": "2D",
      "MagneticFieldStrength": 3.0,
      "Manufacturer": "SIEMENS",
      "ManufacturerModelName": "Prisma_fit",
      "Modality": "MR",
      "NumberOfAverages": 1.0,
      "NumberOfPhaseEncodingSteps": 104,
      "PercentPhaseFieldOfView": 100.0,
      "PercentSampling": 100.0,
      "PerformedProcedureStepStartTime": "133020.157000",
      "PhotometricInterpretation": "MONOCHROME2",
      "PixelBandwidth": 2290.0,
      "PixelRepresentation": 0,
      "PixelSpacing": [2.0, 2.0],
      "ProtocolName": "func_task-friends-s03e02b",
      "RepetitionTime": 1490.0,
      "Rows": 832,
      "SAR": 0.02935546542557,
      "SamplesPerPixel": 1,
      "ScanOptions": "FS",
      "ScanningSequence": "EP",
      "SequenceName": "epfid2d1_104",
      "SequenceVariant": [
        "SK",
        "SS"
],
      "SeriesDescription": "func_task-friends-s03e02b",
      "SeriesNumber": 11,
      "SeriesTime": "141540.574000",
      "SliceLocation": -38.393153629301,
      "SliceThickness": 2.0,
      "SmallestImagePixelValue": 0,
      "SoftwareVersions": "syngo MR E11",
      "SpacingBetweenSlices": 1.9999999750287,
      "SpecificCharacterSet": "ISO_IR 100",
      "StudyID": "1",
      "StudyTime": "133020.063000",
      "TransmitCoilName": "Body",
      "VariableFlipAngleFlag": "N",
      "WindowCenterWidthExplanation": "Algo1",
      "dBdt": 0.0},
    "slices": {}
  },
  "time": {
    "samples": {
      "AcquisitionNumber": [1, 2, 3, 4, 5, 6, 7, 8, 9, 10, 11, 12, 13, 14, 15, 16, 17, 18, 19, 20, 21, 22, 23, 24, 25, 26, 27, 28, 29, 30, 31, 32, 33, 34, 35, 36, 37, 38, 39, 40, 41, 42, 43, 44, 45, 46, 47, 48, 49, 50, 51, 52, 53, 54, 55, 56, 57, 58, 59, 60, 61, 62, 63, 64, 65, 66, 67, 68, 69, 70, 71, 72, 73, 74, 75, 76, 77, 78, 79, 80, 81, 82, 83, 84, 85, 86, 87, 88, 89, 90, 91, 92, 93, 94, 95, 96, 97, 98, 99, 100, 101, 102, 103, 104, 105, 106, 107, 108, 109, 110, 111, 112, 113, 114, 115, 116, 117, 118, 119, 120, 121, 122, 123, 124, 125, 126, 127, 128, 129, 130, 131, 132, 133, 134, 135, 136, 137, 138, 139, 140, 141, 142, 143, 144, 145, 146, 147, 148, 149, 150, 151, 152, 153, 154, 155, 156, 157, 158, 159, 160, 161, 162, 163, 164, 165, 166, 167, 168, 169, 170, 171, 172, 173, 174, 175, 176, 177, 178, 179, 180, 181, 182, 183, 184, 185, 186, 187, 188, 189, 190, 191, 192, 193, 194, 195, 196, 197, 198, 199, 200, 201, 202, 203, 204, 205, 206, 207, 208, 209, 210, 211, 212, 213, 214, 215, 216, 217, 218, 219, 220, 221, 222, 223, 224, 225, 226, 227, 228, 229, 230, 231, 232, 233, 234, 235, 236, 237, 238, 239, 240, 241, 242, 243, 244, 245, 246, 247, 248, 249, 250, 251, 252, 253, 254, 255, 256, 257, 258, 259, 260, 261, 262, 263, 264, 265, 266, 267, 268, 269, 270, 271, 272, 273, 274, 275, 276, 277, 278, 279, 280, 281, 282, 283, 284, 285, 286, 287, 288, 289, 290, 291, 292, 293, 294, 295, 296, 297, 298, 299, 300, 301, 302, 303, 304, 305, 306, 307, 308, 309, 310, 311, 312, 313, 314, 315, 316, 317, 318, 319, 320, 321, 322, 323, 324, 325, 326, 327, 328, 329, 330, 331, 332, 333, 334, 335, 336, 337, 338, 339, 340, 341, 342, 343, 344, 345, 346, 347, 348, 349, 350, 351, 352, 353, 354, 355, 356, 357, 358, 359, 360, 361, 362, 363, 364, 365, 366, 367, 368, 369, 370, 371, 372, 373, 374, 375, 376, 377, 378, 379, 380, 381, 382, 383, 384, 385, 386, 387, 388, 389, 390, 391, 392, 393, 394, 395, 396, 397, 398, 399, 400, 401, 402, 403, 404, 405, 406, 407, 408, 409, 410, 411, 412, 413, 414, 415, 416, 417, 418, 419, 420, 421, 422, 423, 424, 425, 426, 427, 428, 429, 430, 431, 432, 433, 434, 435, 436, 437, 438, 439, 440, 441, 442, 443, 444, 445, 446, 447, 448, 449, 450, 451, 452, 453, 454, 455, 456, 457, 458, 459, 460, 461, 462, 463, 464, 465, 466, 467, 468, 469, 470, 471, 472, 473, 474, 475],
      "AcquisitionTime": ["141414.482500", "141415.972500", "141417.462500", "141418.952500", "141420.442500", "141421.932500", "141423.422500", "141424.912500", "141426.402500", "141427.892500", "141429.382500", "141430.872500", "141432.362500", "141433.852500", "141435.342500", "141436.832500", "141438.322500", "141439.812500", "141441.302500", "141442.792500", "141444.282500", "141445.772500", "141447.262500", "141448.752500", "141450.242500", "141451.732500", "141453.222500", "141454.712500", "141456.202500", "141457.692500", "141459.182500", "141500.672500", "141502.162500", "141503.652500", "141505.142500", "141506.632500", "141508.122500", "141509.612500", "141511.102500", "141512.592500", "141514.082500", "141515.572500", "141517.062500", "141518.552500", "141520.042500", "141521.532500", "141523.022500", "141524.512500", "141526.002500", "141527.492500", "141528.982500", "141530.472500", "141531.962500", "141533.452500", "141534.942500", "141536.432500", "141537.922500", "141539.412500", "141540.902500", "141542.392500", "141543.882500", "141545.372500", "141546.862500", "141548.352500", "141549.842500", "141551.332500", "141552.822500", "141554.312500", "141555.802500", "141557.292500", "141558.782500", "141600.272500", "141601.762500", "141603.252500", "141604.742500", "141606.232500", "141607.722500", "141609.212500", "141610.702500", "141612.192500", "141613.682500", "141615.172500", "141616.662500", "141618.152500", "141619.642500", "141621.132500", "141622.622500", "141624.112500", "141625.602500", "141627.092500", "141628.582500", "141630.072500", "141631.562500", "141633.052500", "141634.542500", "141636.032500", "141637.522500", "141639.012500", "141640.502500", "141641.992500", "141643.482500", "141644.972500", "141646.462500", "141647.952500", "141649.442500", "141650.932500", "141652.422500", "141653.912500", "141655.402500", "141656.892500", "141658.382500", "141659.872500", "141701.362500", "141702.852500", "141704.342500", "141705.832500", "141707.322500", "141708.812500", "141710.302500", "141711.792500", "141713.282500", "141714.772500", "141716.262500", "141717.752500", "141719.242500", "141720.732500", "141722.222500", "141723.712500", "141725.202500", "141726.692500", "141728.182500", "141729.672500", "141731.162500", "141732.652500", "141734.142500", "141735.632500", "141737.122500", "141738.612500", "141740.102500", "141741.592500", "141743.082500", "141744.572500", "141746.062500", "141747.552500", "141749.042500", "141750.532500", "141752.022500", "141753.512500", "141755.002500", "141756.492500", "141757.982500", "141759.472500", "141800.962500", "141802.452500", "141803.942500", "141805.432500", "141806.922500", "141808.412500", "141809.902500", "141811.392500", "141812.882500", "141814.372500", "141815.862500", "141817.352500", "141818.842500", "141820.332500", "141821.822500", "141823.312500", "141824.802500", "141826.292500", "141827.782500", "141829.272500", "141830.762500", "141832.252500", "141833.742500", "141835.232500", "141836.722500", "141838.212500", "141839.702500", "141841.192500", "141842.682500", "141844.172500", "141845.662500", "141847.152500", "141848.642500", "141850.132500", "141851.622500", "141853.112500", "141854.602500", "141856.092500", "141857.582500", "141859.072500", "141900.562500", "141902.052500", "141903.542500", "141905.032500", "141906.522500", "141908.012500", "141909.502500", "141910.992500", "141912.482500", "141913.972500", "141915.462500", "141916.952500", "141918.442500", "141919.932500", "141921.422500", "141922.912500", "141924.402500", "141925.892500", "141927.382500", "141928.872500", "141930.362500", "141931.852500", "141933.342500", "141934.832500", "141936.322500", "141937.812500", "141939.302500", "141940.792500", "141942.282500", "141943.772500", "141945.262500", "141946.752500", "141948.242500", "141949.732500", "141951.222500", "141952.712500", "141954.202500", "141955.692500", "141957.182500", "141958.672500", "142000.162500", "142001.652500", "142003.142500", "142004.632500", "142006.122500", "142007.612500", "142009.102500", "142010.592500", "142012.082500", "142013.572500", "142015.062500", "142016.552500", "142018.042500", "142019.532500", "142021.022500", "142022.512500", "142024.002500", "142025.492500", "142026.982500", "142028.472500", "142029.962500", "142031.452500", "142032.942500", "142034.432500", "142035.922500", "142037.412500", "142038.902500", "142040.392500", "142041.882500", "142043.372500", "142044.862500", "142046.352500", "142047.842500", "142049.332500", "142050.822500", "142052.312500", "142053.802500", "142055.292500", "142056.782500", "142058.272500", "142059.762500", "142101.252500", "142102.742500", "142104.232500", "142105.722500", "142107.212500", "142108.702500", "142110.192500", "142111.682500", "142113.172500", "142114.662500", "142116.152500", "142117.642500", "142119.132500", "142120.622500", "142122.112500", "142123.602500", "142125.092500", "142126.582500", "142128.072500", "142129.562500", "142131.052500", "142132.542500", "142134.032500", "142135.522500", "142137.012500", "142138.502500", "142139.992500", "142141.482500", "142142.972500", "142144.462500", "142145.952500", "142147.442500", "142148.932500", "142150.422500", "142151.912500", "142153.402500", "142154.892500", "142156.382500", "142157.872500", "142159.362500", "142200.852500", "142202.342500", "142203.832500", "142205.322500", "142206.812500", "142208.302500", "142209.792500", "142211.282500", "142212.772500", "142214.262500", "142215.752500", "142217.242500", "142218.732500", "142220.222500", "142221.712500", "142223.202500", "142224.692500", "142226.182500", "142227.672500", "142229.162500", "142230.652500", "142232.142500", "142233.632500", "142235.122500", "142236.612500", "142238.102500", "142239.592500", "142241.082500", "142242.572500", "142244.062500", "142245.552500", "142247.042500", "142248.532500", "142250.022500", "142251.512500", "142253.002500", "142254.492500", "142255.982500", "142257.472500", "142258.962500", "142300.452500", "142301.942500", "142303.432500", "142304.922500", "142306.412500", "142307.902500", "142309.392500", "142310.882500", "142312.372500", "142313.862500", "142315.352500", "142316.842500", "142318.332500", "142319.822500", "142321.312500", "142322.802500", "142324.292500", "142325.782500", "142327.272500", "142328.762500", "142330.252500", "142331.742500", "142333.232500", "142334.722500", "142336.212500", "142337.702500", "142339.192500", "142340.682500", "142342.172500", "142343.662500", "142345.152500", "142346.642500", "142348.132500", "142349.622500", "142351.112500", "142352.602500", "142354.092500", "142355.582500", "142357.072500", "142358.562500", "142400.052500", "142401.542500", "142403.032500", "142404.522500", "142406.012500", "142407.502500", "142408.992500", "142410.482500", "142411.972500", "142413.462500", "142414.952500", "142416.442500", "142417.932500", "142419.422500", "142420.912500", "142422.402500", "142423.892500", "142425.382500", "142426.872500", "142428.362500", "142429.852500", "142431.342500", "142432.832500", "142434.322500", "142435.812500", "142437.302500", "142438.792500", "142440.282500", "142441.772500", "142443.262500", "142444.752500", "142446.242500", "142447.732500", "142449.222500", "142450.712500", "142452.202500", "142453.692500", "142455.182500", "142456.672500", "142458.162500", "142459.652500", "142501.142500", "142502.632500", "142504.122500", "142505.612500", "142507.102500", "142508.592500", "142510.082500", "142511.572500", "142513.062500", "142514.552500", "142516.042500", "142517.532500", "142519.022500", "142520.512500", "142522.002500", "142523.492500", "142524.982500", "142526.472500", "142527.962500", "142529.452500", "142530.942500", "142532.432500", "142533.922500", "142535.412500", "142536.902500", "142538.392500", "142539.882500", "142541.372500", "142542.862500", "142544.352500", "142545.842500", "142547.332500", "142548.822500", "142550.312500", "142551.802500", "142553.292500", "142554.782500", "142556.272500", "142557.762500", "142559.252500", "142600.742500"],
      "ContentTime": ["141540.577000", "141540.580000", "141540.584000", "141540.587000", "141540.599000", "141540.601000", "141540.604000", "141540.607000", "141540.610000", "141540.613000", "141540.616000", "141540.619000", "141540.622000", "141540.625000", "141540.628000", "141540.631000", "141540.633000", "141540.636000", "141540.639000", "141540.642000", "141540.645000", "141540.648000", "141540.651000", "141540.657000", "141540.660000", "141540.663000", "141540.666000", "141540.669000", "141540.672000", "141540.675000", "141540.678000", "141600.545000", "141600.548000", "141600.551000", "141600.554000", "141600.557000", "141600.560000", "141600.563000", "141600.566000", "141600.569000", "141600.572000", "141600.575000", "141600.577000", "141600.580000", "141600.583000", "141600.586000", "141600.589000", "141600.592000", "141600.595000", "141600.598000", "141600.601000", "141620.545000", "141620.548000", "141620.552000", "141620.554000", "141620.579000", "141620.582000", "141620.585000", "141620.588000", "141620.591000", "141620.594000", "141620.597000", "141620.599000", "141620.602000", "141620.605000", "141620.608000", "141620.611000", "141620.614000", "141620.617000", "141620.620000", "141620.623000", "141640.545000", "141640.548000", "141640.551000", "141640.554000", "141640.557000", "141640.560000", "141640.563000", "141640.565000", "141640.569000", "141640.571000", "141640.574000", "141640.577000", "141640.580000", "141640.583000", "141640.586000", "141640.589000", "141640.592000", "141640.595000", "141640.597000", "141640.600000", "141640.603000", "141720.544000", "141720.547000", "141720.550000", "141720.553000", "141720.556000", "141720.559000", "141720.562000", "141720.565000", "141720.568000", "141720.570000", "141720.573000", "141720.577000", "141720.579000", "141720.582000", "141720.585000", "141720.588000", "141720.591000", "141720.594000", "141720.597000", "141720.600000", "141720.603000", "141720.605000", "141720.608000", "141720.611000", "141720.614000", "141720.617000", "141720.620000", "141720.623000", "141720.626000", "141720.629000", "141720.631000", "141720.634000", "141800.545000", "141800.548000", "141800.551000", "141800.554000", "141800.557000", "141800.560000", "141800.563000", "141800.566000", "141800.568000", "141800.572000", "141800.574000", "141800.577000", "141800.580000", "141800.583000", "141800.586000", "141800.589000", "141800.592000", "141800.595000", "141800.598000", "141800.601000", "141800.604000", "141800.606000", "141800.609000", "141800.612000", "141800.615000", "141800.618000", "141800.621000", "141840.545000", "141840.548000", "141840.551000", "141840.554000", "141840.557000", "141840.560000", "141840.563000", "141840.566000", "141840.569000", "141840.571000", "141840.574000", "141840.577000", "141840.580000", "141840.583000", "141840.586000", "141840.589000", "141840.592000", "141840.595000", "141840.598000", "141840.601000", "141840.604000", "141840.606000", "141840.609000", "141840.612000", "141840.615000", "141840.618000", "141840.621000", "141920.544000", "141920.547000", "141920.550000", "141920.553000", "141920.556000", "141920.559000", "141920.562000", "141920.570000", "141920.572000", "141920.575000", "141920.578000", "141920.581000", "141920.584000", "141920.587000", "141920.590000", "141920.593000", "141920.596000", "141920.599000", "141920.602000", "141920.605000", "141920.608000", "141920.610000", "141920.624000", "141920.627000", "141920.630000", "141920.633000", "141920.636000", "142000.544000", "142000.547000", "142000.550000", "142000.553000", "142000.556000", "142000.559000", "142000.562000", "142000.565000", "142000.568000", "142000.571000", "142000.574000", "142000.577000", "142000.580000", "142000.583000", "142000.586000", "142000.589000", "142000.592000", "142000.594000", "142000.597000", "142000.600000", "142000.603000", "142000.606000", "142000.609000", "142000.612000", "142000.615000", "142000.618000", "142040.545000", "142040.548000", "142040.551000", "142040.554000", "142040.557000", "142040.560000", "142040.563000", "142040.566000", "142040.569000", "142040.572000", "142040.574000", "142040.577000", "142040.580000", "142040.583000", "142040.586000", "142040.589000", "142040.592000", "142040.595000", "142040.598000", "142040.600000", "142040.603000", "142040.606000", "142040.609000", "142040.612000", "142040.615000", "142040.618000", "142040.621000", "142120.545000", "142120.548000", "142120.551000", "142120.554000", "142120.557000", "142120.560000", "142120.563000", "142120.566000", "142120.569000", "142120.571000", "142120.574000", "142120.577000", "142120.580000", "142120.583000", "142120.586000", "142120.589000", "142120.592000", "142120.595000", "142120.598000", "142120.601000", "142120.604000", "142120.606000", "142120.609000", "142120.612000", "142120.615000", "142120.618000", "142120.621000", "142200.544000", "142200.547000", "142200.550000", "142200.553000", "142200.556000", "142200.559000", "142200.562000", "142200.565000", "142200.568000", "142200.571000", "142200.574000", "142200.582000", "142200.585000", "142200.588000", "142200.591000", "142200.594000", "142200.596000", "142200.599000", "142200.602000", "142200.605000", "142200.608000", "142200.611000", "142200.614000", "142200.617000", "142200.620000", "142200.623000", "142200.626000", "142240.545000", "142240.548000", "142240.551000", "142240.554000", "142240.557000", "142240.560000", "142240.563000", "142240.566000", "142240.569000", "142240.572000", "142240.575000", "142240.578000", "142240.580000", "142240.583000", "142240.586000", "142240.589000", "142240.592000", "142240.595000", "142240.598000", "142240.601000", "142240.604000", "142240.607000", "142240.610000", "142240.612000", "142240.615000", "142240.618000", "142240.621000", "142320.545000", "142320.548000", "142320.551000", "142320.554000", "142320.557000", "142320.560000", "142320.563000", "142320.566000", "142320.569000", "142320.572000", "142320.575000", "142320.578000", "142320.581000", "142320.584000", "142320.587000", "142320.590000", "142320.593000", "142320.596000", "142320.598000", "142320.601000", "142320.604000", "142320.607000", "142320.610000", "142320.613000", "142320.616000", "142320.619000", "142320.622000", "142400.544000", "142400.547000", "142400.550000", "142400.553000", "142400.556000", "142400.559000", "142400.562000", "142400.565000", "142400.567000", "142400.570000", "142400.573000", "142400.576000", "142400.579000", "142400.582000", "142400.585000", "142400.588000", "142400.591000", "142400.594000", "142400.597000", "142400.600000", "142400.602000", "142400.605000", "142400.624000", "142400.636000", "142400.638000", "142400.641000", "142400.644000", "142440.544000", "142440.547000", "142440.550000", "142440.553000", "142440.556000", "142440.559000", "142440.562000", "142440.565000", "142440.568000", "142440.571000", "142440.574000", "142440.576000", "142440.579000", "142440.582000", "142440.585000", "142440.588000", "142440.591000", "142440.594000", "142440.597000", "142440.600000", "142440.603000", "142440.606000", "142440.609000", "142440.612000", "142440.615000", "142440.617000", "142520.545000", "142520.548000", "142520.551000", "142520.554000", "142520.557000", "142520.560000", "142520.563000", "142520.566000", "142520.569000", "142520.572000", "142520.575000", "142520.577000", "142520.580000", "142520.583000", "142520.586000", "142520.589000", "142520.592000", "142520.595000", "142520.598000", "142520.601000", "142520.604000", "142520.607000", "142520.609000", "142520.612000", "142520.615000", "142520.618000", "142520.621000", "142600.545000", "142600.548000", "142600.551000", "142600.554000", "142600.557000", "142600.560000", "142600.563000", "142600.566000", "142600.569000", "142600.572000", "142600.575000", "142600.578000", "142600.581000", "142600.583000", "142600.586000", "142600.589000", "142600.592000", "142600.595000", "142600.598000", "142600.601000", "142600.604000", "142600.607000", "142600.610000", "142600.613000", "142600.616000", "142600.618000", "142600.621000", "142602.757000", "142602.760000"],
