{
  "AcquisitionMatrixPE": 104,
  "AcquisitionNumber": 1,
  "AcquisitionTime": "11:24:49.345000",
  "BandwidthPerPixelPhaseEncode": 17.17,
  "BaseResolution": 104,
  "BodyPartExamined": "BRAIN",
  "CoilCombinationMethod": "Sum of Squares",
  "ConsistencyInfo": "N4_VE11C_LATEST_20160120",
  "ConversionSoftware": "dcm2niix",
  "ConversionSoftwareVersion": "v1.0.20230411",
  "DerivedVendorReportedEchoSpacing": 0.000560011,
  "DeviceSerialNumber": "167006",
  "DwellTime": 2.1e-06,
  "EchoTime": 0.037,
  "EchoTrainLength": 104,
  "EffectiveEchoSpacing": 0.000560011,
  "FlipAngle": 52,
  "HeudiconvVersion": "0.5.3.post861+ge7d3c7f",
  "ImageComments": "Unaliased MB4/PE3/LB",
  "ImageOrientationPatientDICOM": [0.999878, -0.00406638, -0.01508, -0.000174534, 0.962544, -0.271126],
  "ImageOrientationText": "Tra>Cor(-15.7)>Sag(-0.9)",
  "ImageType": [
    "ORIGINAL",
    "PRIMARY",
    "M",
    "MB",
    "ND",
    "MOSAIC"
],
  "ImagingFrequency": 123.249903,
  "InPlanePhaseEncodingDirectionDICOM": "COL",
  "InstitutionAddress": "Chemin Queen-Mary 4565,Montreal,District,CA,H3W 1W5",
  "InstitutionName": "IUGM",
  "InstitutionalDepartmentName": "Department",
  "MRAcquisitionType": "2D",
  "MagneticFieldStrength": 3,
  "Manufacturer": "Siemens",
  "ManufacturersModelName": "Prisma_fit",
  "MatrixCoilMode": "SENSE",
  "Modality": "MR",
  "MultibandAccelerationFactor": 4,
  "NonlinearGradientCorrection": false,
  "PartialFourier": 1,
  "PatientPosition": "HFS",
  "PercentPhaseFOV": 100,
  "PercentSampling": 100,
  "PhaseEncodingDirection": "j",
  "PhaseEncodingSteps": 104,
  "PhaseResolution": 1,
  "PixelBandwidth": 2290,
  "ProcedureStepDescription": "video^friends",
  "ProtocolName": "func_task-friends-s07e12b",
  "PulseSequenceDetails": "%CustomerSeq%\\cmrr_mbep2d_bold",
  "ReceiveCoilActiveElements": "HC1-7;NC1,2",
  "ReceiveCoilName": "HeadNeck_64",
  "ReconMatrixPE": 104,
  "RepetitionTime": 1.49,
  "SAR": 0.0812455,
  "ScanOptions": "FS",
  "ScanningSequence": "EP",
  "SequenceName": "epfid2d1_104",
  "SequenceVariant": "SK\\SS",
  "SeriesDescription": "func_task-friends-s07e12b",
  "SeriesNumber": 10,
  "ShimSetting": [609, -7244, -8748, 655, 71, -14, -10, 55],
  "SliceThickness": 2,
  "SliceTiming": [0, 0.785, 0.0975, 0.8825, 0.195, 0.98, 0.295, 1.0775, 0.3925, 1.175, 0.49, 1.275, 0.5875, 1.3725, 0.685, 0, 0.785, 0.0975, 0.8825, 0.195, 0.98, 0.295, 1.0775, 0.3925, 1.175, 0.49, 1.275, 0.5875, 1.3725, 0.685, 0, 0.785, 0.0975, 0.8825, 0.195, 0.98, 0.295, 1.0775, 0.3925, 1.175, 0.49, 1.275, 0.5875, 1.3725, 0.685, 0, 0.785, 0.0975, 0.8825, 0.195, 0.98, 0.295, 1.0775, 0.3925, 1.175, 0.49, 1.275, 0.5875, 1.3725, 0.685],
  "SoftwareVersions": "syngo MR E11",
  "SpacingBetweenSlices": 2,
  "StationName": "MRC35049",
  "TaskName": "s07e12b",
  "TotalReadoutTime": 0.0576811,
  "TxRefAmp": 256.808,
  "WipMemBlock": "c8693824-a124-4e4e-acb8-4bb9fdc6e1a5||Sequence: R017 ve11c/master r/75a17815+; Jun 28 2022 16:32:11 by eja",
  "dcmmeta_affine": [
    [-1.999756097793579, -0.00034906892688013613, -0.031235378235578537, 106.21300506591797],
    [0.008132760412991047, 1.9250879287719727, -0.5421904921531677, -82.65321350097656],
    [-0.030160054564476013, 0.5422514081001282, 1.9248515367507935, -51.44511413574219],
    [0.0, 0.0, 0.0, 1.0]
],
  "dcmmeta_reorient_transform": [
    [0.0, -1.0, 0.0, 103.0],
    [1.0, 0.0, 0.0, 0.0],
    [0.0, 0.0, 1.0, 0.0],
    [0.0, 0.0, 0.0, 1.0]
],
  "dcmmeta_shape": [104, 104, 60, 486],
  "dcmmeta_slice_dim": 2,
  "dcmmeta_version": 0.6,
  "global": {
    "const": {
      "AcquisitionMatrix": [104, 0, 0, 104],
      "AngioFlag": "N",
      "BitsAllocated": 16,
      "BitsStored": 16,
      "BodyPartExamined": "BRAIN",
      "Columns": 832,
      "EchoNumbers": 1,
      "EchoTime": 37.0,
      "EchoTrainLength": 104,
      "FlipAngle": 52.0,
      "HighBit": 15,
      "ImageOrientationPatient": [0.99987802122129, -0.0040663802887, -0.0150800275181, -0.0001745344649, 0.96254393653597, -0.2711256899956],
      "ImagePositionPatient": [-833.96119101503, -813.40249881765, 212.76453918877],
      "ImageType": [
        "ORIGINAL",
        "PRIMARY",
        "M",
        "MB",
        "ND",
        "MOSAIC"
],
      "ImagedNucleus": "1H",
      "ImagingFrequency": 123.249903,
      "InPlanePhaseEncodingDirection": "COL",
      "MRAcquisitionType": "2D",
      "MagneticFieldStrength": 3.0,
      "Manufacturer": "SIEMENS",
      "ManufacturerModelName": "Prisma_fit",
      "Modality": "MR",
      "NumberOfAverages": 1.0,
      "NumberOfPhaseEncodingSteps": 104,
      "PercentPhaseFieldOfView": 100.0,
      "PercentSampling": 100.0,
      "PerformedProcedureStepStartTime": "111908.529000",
      "PhotometricInterpretation": "MONOCHROME2",
      "PixelBandwidth": 2290.0,
      "PixelRepresentation": 0,
      "PixelSpacing": [2.0, 2.0],
      "ProtocolName": "func_task-friends-s07e12b",
      "RepetitionTime": 1490.0,
      "Rows": 832,
      "SAR": 0.08124550527273,
      "SamplesPerPixel": 1,
      "ScanOptions": "FS",
      "ScanningSequence": "EP",
      "SequenceName": "epfid2d1_104",
      "SequenceVariant": [
        "SK",
        "SS"
],
      "SeriesDescription": "func_task-friends-s07e12b",
      "SeriesNumber": 10,
      "SeriesTime": "112608.640000",
      "SliceLocation": -28.764015357102,
      "SliceThickness": 2.0,
      "SmallestImagePixelValue": 0,
      "SoftwareVersions": "syngo MR E11",
      "SpacingBetweenSlices": 1.9999999548295,
      "SpecificCharacterSet": "ISO_IR 100",
      "StudyID": "1",
      "StudyTime": "111908.458000",
      "TransmitCoilName": "Body",
      "VariableFlipAngleFlag": "N",
      "WindowCenterWidthExplanation": "Algo1",
      "dBdt": 0.0},
    "slices": {}
  },
  "time": {
    "samples": {
      "AcquisitionNumber": [1, 2, 3, 4, 5, 6, 7, 8, 9, 10, 11, 12, 13, 14, 15, 16, 17, 18, 19, 20, 21, 22, 23, 24, 25, 26, 27, 28, 29, 30, 31, 32, 33, 34, 35, 36, 37, 38, 39, 40, 41, 42, 43, 44, 45, 46, 47, 48, 49, 50, 51, 52, 53, 54, 55, 56, 57, 58, 59, 60, 61, 62, 63, 64, 65, 66, 67, 68, 69, 70, 71, 72, 73, 74, 75, 76, 77, 78, 79, 80, 81, 82, 83, 84, 85, 86, 87, 88, 89, 90, 91, 92, 93, 94, 95, 96, 97, 98, 99, 100, 101, 102, 103, 104, 105, 106, 107, 108, 109, 110, 111, 112, 113, 114, 115, 116, 117, 118, 119, 120, 121, 122, 123, 124, 125, 126, 127, 128, 129, 130, 131, 132, 133, 134, 135, 136, 137, 138, 139, 140, 141, 142, 143, 144, 145, 146, 147, 148, 149, 150, 151, 152, 153, 154, 155, 156, 157, 158, 159, 160, 161, 162, 163, 164, 165, 166, 167, 168, 169, 170, 171, 172, 173, 174, 175, 176, 177, 178, 179, 180, 181, 182, 183, 184, 185, 186, 187, 188, 189, 190, 191, 192, 193, 194, 195, 196, 197, 198, 199, 200, 201, 202, 203, 204, 205, 206, 207, 208, 209, 210, 211, 212, 213, 214, 215, 216, 217, 218, 219, 220, 221, 222, 223, 224, 225, 226, 227, 228, 229, 230, 231, 232, 233, 234, 235, 236, 237, 238, 239, 240, 241, 242, 243, 244, 245, 246, 247, 248, 249, 250, 251, 252, 253, 254, 255, 256, 257, 258, 259, 260, 261, 262, 263, 264, 265, 266, 267, 268, 269, 270, 271, 272, 273, 274, 275, 276, 277, 278, 279, 280, 281, 282, 283, 284, 285, 286, 287, 288, 289, 290, 291, 292, 293, 294, 295, 296, 297, 298, 299, 300, 301, 302, 303, 304, 305, 306, 307, 308, 309, 310, 311, 312, 313, 314, 315, 316, 317, 318, 319, 320, 321, 322, 323, 324, 325, 326, 327, 328, 329, 330, 331, 332, 333, 334, 335, 336, 337, 338, 339, 340, 341, 342, 343, 344, 345, 346, 347, 348, 349, 350, 351, 352, 353, 354, 355, 356, 357, 358, 359, 360, 361, 362, 363, 364, 365, 366, 367, 368, 369, 370, 371, 372, 373, 374, 375, 376, 377, 378, 379, 380, 381, 382, 383, 384, 385, 386, 387, 388, 389, 390, 391, 392, 393, 394, 395, 396, 397, 398, 399, 400, 401, 402, 403, 404, 405, 406, 407, 408, 409, 410, 411, 412, 413, 414, 415, 416, 417, 418, 419, 420, 421, 422, 423, 424, 425, 426, 427, 428, 429, 430, 431, 432, 433, 434, 435, 436, 437, 438, 439, 440, 441, 442, 443, 444, 445, 446, 447, 448, 449, 450, 451, 452, 453, 454, 455, 456, 457, 458, 459, 460, 461, 462, 463, 464, 465, 466, 467, 468, 469, 470, 471, 472, 473, 474, 475, 476, 477, 478, 479, 480, 481, 482, 483, 484, 485, 486],
      "AcquisitionTime": ["112449.345000", "112450.835000", "112452.325000", "112453.815000", "112455.305000", "112456.795000", "112458.285000", "112459.775000", "112501.265000", "112502.755000", "112504.245000", "112505.735000", "112507.225000", "112508.715000", "112510.205000", "112511.695000", "112513.185000", "112514.675000", "112516.165000", "112517.655000", "112519.145000", "112520.635000", "112522.125000", "112523.615000", "112525.105000", "112526.595000", "112528.085000", "112529.575000", "112531.065000", "112532.555000", "112534.045000", "112535.535000", "112537.025000", "112538.515000", "112540.005000", "112541.495000", "112542.985000", "112544.475000", "112545.965000", "112547.455000", "112548.945000", "112550.435000", "112551.925000", "112553.415000", "112554.905000", "112556.395000", "112557.885000", "112559.375000", "112600.865000", "112602.355000", "112603.845000", "112605.335000", "112606.825000", "112608.315000", "112609.805000", "112611.295000", "112612.785000", "112614.275000", "112615.765000", "112617.255000", "112618.745000", "112620.235000", "112621.725000", "112623.215000", "112624.705000", "112626.195000", "112627.685000", "112629.175000", "112630.665000", "112632.155000", "112633.645000", "112635.135000", "112636.625000", "112638.115000", "112639.605000", "112641.095000", "112642.585000", "112644.075000", "112645.565000", "112647.055000", "112648.545000", "112650.035000", "112651.525000", "112653.015000", "112654.505000", "112655.995000", "112657.485000", "112658.975000", "112700.465000", "112701.955000", "112703.445000", "112704.935000", "112706.425000", "112707.915000", "112709.405000", "112710.895000", "112712.385000", "112713.875000", "112715.365000", "112716.855000", "112718.345000", "112719.835000", "112721.325000", "112722.815000", "112724.305000", "112725.795000", "112727.285000", "112728.775000", "112730.265000", "112731.755000", "112733.245000", "112734.735000", "112736.225000", "112737.715000", "112739.205000", "112740.695000", "112742.185000", "112743.675000", "112745.165000", "112746.655000", "112748.145000", "112749.635000", "112751.125000", "112752.615000", "112754.105000", "112755.595000", "112757.085000", "112758.575000", "112800.065000", "112801.555000", "112803.045000", "112804.535000", "112806.025000", "112807.515000", "112809.005000", "112810.495000", "112811.985000", "112813.475000", "112814.965000", "112816.455000", "112817.945000", "112819.435000", "112820.925000", "112822.415000", "112823.905000", "112825.395000", "112826.885000", "112828.375000", "112829.865000", "112831.355000", "112832.845000", "112834.335000", "112835.825000", "112837.315000", "112838.805000", "112840.295000", "112841.785000", "112843.275000", "112844.765000", "112846.255000", "112847.745000", "112849.235000", "112850.725000", "112852.215000", "112853.705000", "112855.195000", "112856.685000", "112858.175000", "112859.665000", "112901.155000", "112902.645000", "112904.135000", "112905.625000", "112907.115000", "112908.605000", "112910.095000", "112911.585000", "112913.075000", "112914.565000", "112916.055000", "112917.545000", "112919.035000", "112920.525000", "112922.015000", "112923.505000", "112924.995000", "112926.485000", "112927.975000", "112929.465000", "112930.955000", "112932.445000", "112933.935000", "112935.425000", "112936.915000", "112938.405000", "112939.895000", "112941.385000", "112942.875000", "112944.365000", "112945.855000", "112947.345000", "112948.835000", "112950.325000", "112951.815000", "112953.305000", "112954.795000", "112956.285000", "112957.775000", "112959.265000", "113000.755000", "113002.245000", "113003.735000", "113005.225000", "113006.715000", "113008.205000", "113009.695000", "113011.185000", "113012.675000", "113014.165000", "113015.655000", "113017.145000", "113018.635000", "113020.125000", "113021.615000", "113023.105000", "113024.595000", "113026.085000", "113027.575000", "113029.065000", "113030.555000", "113032.045000", "113033.535000", "113035.025000", "113036.515000", "113038.005000", "113039.495000", "113040.985000", "113042.475000", "113043.965000", "113045.455000", "113046.945000", "113048.435000", "113049.925000", "113051.415000", "113052.905000", "113054.395000", "113055.885000", "113057.375000", "113058.865000", "113100.355000", "113101.845000", "113103.335000", "113104.825000", "113106.315000", "113107.805000", "113109.295000", "113110.785000", "113112.275000", "113113.765000", "113115.255000", "113116.745000", "113118.235000", "113119.725000", "113121.215000", "113122.705000", "113124.195000", "113125.685000", "113127.175000", "113128.665000", "113130.155000", "113131.645000", "113133.135000", "113134.625000", "113136.115000", "113137.605000", "113139.095000", "113140.585000", "113142.075000", "113143.565000", "113145.055000", "113146.545000", "113148.035000", "113149.525000", "113151.015000", "113152.505000", "113153.995000", "113155.485000", "113156.975000", "113158.465000", "113159.955000", "113201.445000", "113202.935000", "113204.425000", "113205.915000", "113207.405000", "113208.895000", "113210.385000", "113211.875000", "113213.365000", "113214.855000", "113216.345000", "113217.835000", "113219.325000", "113220.815000", "113222.305000", "113223.795000", "113225.285000", "113226.775000", "113228.265000", "113229.755000", "113231.245000", "113232.735000", "113234.225000", "113235.715000", "113237.205000", "113238.695000", "113240.185000", "113241.675000", "113243.165000", "113244.655000", "113246.145000", "113247.635000", "113249.125000", "113250.615000", "113252.105000", "113253.595000", "113255.085000", "113256.575000", "113258.065000", "113259.555000", "113301.045000", "113302.535000", "113304.025000", "113305.515000", "113307.005000", "113308.495000", "113309.985000", "113311.475000", "113312.965000", "113314.455000", "113315.945000", "113317.435000", "113318.925000", "113320.415000", "113321.905000", "113323.395000", "113324.885000", "113326.375000", "113327.865000", "113329.355000", "113330.845000", "113332.335000", "113333.825000", "113335.315000", "113336.805000", "113338.295000", "113339.785000", "113341.275000", "113342.765000", "113344.255000", "113345.745000", "113347.235000", "113348.725000", "113350.215000", "113351.705000", "113353.195000", "113354.685000", "113356.175000", "113357.665000", "113359.155000", "113400.645000", "113402.135000", "113403.625000", "113405.115000", "113406.605000", "113408.095000", "113409.585000", "113411.075000", "113412.565000", "113414.055000", "113415.545000", "113417.035000", "113418.525000", "113420.015000", "113421.505000", "113422.995000", "113424.485000", "113425.975000", "113427.465000", "113428.955000", "113430.445000", "113431.935000", "113433.425000", "113434.915000", "113436.405000", "113437.895000", "113439.385000", "113440.875000", "113442.365000", "113443.855000", "113445.345000", "113446.835000", "113448.325000", "113449.815000", "113451.305000", "113452.795000", "113454.285000", "113455.775000", "113457.265000", "113458.755000", "113500.245000", "113501.735000", "113503.225000", "113504.715000", "113506.205000", "113507.695000", "113509.185000", "113510.675000", "113512.165000", "113513.655000", "113515.145000", "113516.635000", "113518.125000", "113519.615000", "113521.105000", "113522.595000", "113524.085000", "113525.575000", "113527.065000", "113528.555000", "113530.045000", "113531.535000", "113533.025000", "113534.515000", "113536.005000", "113537.495000", "113538.985000", "113540.475000", "113541.965000", "113543.455000", "113544.945000", "113546.435000", "113547.925000", "113549.415000", "113550.905000", "113552.395000", "113553.885000", "113555.375000", "113556.865000", "113558.355000", "113559.845000", "113601.335000", "113602.825000", "113604.315000", "113605.805000", "113607.295000", "113608.785000", "113610.275000", "113611.765000", "113613.255000", "113614.745000", "113616.235000", "113617.725000", "113619.215000", "113620.705000", "113622.195000", "113623.685000", "113625.175000", "113626.665000", "113628.155000", "113629.645000", "113631.135000", "113632.625000", "113634.115000", "113635.605000", "113637.095000", "113638.585000", "113640.075000", "113641.565000", "113643.055000", "113644.545000", "113646.035000", "113647.525000", "113649.015000", "113650.505000", "113651.995000"],
      "ContentTime": ["112608.643000", "112608.648000", "112608.651000", "112608.654000", "112608.657000", "112608.660000", "112608.663000", "112608.666000", "112608.669000", "112608.677000", "112608.679000", "112608.683000", "112608.686000", "112608.689000", "112608.691000", "112608.695000", "112608.698000", "112608.700000", "112608.703000", "112608.706000", "112608.709000", "112608.712000", "112608.715000", "112608.718000", "112608.721000", "112608.724000", "112608.727000", "112608.730000", "112608.733000", "112608.736000", "112608.739000", "112628.600000", "112628.603000", "112628.615000", "112628.618000", "112628.621000", "112628.624000", "112628.627000", "112628.630000", "112628.633000", "112628.636000", "112628.639000", "112628.642000", "112628.645000", "112628.648000", "112628.651000", "112628.654000", "112628.657000", "112628.660000", "112628.663000", "112628.666000", "112648.600000", "112648.603000", "112648.606000", "112648.609000", "112648.612000", "112648.615000", "112648.618000", "112648.621000", "112648.624000", "112648.627000", "112648.630000", "112648.633000", "112648.636000", "112648.639000", "112648.641000", "112648.645000", "112648.647000", "112648.650000", "112648.653000", "112648.656000", "112708.600000", "112708.621000", "112708.624000", "112708.627000", "112708.630000", "112708.633000", "112708.636000", "112708.639000", "112708.642000", "112708.645000", "112708.648000", "112708.651000", "112708.654000", "112708.658000", "112708.661000", "112708.664000", "112708.667000", "112708.670000", "112708.673000", "112708.676000", "112748.601000", "112748.604000", "112748.607000", "112748.610000", "112748.613000", "112748.616000", "112748.619000", "112748.622000", "112748.625000", "112748.628000", "112748.631000", "112748.634000", "112748.637000", "112748.639000", "112748.642000", "112748.645000", "112748.648000", "112748.651000", "112748.654000", "112748.657000", "112748.660000", "112748.663000", "112748.666000", "112748.669000", "112748.672000", "112748.675000", "112748.678000", "112748.681000", "112828.600000", "112828.603000", "112828.606000", "112828.609000", "112828.612000", "112828.615000", "112828.618000", "112828.621000", "112828.624000", "112828.627000", "112828.630000", "112828.633000", "112828.636000", "112828.639000", "112828.642000", "112828.645000", "112828.647000", "112828.651000", "112828.653000", "112828.656000", "112828.659000", "112828.662000", "112828.665000", "112828.668000", "112828.671000", "112828.674000", "112828.677000", "112908.617000", "112908.620000", "112908.623000", "112908.626000", "112908.629000", "112908.632000", "112908.635000", "112908.638000", "112908.641000", "112908.644000", "112908.647000", "112908.650000", "112908.653000", "112908.656000", "112908.659000", "112908.662000", "112908.672000", "112908.675000", "112908.678000", "112908.681000", "112908.684000", "112908.687000", "112908.690000", "112908.693000", "112908.696000", "112908.699000", "112908.702000", "112948.601000", "112948.604000", "112948.607000", "112948.618000", "112948.621000", "112948.624000", "112948.627000", "112948.630000", "112948.633000", "112948.636000", "112948.639000", "112948.642000", "112948.645000", "112948.648000", "112948.651000", "112948.654000", "112948.657000", "112948.660000", "112948.663000", "112948.666000", "112948.669000", "112948.672000", "112948.675000", "112948.678000", "112948.681000", "112948.684000", "112948.687000", "113028.601000", "113028.604000", "113028.607000", "113028.610000", "113028.613000", "113028.616000", "113028.619000", "113028.622000", "113028.625000", "113028.628000", "113028.631000", "113028.634000", "113028.637000", "113028.640000", "113028.643000", "113028.646000", "113028.649000", "113028.652000", "113028.655000", "113028.658000", "113028.660000", "113028.663000", "113028.666000", "113028.669000", "113028.672000", "113028.675000", "113028.678000", "113108.600000", "113108.603000", "113108.606000", "113108.609000", "113108.612000", "113108.615000", "113108.618000", "113108.621000", "113108.624000", "113108.627000", "113108.630000", "113108.633000", "113108.636000", "113108.639000", "113108.642000", "113108.645000", "113108.648000", "113108.651000", "113108.654000", "113108.657000", "113108.660000", "113108.663000", "113108.666000", "113108.669000", "113108.672000", "113108.675000", "113128.600000", "113128.603000", "113128.606000", "113128.609000", "113128.612000", "113128.615000", "113128.618000", "113128.621000", "113128.624000", "113128.627000", "113128.630000", "113128.633000", "113128.636000", "113128.639000", "113208.601000", "113208.604000", "113208.607000", "113208.610000", "113208.613000", "113208.616000", "113208.619000", "113208.622000", "113208.625000", "113208.628000", "113208.631000", "113208.634000", "113208.637000", "113208.640000", "113208.643000", "113208.646000", "113208.649000", "113208.652000", "113208.655000", "113208.658000", "113208.661000", "113208.664000", "113208.667000", "113208.670000", "113208.673000", "113208.676000", "113208.678000", "113248.601000", "113248.604000", "113248.607000", "113248.610000", "113248.613000", "113248.616000", "113248.619000", "113248.622000", "113248.625000", "113248.628000", "113248.631000", "113248.634000", "113248.637000", "113248.640000", "113248.643000", "113248.646000", "113248.649000", "113248.652000", "113248.655000", "113248.658000", "113248.661000", "113248.664000", "113248.667000", "113248.670000", "113248.673000", "113248.676000", "113248.679000", "113328.601000", "113328.605000", "113328.608000", "113328.610000", "113328.613000", "113328.616000", "113328.619000", "113328.622000", "113328.625000", "113328.628000", "113328.631000", "113328.634000", "113328.637000", "113328.640000", "113328.643000", "113328.646000", "113328.649000", "113328.652000", "113328.655000", "113328.658000", "113328.661000", "113328.664000", "113328.667000", "113328.670000", "113328.673000", "113328.676000", "113408.600000", "113408.603000", "113408.606000", "113408.609000", "113408.612000", "113408.615000", "113408.618000", "113408.621000", "113408.624000", "113408.627000", "113408.630000", "113408.633000", "113408.636000", "113408.639000", "113408.642000", "113408.645000", "113408.648000", "113408.651000", "113408.654000", "113408.657000", "113408.659000", "113408.662000", "113408.665000", "113408.668000", "113408.671000", "113408.674000", "113408.677000", "113448.601000", "113448.604000", "113448.607000", "113448.610000", "113448.613000", "113448.616000", "113448.619000", "113448.622000", "113448.626000", "113448.629000", "113448.632000", "113448.635000", "113448.648000", "113448.651000", "113448.654000", "113448.657000", "113448.660000", "113448.663000", "113448.666000", "113448.669000", "113448.672000", "113448.675000", "113448.677000", "113448.680000", "113448.683000", "113448.686000", "113448.689000", "113528.600000", "113528.603000", "113528.606000", "113528.609000", "113528.612000", "113528.615000", "113528.618000", "113528.621000", "113528.624000", "113528.627000", "113528.630000", "113528.633000", "113528.636000", "113528.639000", "113528.642000", "113528.645000", "113528.648000", "113528.651000", "113528.654000", "113528.657000", "113528.660000", "113528.663000", "113528.666000", "113528.669000", "113528.672000", "113528.675000", "113528.678000", "113608.600000", "113608.603000", "113608.606000", "113608.609000", "113608.612000", "113608.615000", "113608.618000", "113608.621000", "113608.624000", "113608.627000", "113608.630000", "113608.633000", "113608.636000", "113608.639000", "113608.642000", "113608.645000", "113608.648000", "113608.651000", "113608.654000", "113608.657000", "113608.660000", "113608.663000", "113608.666000", "113608.669000", "113608.672000", "113608.675000", "113608.678000", "113648.601000", "113648.604000", "113648.607000", "113648.610000", "113648.613000", "113648.616000", "113648.619000", "113648.622000", "113648.625000", "113648.628000", "113648.631000", "113648.634000", "113648.637000", "113648.640000", "113648.643000", "113648.646000", "113648.649000", "113648.652000", "113648.655000", "113648.658000", "113648.661000", "113648.664000", "113648.667000", "113648.669000", "113648.672000", "113648.675000", "113648.678000", "113654.403000", "113654.406000", "113654.409000", "113654.412000"],
