{
  "AcquisitionMatrixPE": 104,
  "AcquisitionNumber": 1,
  "AcquisitionTime": "14:41:16.765000",
  "BandwidthPerPixelPhaseEncode": 17.17,
  "BaseResolution": 104,
  "BodyPartExamined": "BRAIN",
  "CoilString": "HC1-7;NC1_2",
  "ConsistencyInfo": "N4_VE11C_LATEST_20160120",
  "ConversionSoftware": "dcm2niix",
  "ConversionSoftwareVersion": "v1.0.20190720  (JP2:OpenJPEG) GCC7.3.0",
  "DerivedVendorReportedEchoSpacing": 0.000560011,
  "DeviceSerialNumber": "167006",
  "DwellTime": 2.1e-06,
  "EchoTime": 0.037,
  "EchoTrainLength": 104,
  "EffectiveEchoSpacing": 0.000560011,
  "FlipAngle": 52,
  "ImageComments": "Unaliased_MB4_PE3_LB",
  "ImageOrientationPatientDICOM": [0.999915, -0.0090472, 0.0094043, 0.012566, 0.861921, -0.506887],
  "ImageType": [
    "ORIGINAL",
    "PRIMARY",
    "M",
    "MB",
    "ND",
    "MOSAIC"
],
  "ImagingFrequency": 123.259,
  "InPlanePhaseEncodingDirectionDICOM": "COL",
  "InstitutionAddress": "Chemin_Queen-Mary_4565_Montreal_District_CA_H3W_1W5",
  "InstitutionName": "IUGM",
  "InstitutionalDepartmentName": "Department",
  "MRAcquisitionType": "2D",
  "MagneticFieldStrength": 3,
  "Manufacturer": "Siemens",
  "ManufacturersModelName": "Prisma_fit",
  "Modality": "MR",
  "MultibandAccelerationFactor": 4,
  "PartialFourier": 1,
  "PatientPosition": "HFS",
  "PercentPhaseFOV": 100,
  "PhaseEncodingDirection": "j",
  "PhaseEncodingSteps": 104,
  "PhaseResolution": 1,
  "PixelBandwidth": 2290,
  "ProcedureStepDescription": "video_friends",
  "ProtocolName": "func_task-s02e05b",
  "PulseSequenceDetails": "%CustomerSeq%_cmrr_mbep2d_bold",
  "ReceiveCoilActiveElements": "HC1-7;NC1,2",
  "ReceiveCoilName": "HeadNeck_64",
  "ReconMatrixPE": 104,
  "RepetitionTime": 1.49,
  "SAR": 0.0336151,
  "ScanOptions": "FS",
  "ScanningSequence": "EP",
  "SequenceName": "epfid2d1_104",
  "SequenceVariant": "SK_SS",
  "SeriesDescription": "func_task-s02e05b",
  "SeriesNumber": 15,
  "ShimSetting": [631, -7197, -8872, 418, -25, -147, 38, -19],
  "SliceThickness": 2,
  "SliceTiming": [0, 0.7825, 0.0975, 0.88, 0.195, 0.98, 0.2925, 1.0775, 0.39, 1.175, 0.49, 1.2725, 0.5875, 1.37, 0.685, 0, 0.7825, 0.0975, 0.88, 0.195, 0.98, 0.2925, 1.0775, 0.39, 1.175, 0.49, 1.2725, 0.5875, 1.37, 0.685, 0, 0.7825, 0.0975, 0.88, 0.195, 0.98, 0.2925, 1.0775, 0.39, 1.175, 0.49, 1.2725, 0.5875, 1.37, 0.685, 0, 0.7825, 0.0975, 0.88, 0.195, 0.98, 0.2925, 1.0775, 0.39, 1.175, 0.49, 1.2725, 0.5875, 1.37, 0.685],
  "SoftwareVersions": "syngo_MR_E11",
  "SpacingBetweenSlices": 2,
  "StationName": "MRC35049",
  "TaskName": "friends",
  "TotalReadoutTime": 0.0576811,
  "TxRefAmp": 241.456,
  "WipMemBlock": "c9b82550-75b3-4d1e-ae16-d3e9b584bfb4||Sequence: R016 ve11c/master r/e634e98; Dec 19 2017 11:00:25 by eja",
  "dcmmeta_affine": [
    [-1.999829649925232, 0.025131922215223312, 0.0070397257804870605, 101.03710174560547],
    [0.01809440553188324, 1.7238423824310303, -1.013923168182373, -61.02138900756836],
    [0.018808607012033463, 1.0137732028961182, 1.7239229679107666, -100.41730499267578],
    [0.0, 0.0, 0.0, 1.0]
],
  "dcmmeta_reorient_transform": [
    [0.0, -1.0, 0.0, 103.0],
    [1.0, 0.0, 0.0, 0.0],
    [0.0, 0.0, 1.0, 0.0],
    [0.0, 0.0, 0.0, 1.0]
],
  "dcmmeta_shape": [104, 104, 60, 455],
  "dcmmeta_slice_dim": 2,
  "dcmmeta_version": 0.6,
  "global": {
    "const": {
      "AcquisitionMatrix": [104, 0, 0, 104],
      "AngioFlag": "N",
      "BitsAllocated": 16,
      "BitsStored": 16,
      "BodyPartExamined": "BRAIN",
      "Columns": 832,
      "EchoNumbers": 1,
      "EchoTime": 37.0,
      "EchoTrainLength": 104,
      "FlipAngle": 52.0,
      "HighBit": 15,
      "ImageOrientationPatient": [0.99991484996974, -0.0090472029241, 0.00940430376136, 0.01256596102178, 0.86192116459913, -0.5068865776874],
      "ImagePositionPatient": [-840.71172379657, -737.42661394262, 366.16842787086],
      "ImageType": [
        "ORIGINAL",
        "PRIMARY",
        "M",
        "MB",
        "ND",
        "MOSAIC"
],
      "ImagedNucleus": "1H",
      "ImagingFrequency": 123.25912,
      "InPlanePhaseEncodingDirection": "COL",
      "MRAcquisitionType": "2D",
      "MagneticFieldStrength": 3.0,
      "Manufacturer": "SIEMENS",
      "ManufacturerModelName": "Prisma_fit",
      "Modality": "MR",
      "NumberOfAverages": 1.0,
      "NumberOfPhaseEncodingSteps": 104,
      "PercentPhaseFieldOfView": 100.0,
      "PercentSampling": 100.0,
      "PerformedProcedureStepStartTime": "134640.303000",
      "PhotometricInterpretation": "MONOCHROME2",
      "PixelBandwidth": 2290.0,
      "PixelRepresentation": 0,
      "PixelSpacing": [2.0, 2.0],
      "ProtocolName": "func_task-s02e05b",
      "RepetitionTime": 1490.0,
      "Rows": 832,
      "SAR": 0.03361508573748,
      "SamplesPerPixel": 1,
      "ScanOptions": "FS",
      "ScanningSequence": "EP",
      "SequenceName": "epfid2d1_104",
      "SequenceVariant": [
        "SK",
        "SS"
],
      "SeriesDescription": "func_task-s02e05b",
      "SeriesNumber": 15,
      "SeriesTime": "144234.436000",
      "SliceLocation": -55.264706898074,
      "SliceThickness": 2.0,
      "SmallestImagePixelValue": 0,
      "SoftwareVersions": "syngo MR E11",
      "SpacingBetweenSlices": 2.0000000339916,
      "SpecificCharacterSet": "ISO_IR 100",
      "StudyID": "1",
      "StudyTime": "134640.209000",
      "TransmitCoilName": "Body",
      "VariableFlipAngleFlag": "N",
      "WindowCenterWidthExplanation": "Algo1",
      "dBdt": 0.0},
    "slices": {}
  },
  "time": {
    "samples": {
      "AcquisitionNumber": [1, 2, 3, 4, 5, 6, 7, 8, 9, 10, 11, 12, 13, 14, 15, 16, 17, 18, 19, 20, 21, 22, 23, 24, 25, 26, 27, 28, 29, 30, 31, 32, 33, 34, 35, 36, 37, 38, 39, 40, 41, 42, 43, 44, 45, 46, 47, 48, 49, 50, 51, 52, 53, 54, 55, 56, 57, 58, 59, 60, 61, 62, 63, 64, 65, 66, 67, 68, 69, 70, 71, 72, 73, 74, 75, 76, 77, 78, 79, 80, 81, 82, 83, 84, 85, 86, 87, 88, 89, 90, 91, 92, 93, 94, 95, 96, 97, 98, 99, 100, 101, 102, 103, 104, 105, 106, 107, 108, 109, 110, 111, 112, 113, 114, 115, 116, 117, 118, 119, 120, 121, 122, 123, 124, 125, 126, 127, 128, 129, 130, 131, 132, 133, 134, 135, 136, 137, 138, 139, 140, 141, 142, 143, 144, 145, 146, 147, 148, 149, 150, 151, 152, 153, 154, 155, 156, 157, 158, 159, 160, 161, 162, 163, 164, 165, 166, 167, 168, 169, 170, 171, 172, 173, 174, 175, 176, 177, 178, 179, 180, 181, 182, 183, 184, 185, 186, 187, 188, 189, 190, 191, 192, 193, 194, 195, 196, 197, 198, 199, 200, 201, 202, 203, 204, 205, 206, 207, 208, 209, 210, 211, 212, 213, 214, 215, 216, 217, 218, 219, 220, 221, 222, 223, 224, 225, 226, 227, 228, 229, 230, 231, 232, 233, 234, 235, 236, 237, 238, 239, 240, 241, 242, 243, 244, 245, 246, 247, 248, 249, 250, 251, 252, 253, 254, 255, 256, 257, 258, 259, 260, 261, 262, 263, 264, 265, 266, 267, 268, 269, 270, 271, 272, 273, 274, 275, 276, 277, 278, 279, 280, 281, 282, 283, 284, 285, 286, 287, 288, 289, 290, 291, 292, 293, 294, 295, 296, 297, 298, 299, 300, 301, 302, 303, 304, 305, 306, 307, 308, 309, 310, 311, 312, 313, 314, 315, 316, 317, 318, 319, 320, 321, 322, 323, 324, 325, 326, 327, 328, 329, 330, 331, 332, 333, 334, 335, 336, 337, 338, 339, 340, 341, 342, 343, 344, 345, 346, 347, 348, 349, 350, 351, 352, 353, 354, 355, 356, 357, 358, 359, 360, 361, 362, 363, 364, 365, 366, 367, 368, 369, 370, 371, 372, 373, 374, 375, 376, 377, 378, 379, 380, 381, 382, 383, 384, 385, 386, 387, 388, 389, 390, 391, 392, 393, 394, 395, 396, 397, 398, 399, 400, 401, 402, 403, 404, 405, 406, 407, 408, 409, 410, 411, 412, 413, 414, 415, 416, 417, 418, 419, 420, 421, 422, 423, 424, 425, 426, 427, 428, 429, 430, 431, 432, 433, 434, 435, 436, 437, 438, 439, 440, 441, 442, 443, 444, 445, 446, 447, 448, 449, 450, 451, 452, 453, 454, 455],
      "AcquisitionTime": ["144116.765000", "144118.255000", "144119.745000", "144121.235000", "144122.725000", "144124.215000", "144125.705000", "144127.195000", "144128.685000", "144130.175000", "144131.665000", "144133.155000", "144134.645000", "144136.135000", "144137.625000", "144139.115000", "144140.605000", "144142.095000", "144143.585000", "144145.075000", "144146.565000", "144148.055000", "144149.545000", "144151.035000", "144152.525000", "144154.015000", "144155.505000", "144156.995000", "144158.485000", "144159.975000", "144201.465000", "144202.955000", "144204.445000", "144205.935000", "144207.425000", "144208.915000", "144210.405000", "144211.895000", "144213.385000", "144214.875000", "144216.365000", "144217.855000", "144219.345000", "144220.835000", "144222.325000", "144223.815000", "144225.305000", "144226.795000", "144228.285000", "144229.775000", "144231.265000", "144232.755000", "144234.245000", "144235.735000", "144237.225000", "144238.715000", "144240.205000", "144241.695000", "144243.185000", "144244.675000", "144246.165000", "144247.655000", "144249.145000", "144250.635000", "144252.125000", "144253.615000", "144255.105000", "144256.595000", "144258.085000", "144259.575000", "144301.065000", "144302.555000", "144304.045000", "144305.535000", "144307.025000", "144308.515000", "144310.005000", "144311.495000", "144312.985000", "144314.475000", "144315.965000", "144317.455000", "144318.945000", "144320.435000", "144321.925000", "144323.415000", "144324.905000", "144326.395000", "144327.885000", "144329.375000", "144330.865000", "144332.355000", "144333.845000", "144335.335000", "144336.825000", "144338.315000", "144339.805000", "144341.295000", "144342.785000", "144344.275000", "144345.765000", "144347.255000", "144348.745000", "144350.235000", "144351.725000", "144353.215000", "144354.705000", "144356.195000", "144357.685000", "144359.175000", "144400.665000", "144402.155000", "144403.645000", "144405.135000", "144406.625000", "144408.115000", "144409.605000", "144411.095000", "144412.585000", "144414.075000", "144415.565000", "144417.055000", "144418.545000", "144420.035000", "144421.525000", "144423.015000", "144424.505000", "144425.995000", "144427.485000", "144428.975000", "144430.465000", "144431.955000", "144433.445000", "144434.935000", "144436.425000", "144437.915000", "144439.405000", "144440.895000", "144442.385000", "144443.875000", "144445.365000", "144446.855000", "144448.345000", "144449.835000", "144451.325000", "144452.815000", "144454.305000", "144455.795000", "144457.285000", "144458.775000", "144500.265000", "144501.755000", "144503.245000", "144504.735000", "144506.225000", "144507.715000", "144509.205000", "144510.695000", "144512.185000", "144513.675000", "144515.165000", "144516.655000", "144518.145000", "144519.635000", "144521.125000", "144522.615000", "144524.105000", "144525.595000", "144527.085000", "144528.575000", "144530.065000", "144531.555000", "144533.045000", "144534.535000", "144536.025000", "144537.515000", "144539.005000", "144540.495000", "144541.985000", "144543.475000", "144544.965000", "144546.455000", "144547.945000", "144549.435000", "144550.925000", "144552.415000", "144553.905000", "144555.395000", "144556.885000", "144558.375000", "144559.865000", "144601.355000", "144602.845000", "144604.335000", "144605.825000", "144607.315000", "144608.805000", "144610.295000", "144611.785000", "144613.275000", "144614.765000", "144616.255000", "144617.745000", "144619.235000", "144620.725000", "144622.215000", "144623.705000", "144625.195000", "144626.685000", "144628.175000", "144629.665000", "144631.155000", "144632.645000", "144634.135000", "144635.625000", "144637.115000", "144638.605000", "144640.095000", "144641.585000", "144643.075000", "144644.565000", "144646.055000", "144647.545000", "144649.035000", "144650.525000", "144652.015000", "144653.505000", "144654.995000", "144656.485000", "144657.975000", "144659.465000", "144700.955000", "144702.445000", "144703.935000", "144705.425000", "144706.915000", "144708.405000", "144709.895000", "144711.385000", "144712.875000", "144714.365000", "144715.855000", "144717.345000", "144718.835000", "144720.325000", "144721.815000", "144723.305000", "144724.795000", "144726.285000", "144727.775000", "144729.265000", "144730.755000", "144732.245000", "144733.735000", "144735.225000", "144736.715000", "144738.205000", "144739.695000", "144741.185000", "144742.675000", "144744.165000", "144745.655000", "144747.145000", "144748.635000", "144750.125000", "144751.615000", "144753.105000", "144754.595000", "144756.085000", "144757.575000", "144759.065000", "144800.555000", "144802.045000", "144803.535000", "144805.025000", "144806.515000", "144808.005000", "144809.495000", "144810.985000", "144812.475000", "144813.965000", "144815.455000", "144816.945000", "144818.435000", "144819.925000", "144821.415000", "144822.905000", "144824.395000", "144825.885000", "144827.375000", "144828.865000", "144830.355000", "144831.845000", "144833.335000", "144834.825000", "144836.315000", "144837.805000", "144839.295000", "144840.785000", "144842.275000", "144843.765000", "144845.255000", "144846.745000", "144848.235000", "144849.725000", "144851.215000", "144852.705000", "144854.195000", "144855.685000", "144857.175000", "144858.665000", "144900.155000", "144901.645000", "144903.135000", "144904.625000", "144906.115000", "144907.605000", "144909.095000", "144910.585000", "144912.075000", "144913.565000", "144915.055000", "144916.545000", "144918.035000", "144919.525000", "144921.015000", "144922.505000", "144923.995000", "144925.485000", "144926.975000", "144928.465000", "144929.955000", "144931.445000", "144932.935000", "144934.425000", "144935.915000", "144937.405000", "144938.895000", "144940.385000", "144941.875000", "144943.365000", "144944.855000", "144946.345000", "144947.835000", "144949.325000", "144950.815000", "144952.305000", "144953.795000", "144955.285000", "144956.775000", "144958.265000", "144959.755000", "145001.245000", "145002.735000", "145004.225000", "145005.715000", "145007.205000", "145008.695000", "145010.185000", "145011.675000", "145013.165000", "145014.655000", "145016.145000", "145017.635000", "145019.125000", "145020.615000", "145022.105000", "145023.595000", "145025.085000", "145026.575000", "145028.065000", "145029.555000", "145031.045000", "145032.535000", "145034.025000", "145035.515000", "145037.005000", "145038.495000", "145039.985000", "145041.475000", "145042.965000", "145044.455000", "145045.945000", "145047.435000", "145048.925000", "145050.415000", "145051.905000", "145053.395000", "145054.885000", "145056.375000", "145057.865000", "145059.355000", "145100.845000", "145102.335000", "145103.825000", "145105.315000", "145106.805000", "145108.295000", "145109.785000", "145111.275000", "145112.765000", "145114.255000", "145115.745000", "145117.235000", "145118.725000", "145120.215000", "145121.705000", "145123.195000", "145124.685000", "145126.175000", "145127.665000", "145129.155000", "145130.645000", "145132.135000", "145133.625000", "145135.115000", "145136.605000", "145138.095000", "145139.585000", "145141.075000", "145142.565000", "145144.055000", "145145.545000", "145147.035000", "145148.525000", "145150.015000", "145151.505000", "145152.995000", "145154.485000", "145155.975000", "145157.465000", "145158.955000", "145200.445000", "145201.935000", "145203.425000", "145204.915000", "145206.405000", "145207.895000", "145209.385000", "145210.875000", "145212.365000", "145213.855000", "145215.345000", "145216.835000", "145218.325000", "145219.815000", "145221.305000", "145222.795000", "145224.285000", "145225.775000", "145227.265000", "145228.755000", "145230.245000", "145231.735000", "145233.225000"],
      "ContentTime": ["144234.438000", "144234.442000", "144234.445000", "144234.448000", "144234.451000", "144234.454000", "144234.457000", "144234.460000", "144234.462000", "144234.465000", "144234.468000", "144234.471000", "144234.474000", "144234.477000", "144234.480000", "144234.483000", "144234.486000", "144234.489000", "144234.492000", "144234.495000", "144234.498000", "144234.501000", "144234.504000", "144234.506000", "144254.393000", "144254.396000", "144254.399000", "144254.402000", "144254.404000", "144254.407000", "144254.410000", "144254.413000", "144254.416000", "144254.419000", "144254.422000", "144254.425000", "144254.428000", "144254.430000", "144254.433000", "144254.436000", "144254.439000", "144254.442000", "144254.445000", "144254.448000", "144314.393000", "144314.396000", "144314.399000", "144314.412000", "144314.415000", "144314.417000", "144314.420000", "144314.423000", "144314.426000", "144314.429000", "144314.432000", "144314.435000", "144314.438000", "144314.441000", "144314.443000", "144314.446000", "144314.449000", "144314.452000", "144314.455000", "144314.458000", "144334.392000", "144334.395000", "144334.398000", "144334.401000", "144334.404000", "144334.406000", "144334.409000", "144334.412000", "144334.415000", "144334.418000", "144334.421000", "144334.424000", "144334.427000", "144334.429000", "144334.441000", "144334.444000", "144334.447000", "144334.450000", "144334.453000", "144334.456000", "144354.393000", "144354.396000", "144354.399000", "144354.402000", "144354.405000", "144354.407000", "144354.410000", "144354.413000", "144354.416000", "144354.419000", "144354.422000", "144354.425000", "144354.428000", "144354.431000", "144354.433000", "144354.436000", "144354.439000", "144354.442000", "144354.445000", "144354.448000", "144434.393000", "144434.396000", "144434.399000", "144434.402000", "144434.405000", "144434.408000", "144434.410000", "144434.413000", "144434.416000", "144434.419000", "144434.422000", "144434.425000", "144434.428000", "144434.431000", "144434.433000", "144434.436000", "144434.439000", "144434.442000", "144434.445000", "144434.448000", "144434.451000", "144434.454000", "144434.457000", "144434.464000", "144434.467000", "144434.470000", "144434.473000", "144434.476000", "144514.393000", "144514.396000", "144514.399000", "144514.402000", "144514.405000", "144514.408000", "144514.410000", "144514.413000", "144514.416000", "144514.419000", "144514.422000", "144514.425000", "144514.428000", "144514.431000", "144514.434000", "144514.436000", "144514.439000", "144514.442000", "144514.445000", "144514.448000", "144514.451000", "144514.454000", "144514.457000", "144514.460000", "144514.462000", "144514.465000", "144514.468000", "144554.392000", "144554.395000", "144554.398000", "144554.401000", "144554.404000", "144554.407000", "144554.410000", "144554.413000", "144554.416000", "144554.419000", "144554.422000", "144554.425000", "144554.427000", "144554.430000", "144554.443000", "144554.447000", "144554.450000", "144554.453000", "144554.456000", "144554.459000", "144554.462000", "144554.465000", "144554.468000", "144554.471000", "144554.473000", "144554.476000", "144634.393000", "144634.396000", "144634.399000", "144634.402000", "144634.405000", "144634.408000", "144634.411000", "144634.414000", "144634.416000", "144634.419000", "144634.422000", "144634.425000", "144634.428000", "144634.431000", "144634.434000", "144634.437000", "144634.439000", "144634.442000", "144634.445000", "144634.448000", "144634.451000", "144634.454000", "144634.457000", "144634.460000", "144634.463000", "144634.465000", "144634.468000", "144714.393000", "144714.396000", "144714.399000", "144714.402000", "144714.412000", "144714.415000", "144714.418000", "144714.421000", "144714.424000", "144714.427000", "144714.430000", "144714.433000", "144714.436000", "144714.438000", "144714.441000", "144714.444000", "144714.447000", "144714.450000", "144714.453000", "144714.456000", "144714.459000", "144714.462000", "144714.465000", "144714.468000", "144714.471000", "144714.474000", "144714.477000", "144754.393000", "144754.396000", "144754.399000", "144754.402000", "144754.405000", "144754.408000", "144754.411000", "144754.414000", "144754.417000", "144754.420000", "144754.423000", "144754.426000", "144754.429000", "144754.432000", "144754.435000", "144754.438000", "144754.441000", "144754.443000", "144754.446000", "144754.449000", "144754.452000", "144754.455000", "144754.458000", "144754.461000", "144754.464000", "144754.467000", "144754.470000", "144834.393000", "144834.396000", "144834.399000", "144834.402000", "144834.405000", "144834.408000", "144834.411000", "144834.414000", "144834.417000", "144834.420000", "144834.423000", "144834.426000", "144834.428000", "144834.431000", "144834.434000", "144834.437000", "144834.440000", "144834.443000", "144834.446000", "144834.449000", "144834.452000", "144834.455000", "144834.462000", "144834.465000", "144834.468000", "144834.471000", "144834.474000", "144914.393000", "144914.396000", "144914.399000", "144914.402000", "144914.405000", "144914.408000", "144914.411000", "144914.414000", "144914.417000", "144914.420000", "144914.423000", "144914.425000", "144914.428000", "144914.432000", "144914.434000", "144914.437000", "144914.440000", "144914.443000", "144914.446000", "144914.449000", "144914.452000", "144914.455000", "144914.458000", "144914.461000", "144914.464000", "144914.467000", "144914.470000", "144954.393000", "144954.396000", "144954.399000", "144954.402000", "144954.405000", "144954.408000", "144954.411000", "144954.414000", "144954.417000", "144954.420000", "144954.422000", "144954.425000", "144954.428000", "144954.431000", "144954.434000", "144954.437000", "144954.440000", "144954.443000", "144954.446000", "144954.449000", "144954.451000", "144954.455000", "144954.457000", "144954.460000", "144954.463000", "144954.466000", "145034.392000", "145034.395000", "145034.398000", "145034.401000", "145034.404000", "145034.407000", "145034.410000", "145034.413000", "145034.416000", "145034.419000", "145034.421000", "145034.424000", "145034.427000", "145034.430000", "145034.433000", "145034.448000", "145034.451000", "145034.454000", "145034.457000", "145034.460000", "145034.463000", "145034.466000", "145034.469000", "145034.472000", "145034.474000", "145034.477000", "145034.480000", "145114.393000", "145114.396000", "145114.399000", "145114.402000", "145114.405000", "145114.408000", "145114.411000", "145114.414000", "145114.417000", "145114.419000", "145114.422000", "145114.425000", "145114.428000", "145114.431000", "145114.434000", "145114.437000", "145114.440000", "145114.443000", "145114.446000", "145114.449000", "145114.452000", "145114.455000", "145114.458000", "145114.460000", "145114.463000", "145114.467000", "145114.469000", "145154.393000", "145154.396000", "145154.399000", "145154.402000", "145154.405000", "145154.408000", "145154.411000", "145154.414000", "145154.416000", "145154.419000", "145154.422000", "145154.425000", "145154.428000", "145154.431000", "145154.434000", "145154.437000", "145154.440000", "145154.443000", "145154.445000", "145154.448000", "145154.451000", "145154.454000", "145154.457000", "145154.460000", "145154.463000", "145154.466000", "145154.468000", "145234.393000", "145234.396000", "145234.399000", "145234.402000", "145234.405000", "145234.408000", "145234.411000", "145234.414000", "145234.417000", "145234.420000", "145234.422000", "145234.425000", "145234.428000", "145234.431000", "145234.434000", "145234.437000", "145234.440000", "145234.443000", "145234.446000", "145234.449000", "145234.451000", "145234.454000", "145234.457000", "145234.460000", "145234.463000", "145234.466000", "145234.469000", "145235.435000"],
