{
  "AcquisitionMatrixPE": 104,
  "AcquisitionNumber": 1,
  "AcquisitionTime": "15:06:6.320000",
  "BandwidthPerPixelPhaseEncode": 17.17,
  "BaseResolution": 104,
  "BodyPartExamined": "BRAIN",
  "CoilString": "HC1-7;NC1_2",
  "ConsistencyInfo": "N4_VE11C_LATEST_20160120",
  "ConversionSoftware": "dcm2niix",
  "ConversionSoftwareVersion": "v1.0.20190720  (JP2:OpenJPEG) GCC7.3.0",
  "DerivedVendorReportedEchoSpacing": 0.000560011,
  "DeviceSerialNumber": "167006",
  "DwellTime": 2.1e-06,
  "EchoTime": 0.037,
  "EchoTrainLength": 104,
  "EffectiveEchoSpacing": 0.000560011,
  "FlipAngle": 52,
  "ImageComments": "Unaliased_MB4_PE3_LB",
  "ImageOrientationPatientDICOM": [0.999915, -0.0090472, 0.0094043, 0.012566, 0.861921, -0.506887],
  "ImageType": [
    "ORIGINAL",
    "PRIMARY",
    "M",
    "MB",
    "ND",
    "MOSAIC"
],
  "ImagingFrequency": 123.259,
  "InPlanePhaseEncodingDirectionDICOM": "COL",
  "InstitutionAddress": "Chemin_Queen-Mary_4565_Montreal_District_CA_H3W_1W5",
  "InstitutionName": "IUGM",
  "InstitutionalDepartmentName": "Department",
  "MRAcquisitionType": "2D",
  "MagneticFieldStrength": 3,
  "Manufacturer": "Siemens",
  "ManufacturersModelName": "Prisma_fit",
  "Modality": "MR",
  "MultibandAccelerationFactor": 4,
  "PartialFourier": 1,
  "PatientPosition": "HFS",
  "PercentPhaseFOV": 100,
  "PhaseEncodingDirection": "j",
  "PhaseEncodingSteps": 104,
  "PhaseResolution": 1,
  "PixelBandwidth": 2290,
  "ProcedureStepDescription": "video_friends",
  "ProtocolName": "func_task-s02e06b",
  "PulseSequenceDetails": "%CustomerSeq%_cmrr_mbep2d_bold",
  "ReceiveCoilActiveElements": "HC1-7;NC1,2",
  "ReceiveCoilName": "HeadNeck_64",
  "ReconMatrixPE": 104,
  "RepetitionTime": 1.49,
  "SAR": 0.0336282,
  "ScanOptions": "FS",
  "ScanningSequence": "EP",
  "SequenceName": "epfid2d1_104",
  "SequenceVariant": "SK_SS",
  "SeriesDescription": "func_task-s02e06b",
  "SeriesNumber": 19,
  "ShimSetting": [631, -7197, -8872, 418, -25, -147, 38, -19],
  "SliceThickness": 2,
  "SliceTiming": [0, 0.7825, 0.0975, 0.88, 0.195, 0.98, 0.2925, 1.0775, 0.39, 1.175, 0.49, 1.2725, 0.5875, 1.37, 0.685, 0, 0.7825, 0.0975, 0.88, 0.195, 0.98, 0.2925, 1.0775, 0.39, 1.175, 0.49, 1.2725, 0.5875, 1.37, 0.685, 0, 0.7825, 0.0975, 0.88, 0.195, 0.98, 0.2925, 1.0775, 0.39, 1.175, 0.49, 1.2725, 0.5875, 1.37, 0.685, 0, 0.7825, 0.0975, 0.88, 0.195, 0.98, 0.2925, 1.0775, 0.39, 1.175, 0.49, 1.2725, 0.5875, 1.37, 0.685],
  "SoftwareVersions": "syngo_MR_E11",
  "SpacingBetweenSlices": 2,
  "StationName": "MRC35049",
  "TaskName": "friends",
  "TotalReadoutTime": 0.0576811,
  "TxRefAmp": 241.456,
  "WipMemBlock": "e226fa92-b0c7-4f19-ba16-aeb116803264||Sequence: R016 ve11c/master r/e634e98; Dec 19 2017 11:00:25 by eja",
  "dcmmeta_affine": [
    [-1.999829649925232, 0.025131922215223312, 0.0070397257804870605, 101.03710174560547],
    [0.01809440553188324, 1.7238423824310303, -1.013923168182373, -61.02138900756836],
    [0.018808607012033463, 1.0137732028961182, 1.7239229679107666, -100.41730499267578],
    [0.0, 0.0, 0.0, 1.0]
],
  "dcmmeta_reorient_transform": [
    [0.0, -1.0, 0.0, 103.0],
    [1.0, 0.0, 0.0, 0.0],
    [0.0, 0.0, 1.0, 0.0],
    [0.0, 0.0, 0.0, 1.0]
],
  "dcmmeta_shape": [104, 104, 60, 500],
  "dcmmeta_slice_dim": 2,
  "dcmmeta_version": 0.6,
  "global": {
    "const": {
      "AcquisitionMatrix": [104, 0, 0, 104],
      "AngioFlag": "N",
      "BitsAllocated": 16,
      "BitsStored": 16,
      "BodyPartExamined": "BRAIN",
      "Columns": 832,
      "EchoNumbers": 1,
      "EchoTime": 37.0,
      "EchoTrainLength": 104,
      "FlipAngle": 52.0,
      "HighBit": 15,
      "ImageOrientationPatient": [0.99991484996974, -0.0090472029241, 0.00940430376136, 0.01256596102178, 0.86192116459913, -0.5068865776874],
      "ImagePositionPatient": [-840.71172379657, -737.42661394262, 366.16842787086],
      "ImageType": [
        "ORIGINAL",
        "PRIMARY",
        "M",
        "MB",
        "ND",
        "MOSAIC"
],
      "ImagedNucleus": "1H",
      "ImagingFrequency": 123.259127,
      "InPlanePhaseEncodingDirection": "COL",
      "MRAcquisitionType": "2D",
      "MagneticFieldStrength": 3.0,
      "Manufacturer": "SIEMENS",
      "ManufacturerModelName": "Prisma_fit",
      "Modality": "MR",
      "NumberOfAverages": 1.0,
      "NumberOfPhaseEncodingSteps": 104,
      "PercentPhaseFieldOfView": 100.0,
      "PercentSampling": 100.0,
      "PerformedProcedureStepStartTime": "134640.303000",
      "PhotometricInterpretation": "MONOCHROME2",
      "PixelBandwidth": 2290.0,
      "PixelRepresentation": 0,
      "PixelSpacing": [2.0, 2.0],
      "ProtocolName": "func_task-s02e06b",
      "RepetitionTime": 1490.0,
      "Rows": 832,
      "SAR": 0.03362822428226,
      "SamplesPerPixel": 1,
      "ScanOptions": "FS",
      "ScanningSequence": "EP",
      "SequenceName": "epfid2d1_104",
      "SequenceVariant": [
        "SK",
        "SS"
],
      "SeriesDescription": "func_task-s02e06b",
      "SeriesNumber": 19,
      "SeriesTime": "150731.581000",
      "SliceLocation": -55.264706898074,
      "SliceThickness": 2.0,
      "SmallestImagePixelValue": 0,
      "SoftwareVersions": "syngo MR E11",
      "SpacingBetweenSlices": 2.0000000339916,
      "SpecificCharacterSet": "ISO_IR 100",
      "StudyID": "1",
      "StudyTime": "134640.209000",
      "TransmitCoilName": "Body",
      "VariableFlipAngleFlag": "N",
      "WindowCenterWidthExplanation": "Algo1",
      "dBdt": 0.0},
    "slices": {}
  },
  "time": {
    "samples": {
      "AcquisitionNumber": [1, 2, 3, 4, 5, 6, 7, 8, 9, 10, 11, 12, 13, 14, 15, 16, 17, 18, 19, 20, 21, 22, 23, 24, 25, 26, 27, 28, 29, 30, 31, 32, 33, 34, 35, 36, 37, 38, 39, 40, 41, 42, 43, 44, 45, 46, 47, 48, 49, 50, 51, 52, 53, 54, 55, 56, 57, 58, 59, 60, 61, 62, 63, 64, 65, 66, 67, 68, 69, 70, 71, 72, 73, 74, 75, 76, 77, 78, 79, 80, 81, 82, 83, 84, 85, 86, 87, 88, 89, 90, 91, 92, 93, 94, 95, 96, 97, 98, 99, 100, 101, 102, 103, 104, 105, 106, 107, 108, 109, 110, 111, 112, 113, 114, 115, 116, 117, 118, 119, 120, 121, 122, 123, 124, 125, 126, 127, 128, 129, 130, 131, 132, 133, 134, 135, 136, 137, 138, 139, 140, 141, 142, 143, 144, 145, 146, 147, 148, 149, 150, 151, 152, 153, 154, 155, 156, 157, 158, 159, 160, 161, 162, 163, 164, 165, 166, 167, 168, 169, 170, 171, 172, 173, 174, 175, 176, 177, 178, 179, 180, 181, 182, 183, 184, 185, 186, 187, 188, 189, 190, 191, 192, 193, 194, 195, 196, 197, 198, 199, 200, 201, 202, 203, 204, 205, 206, 207, 208, 209, 210, 211, 212, 213, 214, 215, 216, 217, 218, 219, 220, 221, 222, 223, 224, 225, 226, 227, 228, 229, 230, 231, 232, 233, 234, 235, 236, 237, 238, 239, 240, 241, 242, 243, 244, 245, 246, 247, 248, 249, 250, 251, 252, 253, 254, 255, 256, 257, 258, 259, 260, 261, 262, 263, 264, 265, 266, 267, 268, 269, 270, 271, 272, 273, 274, 275, 276, 277, 278, 279, 280, 281, 282, 283, 284, 285, 286, 287, 288, 289, 290, 291, 292, 293, 294, 295, 296, 297, 298, 299, 300, 301, 302, 303, 304, 305, 306, 307, 308, 309, 310, 311, 312, 313, 314, 315, 316, 317, 318, 319, 320, 321, 322, 323, 324, 325, 326, 327, 328, 329, 330, 331, 332, 333, 334, 335, 336, 337, 338, 339, 340, 341, 342, 343, 344, 345, 346, 347, 348, 349, 350, 351, 352, 353, 354, 355, 356, 357, 358, 359, 360, 361, 362, 363, 364, 365, 366, 367, 368, 369, 370, 371, 372, 373, 374, 375, 376, 377, 378, 379, 380, 381, 382, 383, 384, 385, 386, 387, 388, 389, 390, 391, 392, 393, 394, 395, 396, 397, 398, 399, 400, 401, 402, 403, 404, 405, 406, 407, 408, 409, 410, 411, 412, 413, 414, 415, 416, 417, 418, 419, 420, 421, 422, 423, 424, 425, 426, 427, 428, 429, 430, 431, 432, 433, 434, 435, 436, 437, 438, 439, 440, 441, 442, 443, 444, 445, 446, 447, 448, 449, 450, 451, 452, 453, 454, 455, 456, 457, 458, 459, 460, 461, 462, 463, 464, 465, 466, 467, 468, 469, 470, 471, 472, 473, 474, 475, 476, 477, 478, 479, 480, 481, 482, 483, 484, 485, 486, 487, 488, 489, 490, 491, 492, 493, 494, 495, 496, 497, 498, 499, 500],
      "AcquisitionTime": ["150606.320000", "150607.810000", "150609.300000", "150610.790000", "150612.280000", "150613.770000", "150615.260000", "150616.750000", "150618.240000", "150619.730000", "150621.220000", "150622.710000", "150624.200000", "150625.690000", "150627.180000", "150628.670000", "150630.160000", "150631.650000", "150633.140000", "150634.630000", "150636.120000", "150637.610000", "150639.100000", "150640.590000", "150642.080000", "150643.570000", "150645.060000", "150646.550000", "150648.040000", "150649.530000", "150651.020000", "150652.510000", "150654.000000", "150655.490000", "150656.980000", "150658.470000", "150659.960000", "150701.450000", "150702.940000", "150704.430000", "150705.920000", "150707.410000", "150708.900000", "150710.390000", "150711.880000", "150713.370000", "150714.860000", "150716.350000", "150717.840000", "150719.330000", "150720.820000", "150722.310000", "150723.800000", "150725.290000", "150726.780000", "150728.270000", "150729.760000", "150731.250000", "150732.740000", "150734.230000", "150735.720000", "150737.210000", "150738.700000", "150740.190000", "150741.680000", "150743.170000", "150744.660000", "150746.150000", "150747.640000", "150749.130000", "150750.620000", "150752.110000", "150753.600000", "150755.090000", "150756.580000", "150758.070000", "150759.560000", "150801.050000", "150802.540000", "150804.030000", "150805.520000", "150807.010000", "150808.500000", "150809.990000", "150811.480000", "150812.970000", "150814.460000", "150815.950000", "150817.440000", "150818.930000", "150820.420000", "150821.910000", "150823.400000", "150824.890000", "150826.380000", "150827.870000", "150829.360000", "150830.850000", "150832.340000", "150833.830000", "150835.320000", "150836.810000", "150838.300000", "150839.790000", "150841.280000", "150842.770000", "150844.260000", "150845.750000", "150847.240000", "150848.730000", "150850.220000", "150851.710000", "150853.200000", "150854.690000", "150856.180000", "150857.670000", "150859.160000", "150900.650000", "150902.140000", "150903.630000", "150905.120000", "150906.610000", "150908.100000", "150909.590000", "150911.080000", "150912.570000", "150914.060000", "150915.550000", "150917.040000", "150918.530000", "150920.020000", "150921.510000", "150923.000000", "150924.490000", "150925.980000", "150927.470000", "150928.960000", "150930.450000", "150931.940000", "150933.430000", "150934.920000", "150936.410000", "150937.900000", "150939.390000", "150940.880000", "150942.370000", "150943.860000", "150945.350000", "150946.840000", "150948.330000", "150949.820000", "150951.310000", "150952.800000", "150954.290000", "150955.780000", "150957.270000", "150958.760000", "151000.250000", "151001.740000", "151003.230000", "151004.720000", "151006.210000", "151007.700000", "151009.190000", "151010.680000", "151012.170000", "151013.660000", "151015.150000", "151016.640000", "151018.130000", "151019.620000", "151021.110000", "151022.600000", "151024.090000", "151025.580000", "151027.070000", "151028.560000", "151030.050000", "151031.540000", "151033.030000", "151034.520000", "151036.010000", "151037.500000", "151038.990000", "151040.480000", "151041.970000", "151043.460000", "151044.950000", "151046.440000", "151047.930000", "151049.420000", "151050.910000", "151052.400000", "151053.890000", "151055.380000", "151056.870000", "151058.360000", "151059.850000", "151101.340000", "151102.830000", "151104.320000", "151105.810000", "151107.300000", "151108.790000", "151110.280000", "151111.770000", "151113.260000", "151114.750000", "151116.240000", "151117.730000", "151119.220000", "151120.710000", "151122.200000", "151123.690000", "151125.180000", "151126.670000", "151128.160000", "151129.650000", "151131.140000", "151132.630000", "151134.120000", "151135.610000", "151137.100000", "151138.590000", "151140.080000", "151141.570000", "151143.060000", "151144.550000", "151146.040000", "151147.530000", "151149.020000", "151150.510000", "151152.000000", "151153.490000", "151154.980000", "151156.470000", "151157.960000", "151159.450000", "151200.940000", "151202.430000", "151203.920000", "151205.410000", "151206.900000", "151208.390000", "151209.880000", "151211.370000", "151212.860000", "151214.350000", "151215.840000", "151217.330000", "151218.820000", "151220.310000", "151221.800000", "151223.290000", "151224.780000", "151226.270000", "151227.760000", "151229.250000", "151230.740000", "151232.230000", "151233.720000", "151235.210000", "151236.700000", "151238.190000", "151239.680000", "151241.170000", "151242.660000", "151244.150000", "151245.640000", "151247.130000", "151248.620000", "151250.110000", "151251.600000", "151253.090000", "151254.580000", "151256.070000", "151257.560000", "151259.050000", "151300.540000", "151302.030000", "151303.520000", "151305.010000", "151306.500000", "151307.990000", "151309.480000", "151310.970000", "151312.460000", "151313.950000", "151315.440000", "151316.930000", "151318.420000", "151319.910000", "151321.400000", "151322.890000", "151324.380000", "151325.870000", "151327.360000", "151328.850000", "151330.340000", "151331.830000", "151333.320000", "151334.810000", "151336.300000", "151337.790000", "151339.280000", "151340.770000", "151342.260000", "151343.750000", "151345.240000", "151346.730000", "151348.220000", "151349.710000", "151351.200000", "151352.690000", "151354.180000", "151355.670000", "151357.160000", "151358.650000", "151400.140000", "151401.630000", "151403.120000", "151404.610000", "151406.100000", "151407.590000", "151409.080000", "151410.570000", "151412.060000", "151413.550000", "151415.040000", "151416.530000", "151418.020000", "151419.510000", "151421.000000", "151422.490000", "151423.980000", "151425.470000", "151426.960000", "151428.450000", "151429.940000", "151431.430000", "151432.920000", "151434.410000", "151435.900000", "151437.390000", "151438.880000", "151440.370000", "151441.860000", "151443.350000", "151444.840000", "151446.330000", "151447.820000", "151449.310000", "151450.800000", "151452.290000", "151453.780000", "151455.270000", "151456.760000", "151458.250000", "151459.740000", "151501.230000", "151502.720000", "151504.210000", "151505.700000", "151507.190000", "151508.680000", "151510.170000", "151511.660000", "151513.150000", "151514.640000", "151516.130000", "151517.620000", "151519.110000", "151520.600000", "151522.090000", "151523.580000", "151525.070000", "151526.560000", "151528.050000", "151529.540000", "151531.030000", "151532.520000", "151534.010000", "151535.500000", "151536.990000", "151538.480000", "151539.970000", "151541.460000", "151542.950000", "151544.440000", "151545.930000", "151547.420000", "151548.910000", "151550.400000", "151551.890000", "151553.380000", "151554.870000", "151556.360000", "151557.850000", "151559.340000", "151600.830000", "151602.320000", "151603.810000", "151605.300000", "151606.790000", "151608.280000", "151609.770000", "151611.260000", "151612.750000", "151614.240000", "151615.730000", "151617.220000", "151618.710000", "151620.200000", "151621.690000", "151623.180000", "151624.670000", "151626.160000", "151627.650000", "151629.140000", "151630.630000", "151632.120000", "151633.610000", "151635.100000", "151636.590000", "151638.080000", "151639.570000", "151641.060000", "151642.550000", "151644.040000", "151645.530000", "151647.020000", "151648.510000", "151650.000000", "151651.490000", "151652.980000", "151654.470000", "151655.960000", "151657.450000", "151658.940000", "151700.430000", "151701.920000", "151703.410000", "151704.900000", "151706.390000", "151707.880000", "151709.370000", "151710.860000", "151712.350000", "151713.840000", "151715.330000", "151716.820000", "151718.310000", "151719.800000", "151721.290000", "151722.780000", "151724.270000", "151725.760000", "151727.250000", "151728.740000", "151730.230000", "151731.720000", "151733.210000", "151734.700000", "151736.190000", "151737.680000", "151739.170000", "151740.660000", "151742.150000", "151743.640000", "151745.130000", "151746.620000", "151748.110000", "151749.600000", "151751.090000", "151752.580000", "151754.070000", "151755.560000", "151757.050000", "151758.540000", "151800.030000", "151801.520000", "151803.010000", "151804.500000", "151805.990000", "151807.480000", "151808.970000", "151810.460000", "151811.950000", "151813.440000", "151814.930000", "151816.420000", "151817.910000", "151819.400000", "151820.890000", "151822.380000", "151823.870000", "151825.360000", "151826.850000", "151828.340000", "151829.830000"],
      "ContentTime": ["150731.583000", "150731.587000", "150731.590000", "150731.593000", "150731.596000", "150731.599000", "150731.602000", "150731.605000", "150731.607000", "150731.610000", "150731.613000", "150731.616000", "150731.619000", "150731.622000", "150731.625000", "150731.628000", "150731.630000", "150731.636000", "150731.639000", "150731.642000", "150731.645000", "150731.648000", "150731.650000", "150731.653000", "150731.656000", "150731.659000", "150731.662000", "150731.665000", "150731.668000", "150731.671000", "150731.673000", "150731.676000", "150751.542000", "150751.545000", "150751.549000", "150751.551000", "150751.554000", "150751.557000", "150751.560000", "150751.563000", "150751.566000", "150751.569000", "150751.572000", "150751.575000", "150751.578000", "150751.580000", "150751.583000", "150751.586000", "150751.589000", "150751.592000", "150751.595000", "150751.598000", "150811.542000", "150811.545000", "150811.548000", "150811.551000", "150811.554000", "150811.556000", "150811.564000", "150811.567000", "150811.569000", "150811.572000", "150811.575000", "150811.578000", "150811.581000", "150811.584000", "150811.587000", "150811.590000", "150811.593000", "150811.596000", "150811.599000", "150811.602000", "150811.605000", "150831.542000", "150831.545000", "150831.548000", "150831.551000", "150831.554000", "150831.557000", "150831.559000", "150831.562000", "150831.565000", "150831.568000", "150831.571000", "150831.574000", "150831.577000", "150831.580000", "150831.583000", "150831.586000", "150831.588000", "150831.591000", "150831.594000", "150831.597000", "150911.541000", "150911.544000", "150911.547000", "150911.550000", "150911.553000", "150911.556000", "150911.559000", "150911.561000", "150911.564000", "150911.567000", "150911.570000", "150911.573000", "150911.576000", "150911.579000", "150911.582000", "150911.585000", "150911.588000", "150911.591000", "150911.593000", "150911.596000", "150911.599000", "150911.602000", "150911.605000", "150911.608000", "150911.611000", "150911.614000", "150911.617000", "150911.620000", "150911.623000", "150911.625000", "150911.628000", "150951.542000", "150951.545000", "150951.548000", "150951.551000", "150951.554000", "150951.557000", "150951.559000", "150951.562000", "150951.565000", "150951.568000", "150951.571000", "150951.574000", "150951.577000", "150951.580000", "150951.582000", "150951.585000", "150951.588000", "150951.591000", "150951.594000", "150951.597000", "150951.600000", "150951.603000", "150951.620000", "150951.623000", "150951.626000", "150951.629000", "150951.632000", "151031.542000", "151031.552000", "151031.555000", "151031.558000", "151031.561000", "151031.564000", "151031.567000", "151031.572000", "151031.575000", "151031.578000", "151031.581000", "151031.584000", "151031.588000", "151031.591000", "151031.594000", "151031.597000", "151031.600000", "151031.603000", "151031.605000", "151031.609000", "151031.611000", "151031.614000", "151031.617000", "151031.620000", "151031.623000", "151031.626000", "151051.542000", "151051.545000", "151051.548000", "151051.551000", "151051.554000", "151051.557000", "151051.560000", "151051.562000", "151051.565000", "151051.568000", "151051.571000", "151051.574000", "151051.577000", "151051.580000", "151131.541000", "151131.544000", "151131.547000", "151131.550000", "151131.553000", "151131.556000", "151131.559000", "151131.562000", "151131.565000", "151131.568000", "151131.571000", "151131.574000", "151131.576000", "151131.579000", "151131.582000", "151131.585000", "151131.588000", "151131.591000", "151131.594000", "151131.597000", "151131.600000", "151131.602000", "151131.605000", "151131.608000", "151131.611000", "151131.614000", "151131.617000", "151211.542000", "151211.545000", "151211.549000", "151211.552000", "151211.555000", "151211.558000", "151211.561000", "151211.564000", "151211.567000", "151211.570000", "151211.573000", "151211.576000", "151211.579000", "151211.581000", "151211.584000", "151211.587000", "151211.590000", "151211.593000", "151211.596000", "151211.599000", "151211.602000", "151211.605000", "151211.608000", "151211.611000", "151211.614000", "151211.616000", "151251.542000", "151251.545000", "151251.548000", "151251.551000", "151251.554000", "151251.556000", "151251.559000", "151251.562000", "151251.565000", "151251.568000", "151251.571000", "151251.574000", "151251.577000", "151251.590000", "151251.592000", "151251.595000", "151251.598000", "151251.601000", "151251.604000", "151251.607000", "151251.610000", "151251.613000", "151251.616000", "151251.618000", "151251.621000", "151251.624000", "151251.627000", "151331.542000", "151331.545000", "151331.548000", "151331.551000", "151331.554000", "151331.557000", "151331.560000", "151331.562000", "151331.565000", "151331.568000", "151331.571000", "151331.574000", "151331.577000", "151331.580000", "151331.583000", "151331.586000", "151331.589000", "151331.591000", "151331.594000", "151331.597000", "151331.600000", "151331.603000", "151331.606000", "151331.609000", "151331.612000", "151331.615000", "151331.617000", "151411.541000", "151411.544000", "151411.547000", "151411.550000", "151411.560000", "151411.562000", "151411.565000", "151411.568000", "151411.571000", "151411.574000", "151411.577000", "151411.580000", "151411.583000", "151411.586000", "151411.589000", "151411.592000", "151411.595000", "151411.597000", "151411.600000", "151411.603000", "151411.606000", "151411.609000", "151411.612000", "151411.615000", "151411.618000", "151411.621000", "151411.624000", "151451.542000", "151451.545000", "151451.548000", "151451.551000", "151451.554000", "151451.557000", "151451.560000", "151451.563000", "151451.566000", "151451.569000", "151451.572000", "151451.574000", "151451.577000", "151451.580000", "151451.583000", "151451.586000", "151451.589000", "151451.592000", "151451.595000", "151451.598000", "151451.601000", "151451.603000", "151451.606000", "151451.623000", "151451.625000", "151451.628000", "151451.631000", "151531.542000", "151531.545000", "151531.548000", "151531.551000", "151531.554000", "151531.557000", "151531.559000", "151531.562000", "151531.565000", "151531.568000", "151531.571000", "151531.574000", "151531.577000", "151531.580000", "151531.583000", "151531.586000", "151531.589000", "151531.592000", "151531.594000", "151531.597000", "151531.600000", "151531.603000", "151531.606000", "151531.609000", "151531.612000", "151531.615000", "151531.618000", "151611.541000", "151611.544000", "151611.547000", "151611.550000", "151611.553000", "151611.556000", "151611.559000", "151611.562000", "151611.565000", "151611.568000", "151611.570000", "151611.573000", "151611.576000", "151611.579000", "151611.582000", "151611.585000", "151611.588000", "151611.591000", "151611.594000", "151611.597000", "151611.600000", "151611.602000", "151611.605000", "151611.608000", "151611.611000", "151611.614000", "151611.617000", "151651.542000", "151651.545000", "151651.548000", "151651.551000", "151651.554000", "151651.557000", "151651.560000", "151651.563000", "151651.565000", "151651.568000", "151651.571000", "151651.574000", "151651.577000", "151651.580000", "151651.583000", "151651.586000", "151651.589000", "151651.592000", "151651.595000", "151651.598000", "151651.601000", "151651.603000", "151651.606000", "151651.609000", "151651.612000", "151651.615000", "151731.542000", "151731.545000", "151731.548000", "151731.551000", "151731.554000", "151731.557000", "151731.560000", "151731.563000", "151731.565000", "151731.568000", "151731.571000", "151731.574000", "151731.577000", "151731.580000", "151731.583000", "151731.586000", "151731.589000", "151731.592000", "151731.595000", "151731.597000", "151731.600000", "151731.603000", "151731.606000", "151731.609000", "151731.612000", "151731.615000", "151731.618000", "151811.542000", "151811.545000", "151811.548000", "151811.551000", "151811.554000", "151811.557000", "151811.560000", "151811.563000", "151811.566000", "151811.569000", "151811.573000", "151811.576000", "151811.578000", "151811.581000", "151811.584000", "151811.587000", "151811.590000", "151811.593000", "151811.596000", "151811.599000", "151811.602000", "151811.605000", "151811.607000", "151811.610000", "151811.613000", "151811.616000", "151811.619000", "151831.543000", "151831.546000", "151831.549000", "151831.552000", "151831.555000", "151831.558000", "151831.561000", "151831.564000", "151831.567000", "151831.569000", "151831.572000", "151831.575000", "151831.578000", "151831.581000"],
