{
  "AcquisitionMatrixPE": 104,
  "AcquisitionNumber": 1,
  "AcquisitionTime": "14:53:11.585000",
  "BandwidthPerPixelPhaseEncode": 17.17,
  "BaseResolution": 104,
  "BodyPartExamined": "BRAIN",
  "CoilString": "HC1-7;NC1_2",
  "ConsistencyInfo": "N4_VE11C_LATEST_20160120",
  "ConversionSoftware": "dcm2niix",
  "ConversionSoftwareVersion": "v1.0.20190720  (JP2:OpenJPEG) GCC7.3.0",
  "DerivedVendorReportedEchoSpacing": 0.000560011,
  "DeviceSerialNumber": "167006",
  "DwellTime": 2.1e-06,
  "EchoTime": 0.037,
  "EchoTrainLength": 104,
  "EffectiveEchoSpacing": 0.000560011,
  "FlipAngle": 52,
  "ImageComments": "Unaliased_MB4_PE3_LB",
  "ImageOrientationPatientDICOM": [0.999915, -0.0090472, 0.0094043, 0.012566, 0.861921, -0.506887],
  "ImageType": [
    "ORIGINAL",
    "PRIMARY",
    "M",
    "MB",
    "ND",
    "MOSAIC"
],
  "ImagingFrequency": 123.259,
  "InPlanePhaseEncodingDirectionDICOM": "COL",
  "InstitutionAddress": "Chemin_Queen-Mary_4565_Montreal_District_CA_H3W_1W5",
  "InstitutionName": "IUGM",
  "InstitutionalDepartmentName": "Department",
  "MRAcquisitionType": "2D",
  "MagneticFieldStrength": 3,
  "Manufacturer": "Siemens",
  "ManufacturersModelName": "Prisma_fit",
  "Modality": "MR",
  "MultibandAccelerationFactor": 4,
  "PartialFourier": 1,
  "PatientPosition": "HFS",
  "PercentPhaseFOV": 100,
  "PhaseEncodingDirection": "j",
  "PhaseEncodingSteps": 104,
  "PhaseResolution": 1,
  "PixelBandwidth": 2290,
  "ProcedureStepDescription": "video_friends",
  "ProtocolName": "func_task-friends-s02e06a",
  "PulseSequenceDetails": "%CustomerSeq%_cmrr_mbep2d_bold",
  "ReceiveCoilActiveElements": "HC1-7;NC1,2",
  "ReceiveCoilName": "HeadNeck_64",
  "ReconMatrixPE": 104,
  "RepetitionTime": 1.49,
  "SAR": 0.0336282,
  "ScanOptions": "FS",
  "ScanningSequence": "EP",
  "SequenceName": "epfid2d1_104",
  "SequenceVariant": "SK_SS",
  "SeriesDescription": "func_task-friends-s02e06a",
  "SeriesNumber": 17,
  "ShimSetting": [631, -7197, -8872, 418, -25, -147, 38, -19],
  "SliceThickness": 2,
  "SliceTiming": [0, 0.7825, 0.0975, 0.8825, 0.195, 0.98, 0.2925, 1.0775, 0.3925, 1.175, 0.49, 1.2725, 0.5875, 1.3725, 0.685, 0, 0.7825, 0.0975, 0.8825, 0.195, 0.98, 0.2925, 1.0775, 0.3925, 1.175, 0.49, 1.2725, 0.5875, 1.3725, 0.685, 0, 0.7825, 0.0975, 0.8825, 0.195, 0.98, 0.2925, 1.0775, 0.3925, 1.175, 0.49, 1.2725, 0.5875, 1.3725, 0.685, 0, 0.7825, 0.0975, 0.8825, 0.195, 0.98, 0.2925, 1.0775, 0.3925, 1.175, 0.49, 1.2725, 0.5875, 1.3725, 0.685],
  "SoftwareVersions": "syngo_MR_E11",
  "SpacingBetweenSlices": 2,
  "StationName": "MRC35049",
  "TaskName": "friends",
  "TotalReadoutTime": 0.0576811,
  "TxRefAmp": 241.456,
  "WipMemBlock": "6df46f75-e46b-4761-8d0f-3229fade627f||Sequence: R016 ve11c/master r/e634e98; Dec 19 2017 11:00:25 by eja",
  "dcmmeta_affine": [
    [-1.999829649925232, 0.025131922215223312, 0.0070397257804870605, 101.03710174560547],
    [0.01809440553188324, 1.7238423824310303, -1.013923168182373, -61.02138900756836],
    [0.018808607012033463, 1.0137732028961182, 1.7239229679107666, -100.41730499267578],
    [0.0, 0.0, 0.0, 1.0]
],
  "dcmmeta_reorient_transform": [
    [0.0, -1.0, 0.0, 103.0],
    [1.0, 0.0, 0.0, 0.0],
    [0.0, 0.0, 1.0, 0.0],
    [0.0, 0.0, 0.0, 1.0]
],
  "dcmmeta_shape": [104, 104, 60, 500],
  "dcmmeta_slice_dim": 2,
  "dcmmeta_version": 0.6,
  "global": {
    "const": {
      "AcquisitionMatrix": [104, 0, 0, 104],
      "AngioFlag": "N",
      "BitsAllocated": 16,
      "BitsStored": 16,
      "BodyPartExamined": "BRAIN",
      "Columns": 832,
      "EchoNumbers": 1,
      "EchoTime": 37.0,
      "EchoTrainLength": 104,
      "FlipAngle": 52.0,
      "HighBit": 15,
      "ImageOrientationPatient": [0.99991484996974, -0.0090472029241, 0.00940430376136, 0.01256596102178, 0.86192116459913, -0.5068865776874],
      "ImagePositionPatient": [-840.71172379657, -737.42661394262, 366.16842787086],
      "ImageType": [
        "ORIGINAL",
        "PRIMARY",
        "M",
        "MB",
        "ND",
        "MOSAIC"
],
      "ImagedNucleus": "1H",
      "ImagingFrequency": 123.259124,
      "InPlanePhaseEncodingDirection": "COL",
      "MRAcquisitionType": "2D",
      "MagneticFieldStrength": 3.0,
      "Manufacturer": "SIEMENS",
      "ManufacturerModelName": "Prisma_fit",
      "Modality": "MR",
      "NumberOfAverages": 1.0,
      "NumberOfPhaseEncodingSteps": 104,
      "PercentPhaseFieldOfView": 100.0,
      "PercentSampling": 100.0,
      "PerformedProcedureStepStartTime": "134640.303000",
      "PhotometricInterpretation": "MONOCHROME2",
      "PixelBandwidth": 2290.0,
      "PixelRepresentation": 0,
      "PixelSpacing": [2.0, 2.0],
      "ProtocolName": "func_task-friends-s02e06a",
      "RepetitionTime": 1490.0,
      "Rows": 832,
      "SAR": 0.03362822428226,
      "SamplesPerPixel": 1,
      "ScanOptions": "FS",
      "ScanningSequence": "EP",
      "SequenceName": "epfid2d1_104",
      "SequenceVariant": [
        "SK",
        "SS"
],
      "SeriesDescription": "func_task-friends-s02e06a",
      "SeriesNumber": 17,
      "SeriesTime": "145437.329000",
      "SliceLocation": -55.264706898074,
      "SliceThickness": 2.0,
      "SmallestImagePixelValue": 0,
      "SoftwareVersions": "syngo MR E11",
      "SpacingBetweenSlices": 2.0000000339916,
      "SpecificCharacterSet": "ISO_IR 100",
      "StudyID": "1",
      "StudyTime": "134640.209000",
      "TransmitCoilName": "Body",
      "VariableFlipAngleFlag": "N",
      "WindowCenterWidthExplanation": "Algo1",
      "dBdt": 0.0},
    "slices": {}
  },
  "time": {
    "samples": {
      "AcquisitionNumber": [1, 2, 3, 4, 5, 6, 7, 8, 9, 10, 11, 12, 13, 14, 15, 16, 17, 18, 19, 20, 21, 22, 23, 24, 25, 26, 27, 28, 29, 30, 31, 32, 33, 34, 35, 36, 37, 38, 39, 40, 41, 42, 43, 44, 45, 46, 47, 48, 49, 50, 51, 52, 53, 54, 55, 56, 57, 58, 59, 60, 61, 62, 63, 64, 65, 66, 67, 68, 69, 70, 71, 72, 73, 74, 75, 76, 77, 78, 79, 80, 81, 82, 83, 84, 85, 86, 87, 88, 89, 90, 91, 92, 93, 94, 95, 96, 97, 98, 99, 100, 101, 102, 103, 104, 105, 106, 107, 108, 109, 110, 111, 112, 113, 114, 115, 116, 117, 118, 119, 120, 121, 122, 123, 124, 125, 126, 127, 128, 129, 130, 131, 132, 133, 134, 135, 136, 137, 138, 139, 140, 141, 142, 143, 144, 145, 146, 147, 148, 149, 150, 151, 152, 153, 154, 155, 156, 157, 158, 159, 160, 161, 162, 163, 164, 165, 166, 167, 168, 169, 170, 171, 172, 173, 174, 175, 176, 177, 178, 179, 180, 181, 182, 183, 184, 185, 186, 187, 188, 189, 190, 191, 192, 193, 194, 195, 196, 197, 198, 199, 200, 201, 202, 203, 204, 205, 206, 207, 208, 209, 210, 211, 212, 213, 214, 215, 216, 217, 218, 219, 220, 221, 222, 223, 224, 225, 226, 227, 228, 229, 230, 231, 232, 233, 234, 235, 236, 237, 238, 239, 240, 241, 242, 243, 244, 245, 246, 247, 248, 249, 250, 251, 252, 253, 254, 255, 256, 257, 258, 259, 260, 261, 262, 263, 264, 265, 266, 267, 268, 269, 270, 271, 272, 273, 274, 275, 276, 277, 278, 279, 280, 281, 282, 283, 284, 285, 286, 287, 288, 289, 290, 291, 292, 293, 294, 295, 296, 297, 298, 299, 300, 301, 302, 303, 304, 305, 306, 307, 308, 309, 310, 311, 312, 313, 314, 315, 316, 317, 318, 319, 320, 321, 322, 323, 324, 325, 326, 327, 328, 329, 330, 331, 332, 333, 334, 335, 336, 337, 338, 339, 340, 341, 342, 343, 344, 345, 346, 347, 348, 349, 350, 351, 352, 353, 354, 355, 356, 357, 358, 359, 360, 361, 362, 363, 364, 365, 366, 367, 368, 369, 370, 371, 372, 373, 374, 375, 376, 377, 378, 379, 380, 381, 382, 383, 384, 385, 386, 387, 388, 389, 390, 391, 392, 393, 394, 395, 396, 397, 398, 399, 400, 401, 402, 403, 404, 405, 406, 407, 408, 409, 410, 411, 412, 413, 414, 415, 416, 417, 418, 419, 420, 421, 422, 423, 424, 425, 426, 427, 428, 429, 430, 431, 432, 433, 434, 435, 436, 437, 438, 439, 440, 441, 442, 443, 444, 445, 446, 447, 448, 449, 450, 451, 452, 453, 454, 455, 456, 457, 458, 459, 460, 461, 462, 463, 464, 465, 466, 467, 468, 469, 470, 471, 472, 473, 474, 475, 476, 477, 478, 479, 480, 481, 482, 483, 484, 485, 486, 487, 488, 489, 490, 491, 492, 493, 494, 495, 496, 497, 498, 499, 500],
      "AcquisitionTime": ["145311.585000", "145313.075000", "145314.565000", "145316.055000", "145317.545000", "145319.035000", "145320.525000", "145322.015000", "145323.505000", "145324.995000", "145326.485000", "145327.975000", "145329.465000", "145330.955000", "145332.445000", "145333.935000", "145335.425000", "145336.915000", "145338.405000", "145339.895000", "145341.385000", "145342.875000", "145344.365000", "145345.855000", "145347.345000", "145348.835000", "145350.325000", "145351.815000", "145353.305000", "145354.795000", "145356.285000", "145357.775000", "145359.265000", "145400.755000", "145402.245000", "145403.735000", "145405.225000", "145406.715000", "145408.205000", "145409.695000", "145411.185000", "145412.675000", "145414.165000", "145415.655000", "145417.145000", "145418.635000", "145420.125000", "145421.615000", "145423.105000", "145424.595000", "145426.085000", "145427.575000", "145429.065000", "145430.555000", "145432.045000", "145433.535000", "145435.025000", "145436.515000", "145438.005000", "145439.495000", "145440.985000", "145442.475000", "145443.965000", "145445.455000", "145446.945000", "145448.435000", "145449.925000", "145451.415000", "145452.905000", "145454.395000", "145455.885000", "145457.375000", "145458.865000", "145500.355000", "145501.845000", "145503.335000", "145504.825000", "145506.315000", "145507.805000", "145509.295000", "145510.785000", "145512.275000", "145513.765000", "145515.255000", "145516.745000", "145518.235000", "145519.725000", "145521.215000", "145522.705000", "145524.195000", "145525.685000", "145527.175000", "145528.665000", "145530.155000", "145531.645000", "145533.135000", "145534.625000", "145536.115000", "145537.605000", "145539.095000", "145540.585000", "145542.075000", "145543.565000", "145545.055000", "145546.545000", "145548.035000", "145549.525000", "145551.015000", "145552.505000", "145553.995000", "145555.485000", "145556.975000", "145558.465000", "145559.955000", "145601.445000", "145602.935000", "145604.425000", "145605.915000", "145607.405000", "145608.895000", "145610.385000", "145611.875000", "145613.365000", "145614.855000", "145616.345000", "145617.835000", "145619.325000", "145620.815000", "145622.305000", "145623.795000", "145625.285000", "145626.775000", "145628.265000", "145629.755000", "145631.245000", "145632.735000", "145634.225000", "145635.715000", "145637.205000", "145638.695000", "145640.185000", "145641.675000", "145643.165000", "145644.655000", "145646.145000", "145647.635000", "145649.125000", "145650.615000", "145652.105000", "145653.595000", "145655.085000", "145656.575000", "145658.065000", "145659.555000", "145701.045000", "145702.535000", "145704.025000", "145705.515000", "145707.005000", "145708.495000", "145709.985000", "145711.475000", "145712.965000", "145714.455000", "145715.945000", "145717.435000", "145718.925000", "145720.415000", "145721.905000", "145723.395000", "145724.885000", "145726.375000", "145727.865000", "145729.355000", "145730.845000", "145732.335000", "145733.825000", "145735.315000", "145736.805000", "145738.295000", "145739.785000", "145741.275000", "145742.765000", "145744.255000", "145745.745000", "145747.235000", "145748.725000", "145750.215000", "145751.705000", "145753.195000", "145754.685000", "145756.175000", "145757.665000", "145759.155000", "145800.645000", "145802.135000", "145803.625000", "145805.115000", "145806.605000", "145808.095000", "145809.585000", "145811.075000", "145812.565000", "145814.055000", "145815.545000", "145817.035000", "145818.525000", "145820.015000", "145821.505000", "145822.995000", "145824.485000", "145825.975000", "145827.465000", "145828.955000", "145830.445000", "145831.935000", "145833.425000", "145834.915000", "145836.405000", "145837.895000", "145839.385000", "145840.875000", "145842.365000", "145843.855000", "145845.345000", "145846.835000", "145848.325000", "145849.815000", "145851.305000", "145852.795000", "145854.285000", "145855.775000", "145857.265000", "145858.755000", "145900.245000", "145901.735000", "145903.225000", "145904.715000", "145906.205000", "145907.695000", "145909.185000", "145910.675000", "145912.165000", "145913.655000", "145915.145000", "145916.635000", "145918.125000", "145919.615000", "145921.105000", "145922.595000", "145924.085000", "145925.575000", "145927.065000", "145928.555000", "145930.045000", "145931.535000", "145933.025000", "145934.515000", "145936.005000", "145937.495000", "145938.985000", "145940.475000", "145941.965000", "145943.455000", "145944.945000", "145946.435000", "145947.925000", "145949.415000", "145950.905000", "145952.395000", "145953.885000", "145955.375000", "145956.865000", "145958.355000", "145959.845000", "150001.335000", "150002.825000", "150004.315000", "150005.805000", "150007.295000", "150008.785000", "150010.275000", "150011.765000", "150013.255000", "150014.745000", "150016.235000", "150017.725000", "150019.215000", "150020.705000", "150022.195000", "150023.685000", "150025.175000", "150026.665000", "150028.155000", "150029.645000", "150031.135000", "150032.625000", "150034.115000", "150035.605000", "150037.095000", "150038.585000", "150040.075000", "150041.565000", "150043.055000", "150044.545000", "150046.035000", "150047.525000", "150049.015000", "150050.505000", "150051.995000", "150053.485000", "150054.975000", "150056.465000", "150057.955000", "150059.445000", "150100.935000", "150102.425000", "150103.915000", "150105.405000", "150106.895000", "150108.385000", "150109.875000", "150111.365000", "150112.855000", "150114.345000", "150115.835000", "150117.325000", "150118.815000", "150120.305000", "150121.795000", "150123.285000", "150124.775000", "150126.265000", "150127.755000", "150129.245000", "150130.735000", "150132.225000", "150133.715000", "150135.205000", "150136.695000", "150138.185000", "150139.675000", "150141.165000", "150142.655000", "150144.145000", "150145.635000", "150147.125000", "150148.615000", "150150.105000", "150151.595000", "150153.085000", "150154.575000", "150156.065000", "150157.555000", "150159.045000", "150200.535000", "150202.025000", "150203.515000", "150205.005000", "150206.495000", "150207.985000", "150209.475000", "150210.965000", "150212.455000", "150213.945000", "150215.435000", "150216.925000", "150218.415000", "150219.905000", "150221.395000", "150222.885000", "150224.375000", "150225.865000", "150227.355000", "150228.845000", "150230.335000", "150231.825000", "150233.315000", "150234.805000", "150236.295000", "150237.785000", "150239.275000", "150240.765000", "150242.255000", "150243.745000", "150245.235000", "150246.725000", "150248.215000", "150249.705000", "150251.195000", "150252.685000", "150254.175000", "150255.665000", "150257.155000", "150258.645000", "150300.135000", "150301.625000", "150303.115000", "150304.605000", "150306.095000", "150307.585000", "150309.075000", "150310.565000", "150312.055000", "150313.545000", "150315.035000", "150316.525000", "150318.015000", "150319.505000", "150320.995000", "150322.485000", "150323.975000", "150325.465000", "150326.955000", "150328.445000", "150329.935000", "150331.425000", "150332.915000", "150334.405000", "150335.895000", "150337.385000", "150338.875000", "150340.365000", "150341.855000", "150343.345000", "150344.835000", "150346.325000", "150347.815000", "150349.305000", "150350.795000", "150352.285000", "150353.775000", "150355.265000", "150356.755000", "150358.245000", "150359.735000", "150401.225000", "150402.715000", "150404.205000", "150405.695000", "150407.185000", "150408.675000", "150410.165000", "150411.655000", "150413.145000", "150414.635000", "150416.125000", "150417.615000", "150419.105000", "150420.595000", "150422.085000", "150423.575000", "150425.065000", "150426.555000", "150428.045000", "150429.535000", "150431.025000", "150432.515000", "150434.005000", "150435.495000", "150436.985000", "150438.475000", "150439.965000", "150441.455000", "150442.945000", "150444.435000", "150445.925000", "150447.415000", "150448.905000", "150450.395000", "150451.885000", "150453.375000", "150454.865000", "150456.355000", "150457.845000", "150459.335000", "150500.825000", "150502.315000", "150503.805000", "150505.295000", "150506.785000", "150508.275000", "150509.765000", "150511.255000", "150512.745000", "150514.235000", "150515.725000", "150517.215000", "150518.705000", "150520.195000", "150521.685000", "150523.175000", "150524.665000", "150526.155000", "150527.645000", "150529.135000", "150530.625000", "150532.115000", "150533.605000", "150535.095000"],
      "ContentTime": ["145437.331000", "145437.341000", "145437.343000", "145437.346000", "145437.349000", "145437.352000", "145437.355000", "145437.358000", "145437.361000", "145437.364000", "145437.367000", "145437.370000", "145437.373000", "145437.376000", "145437.379000", "145437.382000", "145437.385000", "145437.388000", "145437.391000", "145437.394000", "145437.401000", "145437.404000", "145437.407000", "145437.410000", "145437.413000", "145437.415000", "145437.418000", "145437.421000", "145437.424000", "145437.427000", "145437.430000", "145437.433000", "145457.293000", "145457.296000", "145457.306000", "145457.309000", "145457.312000", "145457.315000", "145457.318000", "145457.321000", "145457.324000", "145457.327000", "145457.330000", "145457.333000", "145457.336000", "145457.339000", "145457.342000", "145457.352000", "145457.355000", "145457.357000", "145457.360000", "145457.363000", "145517.294000", "145517.297000", "145517.300000", "145517.303000", "145517.305000", "145517.308000", "145517.311000", "145517.314000", "145517.317000", "145517.321000", "145517.324000", "145517.327000", "145517.330000", "145517.333000", "145517.336000", "145517.339000", "145517.342000", "145517.344000", "145517.347000", "145517.350000", "145537.294000", "145537.298000", "145537.301000", "145537.304000", "145537.307000", "145537.310000", "145537.318000", "145537.321000", "145537.324000", "145537.326000", "145537.329000", "145537.332000", "145537.335000", "145537.338000", "145537.341000", "145537.344000", "145537.346000", "145537.349000", "145537.352000", "145537.355000", "145537.358000", "145617.294000", "145617.297000", "145617.300000", "145617.303000", "145617.306000", "145617.308000", "145617.311000", "145617.314000", "145617.317000", "145617.320000", "145617.323000", "145617.326000", "145617.329000", "145617.340000", "145617.343000", "145617.346000", "145617.348000", "145617.351000", "145617.354000", "145617.357000", "145617.360000", "145617.363000", "145617.366000", "145617.369000", "145617.371000", "145617.374000", "145617.377000", "145617.380000", "145617.383000", "145617.386000", "145617.389000", "145657.294000", "145657.297000", "145657.300000", "145657.303000", "145657.306000", "145657.309000", "145657.311000", "145657.314000", "145657.317000", "145657.320000", "145657.323000", "145657.326000", "145657.329000", "145657.333000", "145657.336000", "145657.339000", "145657.342000", "145657.344000", "145657.347000", "145657.350000", "145657.353000", "145657.356000", "145657.359000", "145657.362000", "145657.365000", "145657.368000", "145737.294000", "145737.297000", "145737.300000", "145737.303000", "145737.305000", "145737.308000", "145737.311000", "145737.314000", "145737.317000", "145737.320000", "145737.323000", "145737.326000", "145737.329000", "145737.332000", "145737.335000", "145737.337000", "145737.340000", "145737.343000", "145737.346000", "145737.349000", "145737.352000", "145737.355000", "145737.358000", "145737.361000", "145737.364000", "145737.366000", "145737.369000", "145817.294000", "145817.297000", "145817.300000", "145817.303000", "145817.306000", "145817.309000", "145817.312000", "145817.315000", "145817.317000", "145817.320000", "145817.323000", "145817.326000", "145817.329000", "145817.332000", "145817.335000", "145817.338000", "145817.341000", "145817.344000", "145817.346000", "145817.349000", "145817.352000", "145817.355000", "145817.358000", "145817.361000", "145817.364000", "145817.367000", "145817.370000", "145857.294000", "145857.297000", "145857.300000", "145857.303000", "145857.306000", "145857.309000", "145857.311000", "145857.314000", "145857.317000", "145857.320000", "145857.323000", "145857.326000", "145857.329000", "145857.332000", "145857.335000", "145857.337000", "145857.340000", "145857.343000", "145857.346000", "145857.349000", "145857.352000", "145857.355000", "145857.358000", "145857.361000", "145857.364000", "145857.366000", "145857.369000", "145937.293000", "145937.296000", "145937.299000", "145937.302000", "145937.305000", "145937.307000", "145937.310000", "145937.313000", "145937.316000", "145937.319000", "145937.322000", "145937.325000", "145937.328000", "145937.331000", "145937.334000", "145937.337000", "145937.339000", "145937.342000", "145937.345000", "145937.348000", "145937.351000", "145937.354000", "145937.357000", "145937.360000", "145937.363000", "145937.365000", "145937.368000", "150017.294000", "150017.297000", "150017.300000", "150017.303000", "150017.306000", "150017.308000", "150017.311000", "150017.314000", "150017.317000", "150017.320000", "150017.323000", "150017.326000", "150017.329000", "150017.332000", "150017.334000", "150017.337000", "150017.340000", "150017.343000", "150017.346000", "150017.349000", "150017.352000", "150017.355000", "150017.358000", "150017.361000", "150017.363000", "150017.366000", "150017.369000", "150037.294000", "150037.297000", "150037.300000", "150037.303000", "150037.306000", "150037.309000", "150037.311000", "150037.314000", "150037.317000", "150037.326000", "150037.329000", "150037.332000", "150037.335000", "150117.294000", "150117.297000", "150117.300000", "150117.303000", "150117.306000", "150117.308000", "150117.311000", "150117.314000", "150117.317000", "150117.320000", "150117.323000", "150117.326000", "150117.329000", "150117.332000", "150117.335000", "150117.337000", "150117.340000", "150117.343000", "150117.346000", "150117.349000", "150117.352000", "150117.355000", "150117.358000", "150117.361000", "150117.363000", "150117.366000", "150117.369000", "150157.293000", "150157.296000", "150157.299000", "150157.302000", "150157.305000", "150157.307000", "150157.310000", "150157.313000", "150157.316000", "150157.319000", "150157.322000", "150157.325000", "150157.328000", "150157.331000", "150157.334000", "150157.336000", "150157.339000", "150157.342000", "150157.345000", "150157.348000", "150157.351000", "150157.354000", "150157.357000", "150157.360000", "150157.362000", "150157.365000", "150157.368000", "150237.294000", "150237.297000", "150237.300000", "150237.303000", "150237.306000", "150237.309000", "150237.312000", "150237.314000", "150237.317000", "150237.320000", "150237.323000", "150237.326000", "150237.329000", "150237.332000", "150237.335000", "150237.338000", "150237.341000", "150237.344000", "150237.346000", "150237.349000", "150237.352000", "150237.355000", "150237.358000", "150237.361000", "150237.364000", "150237.367000", "150237.370000", "150317.294000", "150317.297000", "150317.300000", "150317.303000", "150317.306000", "150317.309000", "150317.312000", "150317.314000", "150317.321000", "150317.324000", "150317.327000", "150317.329000", "150317.332000", "150317.335000", "150317.338000", "150317.341000", "150317.344000", "150317.347000", "150317.350000", "150317.352000", "150317.355000", "150317.358000", "150317.361000", "150317.364000", "150317.367000", "150317.370000", "150317.373000", "150357.294000", "150357.297000", "150357.300000", "150357.303000", "150357.306000", "150357.309000", "150357.311000", "150357.314000", "150357.317000", "150357.320000", "150357.323000", "150357.326000", "150357.329000", "150357.332000", "150357.335000", "150357.338000", "150357.341000", "150357.343000", "150357.346000", "150357.349000", "150357.352000", "150357.355000", "150357.358000", "150357.361000", "150357.364000", "150357.368000", "150437.294000", "150437.297000", "150437.300000", "150437.303000", "150437.306000", "150437.309000", "150437.312000", "150437.315000", "150437.317000", "150437.320000", "150437.323000", "150437.326000", "150437.329000", "150437.332000", "150437.335000", "150437.338000", "150437.341000", "150437.344000", "150437.347000", "150437.349000", "150437.352000", "150437.355000", "150437.358000", "150437.361000", "150437.364000", "150437.367000", "150437.370000", "150517.294000", "150517.297000", "150517.300000", "150517.303000", "150517.306000", "150517.309000", "150517.312000", "150517.314000", "150517.317000", "150517.320000", "150517.323000", "150517.326000", "150517.329000", "150517.332000", "150517.335000", "150517.338000", "150517.341000", "150517.344000", "150517.347000", "150517.349000", "150517.352000", "150517.355000", "150517.358000", "150517.371000", "150517.385000", "150517.388000", "150517.391000", "150537.385000", "150537.388000", "150537.391000", "150537.393000", "150537.396000", "150537.399000", "150537.402000", "150537.405000", "150537.408000", "150537.411000", "150537.414000", "150537.417000", "150537.420000", "150537.423000"],
