{
  "AcquisitionMatrixPE": 104,
  "AcquisitionNumber": 1,
  "AcquisitionTime": "18:12:23.907500",
  "BandwidthPerPixelPhaseEncode": 17.17,
  "BaseResolution": 104,
  "BodyPartExamined": "BRAIN",
  "CoilString": "HC1-7;NC1_2",
  "ConsistencyInfo": "N4_VE11C_LATEST_20160120",
  "ConversionSoftware": "dcm2niix",
  "ConversionSoftwareVersion": "v1.0.20190902",
  "DerivedVendorReportedEchoSpacing": 0.000560011,
  "DeviceSerialNumber": "167006",
  "DwellTime": 2.1e-06,
  "EchoTime": 0.037,
  "EchoTrainLength": 104,
  "EffectiveEchoSpacing": 0.000560011,
  "FlipAngle": 52,
  "ImageComments": "Unaliased_MB4_PE3_LB",
  "ImageOrientationPatientDICOM": [0.999875, 0.0145419, 0.00617042, -0.0129145, 0.977439, -0.210825],
  "ImageType": [
    "ORIGINAL",
    "PRIMARY",
    "M",
    "MB",
    "ND",
    "MOSAIC"
],
  "ImagingFrequency": 123.259,
  "InPlanePhaseEncodingDirectionDICOM": "COL",
  "InstitutionAddress": "Chemin_Queen-Mary_4565_Montreal_District_CA_H3W_1W5",
  "InstitutionName": "IUGM",
  "InstitutionalDepartmentName": "Department",
  "MRAcquisitionType": "2D",
  "MagneticFieldStrength": 3,
  "Manufacturer": "Siemens",
  "ManufacturersModelName": "Prisma_fit",
  "Modality": "MR",
  "MultibandAccelerationFactor": 4,
  "PartialFourier": 1,
  "PatientPosition": "HFS",
  "PercentPhaseFOV": 100,
  "PhaseEncodingDirection": "j",
  "PhaseEncodingSteps": 104,
  "PhaseResolution": 1,
  "PixelBandwidth": 2290,
  "ProcedureStepDescription": "video_friends",
  "ProtocolName": "func_task-friends-s05e06b",
  "PulseSequenceDetails": "%CustomerSeq%_cmrr_mbep2d_bold",
  "ReceiveCoilActiveElements": "HC1-7;NC1,2",
  "ReceiveCoilName": "HeadNeck_64",
  "ReconMatrixPE": 104,
  "RepetitionTime": 1.49,
  "SAR": 0.0291076,
  "ScanOptions": "FS",
  "ScanningSequence": "EP",
  "SequenceName": "epfid2d1_104",
  "SequenceVariant": "SK_SS",
  "SeriesDescription": "func_task-friends-s05e06b",
  "SeriesNumber": 15,
  "ShimSetting": [633, -7237, -8740, 745, 17, -38, 126, 17],
  "SliceThickness": 2,
  "SliceTiming": [0, 0.785, 0.0975, 0.8825, 0.1975, 0.98, 0.295, 1.0775, 0.3925, 1.1775, 0.49, 1.275, 0.5875, 1.3725, 0.6875, 0, 0.785, 0.0975, 0.8825, 0.1975, 0.98, 0.295, 1.0775, 0.3925, 1.1775, 0.49, 1.275, 0.5875, 1.3725, 0.6875, 0, 0.785, 0.0975, 0.8825, 0.1975, 0.98, 0.295, 1.0775, 0.3925, 1.1775, 0.49, 1.275, 0.5875, 1.3725, 0.6875, 0, 0.785, 0.0975, 0.8825, 0.1975, 0.98, 0.295, 1.0775, 0.3925, 1.1775, 0.49, 1.275, 0.5875, 1.3725, 0.6875],
  "SoftwareVersions": "syngo_MR_E11",
  "SpacingBetweenSlices": 2,
  "StationName": "MRC35049",
  "TaskName": "s05e06b",
  "TotalReadoutTime": 0.0576811,
  "TxRefAmp": 205.537,
  "WipMemBlock": "2ad70264-3a61-4a50-8f9d-93d01a7cafe9||Sequence: R016 ve11c/master r/e634e98; Dec 19 2017 11:00:25 by eja",
  "dcmmeta_affine": [
    [-1.9997504949569702, -0.025829019024968147, 0.01819397695362568, 105.24714660644531],
    [-0.029083717614412308, 1.9548771381378174, -0.4214373528957367, -85.58679962158203],
    [0.012340838089585304, 0.42164933681488037, 1.955008864402771, -45.81932067871094],
    [0.0, 0.0, 0.0, 1.0]
],
  "dcmmeta_reorient_transform": [
    [0.0, -1.0, 0.0, 103.0],
    [1.0, 0.0, 0.0, 0.0],
    [0.0, 0.0, 1.0, 0.0],
    [0.0, 0.0, 0.0, 1.0]
],
  "dcmmeta_shape": [104, 104, 60, 493],
  "dcmmeta_slice_dim": 2,
  "dcmmeta_version": 0.6,
  "global": {
    "const": {
      "AcquisitionMatrix": [104, 0, 0, 104],
      "AngioFlag": "N",
      "BitsAllocated": 16,
      "BitsStored": 16,
      "BodyPartExamined": "BRAIN",
      "Columns": 832,
      "EchoNumbers": 1,
      "EchoTime": 37.0,
      "EchoTrainLength": 104,
      "FlipAngle": 52.0,
      "HighBit": 15,
      "ImageOrientationPatient": [0.99987522234512, 0.0145418592193, 0.00617041900913, -0.0129145091135, 0.97743857867256, -0.2108246673825],
      "ImagePositionPatient": [-821.09415644356, -837.92730985917, 146.59885365906],
      "ImageType": [
        "ORIGINAL",
        "PRIMARY",
        "M",
        "MB",
        "ND",
        "MOSAIC"
],
      "ImagedNucleus": "1H",
      "ImagingFrequency": 123.259043,
      "InPlanePhaseEncodingDirection": "COL",
      "MRAcquisitionType": "2D",
      "MagneticFieldStrength": 3.0,
      "Manufacturer": "SIEMENS",
      "ManufacturerModelName": "Prisma_fit",
      "Modality": "MR",
      "NumberOfAverages": 1.0,
      "NumberOfPhaseEncodingSteps": 104,
      "PercentPhaseFieldOfView": 100.0,
      "PercentSampling": 100.0,
      "PerformedProcedureStepStartTime": "165636.042000",
      "PhotometricInterpretation": "MONOCHROME2",
      "PixelBandwidth": 2290.0,
      "PixelRepresentation": 0,
      "PixelSpacing": [2.0, 2.0],
      "ProtocolName": "func_task-friends-s05e06b",
      "RepetitionTime": 1490.0,
      "Rows": 832,
      "SAR": 0.0291075569177,
      "SamplesPerPixel": 1,
      "ScanOptions": "FS",
      "ScanningSequence": "EP",
      "SequenceName": "epfid2d1_104",
      "SequenceVariant": [
        "SK",
        "SS"
],
      "SeriesDescription": "func_task-friends-s05e06b",
      "SeriesNumber": 15,
      "SeriesTime": "181352.098000",
      "SliceLocation": -25.796420137886,
      "SliceThickness": 2.0,
      "SmallestImagePixelValue": 0,
      "SoftwareVersions": "syngo MR E11",
      "SpacingBetweenSlices": 2.0000000427388,
      "SpecificCharacterSet": "ISO_IR 100",
      "StudyID": "1",
      "StudyTime": "165635.984000",
      "TransmitCoilName": "Body",
      "VariableFlipAngleFlag": "N",
      "WindowCenterWidthExplanation": "Algo1",
      "dBdt": 0.0},
    "slices": {}
  },
  "time": {
    "samples": {
      "AcquisitionNumber": [1, 2, 3, 4, 5, 6, 7, 8, 9, 10, 11, 12, 13, 14, 15, 16, 17, 18, 19, 20, 21, 22, 23, 24, 25, 26, 27, 28, 29, 30, 31, 32, 33, 34, 35, 36, 37, 38, 39, 40, 41, 42, 43, 44, 45, 46, 47, 48, 49, 50, 51, 52, 53, 54, 55, 56, 57, 58, 59, 60, 61, 62, 63, 64, 65, 66, 67, 68, 69, 70, 71, 72, 73, 74, 75, 76, 77, 78, 79, 80, 81, 82, 83, 84, 85, 86, 87, 88, 89, 90, 91, 92, 93, 94, 95, 96, 97, 98, 99, 100, 101, 102, 103, 104, 105, 106, 107, 108, 109, 110, 111, 112, 113, 114, 115, 116, 117, 118, 119, 120, 121, 122, 123, 124, 125, 126, 127, 128, 129, 130, 131, 132, 133, 134, 135, 136, 137, 138, 139, 140, 141, 142, 143, 144, 145, 146, 147, 148, 149, 150, 151, 152, 153, 154, 155, 156, 157, 158, 159, 160, 161, 162, 163, 164, 165, 166, 167, 168, 169, 170, 171, 172, 173, 174, 175, 176, 177, 178, 179, 180, 181, 182, 183, 184, 185, 186, 187, 188, 189, 190, 191, 192, 193, 194, 195, 196, 197, 198, 199, 200, 201, 202, 203, 204, 205, 206, 207, 208, 209, 210, 211, 212, 213, 214, 215, 216, 217, 218, 219, 220, 221, 222, 223, 224, 225, 226, 227, 228, 229, 230, 231, 232, 233, 234, 235, 236, 237, 238, 239, 240, 241, 242, 243, 244, 245, 246, 247, 248, 249, 250, 251, 252, 253, 254, 255, 256, 257, 258, 259, 260, 261, 262, 263, 264, 265, 266, 267, 268, 269, 270, 271, 272, 273, 274, 275, 276, 277, 278, 279, 280, 281, 282, 283, 284, 285, 286, 287, 288, 289, 290, 291, 292, 293, 294, 295, 296, 297, 298, 299, 300, 301, 302, 303, 304, 305, 306, 307, 308, 309, 310, 311, 312, 313, 314, 315, 316, 317, 318, 319, 320, 321, 322, 323, 324, 325, 326, 327, 328, 329, 330, 331, 332, 333, 334, 335, 336, 337, 338, 339, 340, 341, 342, 343, 344, 345, 346, 347, 348, 349, 350, 351, 352, 353, 354, 355, 356, 357, 358, 359, 360, 361, 362, 363, 364, 365, 366, 367, 368, 369, 370, 371, 372, 373, 374, 375, 376, 377, 378, 379, 380, 381, 382, 383, 384, 385, 386, 387, 388, 389, 390, 391, 392, 393, 394, 395, 396, 397, 398, 399, 400, 401, 402, 403, 404, 405, 406, 407, 408, 409, 410, 411, 412, 413, 414, 415, 416, 417, 418, 419, 420, 421, 422, 423, 424, 425, 426, 427, 428, 429, 430, 431, 432, 433, 434, 435, 436, 437, 438, 439, 440, 441, 442, 443, 444, 445, 446, 447, 448, 449, 450, 451, 452, 453, 454, 455, 456, 457, 458, 459, 460, 461, 462, 463, 464, 465, 466, 467, 468, 469, 470, 471, 472, 473, 474, 475, 476, 477, 478, 479, 480, 481, 482, 483, 484, 485, 486, 487, 488, 489, 490, 491, 492, 493],
      "AcquisitionTime": ["181223.907500", "181225.397500", "181226.887500", "181228.377500", "181229.867500", "181231.357500", "181232.847500", "181234.337500", "181235.827500", "181237.317500", "181238.807500", "181240.297500", "181241.787500", "181243.277500", "181244.767500", "181246.257500", "181247.747500", "181249.237500", "181250.727500", "181252.217500", "181253.707500", "181255.197500", "181256.687500", "181258.177500", "181259.667500", "181301.157500", "181302.647500", "181304.137500", "181305.627500", "181307.117500", "181308.607500", "181310.097500", "181311.587500", "181313.077500", "181314.567500", "181316.057500", "181317.547500", "181319.037500", "181320.527500", "181322.017500", "181323.507500", "181324.997500", "181326.487500", "181327.977500", "181329.467500", "181330.957500", "181332.447500", "181333.937500", "181335.427500", "181336.917500", "181338.407500", "181339.897500", "181341.387500", "181342.877500", "181344.367500", "181345.857500", "181347.347500", "181348.837500", "181350.327500", "181351.817500", "181353.307500", "181354.797500", "181356.287500", "181357.777500", "181359.267500", "181400.757500", "181402.247500", "181403.737500", "181405.227500", "181406.717500", "181408.207500", "181409.697500", "181411.187500", "181412.677500", "181414.167500", "181415.657500", "181417.147500", "181418.637500", "181420.127500", "181421.617500", "181423.107500", "181424.597500", "181426.087500", "181427.577500", "181429.067500", "181430.557500", "181432.047500", "181433.537500", "181435.027500", "181436.517500", "181438.007500", "181439.497500", "181440.987500", "181442.477500", "181443.967500", "181445.457500", "181446.947500", "181448.437500", "181449.927500", "181451.417500", "181452.907500", "181454.397500", "181455.887500", "181457.377500", "181458.867500", "181500.357500", "181501.847500", "181503.337500", "181504.827500", "181506.317500", "181507.807500", "181509.297500", "181510.787500", "181512.277500", "181513.767500", "181515.257500", "181516.747500", "181518.237500", "181519.727500", "181521.217500", "181522.707500", "181524.197500", "181525.687500", "181527.177500", "181528.667500", "181530.157500", "181531.647500", "181533.137500", "181534.627500", "181536.117500", "181537.607500", "181539.097500", "181540.587500", "181542.077500", "181543.567500", "181545.057500", "181546.547500", "181548.037500", "181549.527500", "181551.017500", "181552.507500", "181553.997500", "181555.487500", "181556.977500", "181558.467500", "181559.957500", "181601.447500", "181602.937500", "181604.427500", "181605.917500", "181607.407500", "181608.897500", "181610.387500", "181611.877500", "181613.367500", "181614.857500", "181616.347500", "181617.837500", "181619.327500", "181620.817500", "181622.307500", "181623.797500", "181625.287500", "181626.777500", "181628.267500", "181629.757500", "181631.247500", "181632.737500", "181634.227500", "181635.717500", "181637.207500", "181638.697500", "181640.187500", "181641.677500", "181643.167500", "181644.657500", "181646.147500", "181647.637500", "181649.127500", "181650.617500", "181652.107500", "181653.597500", "181655.087500", "181656.577500", "181658.067500", "181659.557500", "181701.047500", "181702.537500", "181704.027500", "181705.517500", "181707.007500", "181708.497500", "181709.987500", "181711.477500", "181712.967500", "181714.457500", "181715.947500", "181717.437500", "181718.927500", "181720.417500", "181721.907500", "181723.397500", "181724.887500", "181726.377500", "181727.867500", "181729.357500", "181730.847500", "181732.337500", "181733.827500", "181735.317500", "181736.807500", "181738.297500", "181739.787500", "181741.277500", "181742.767500", "181744.257500", "181745.747500", "181747.237500", "181748.727500", "181750.217500", "181751.707500", "181753.197500", "181754.687500", "181756.177500", "181757.667500", "181759.157500", "181800.647500", "181802.137500", "181803.627500", "181805.117500", "181806.607500", "181808.097500", "181809.587500", "181811.077500", "181812.567500", "181814.057500", "181815.547500", "181817.037500", "181818.527500", "181820.017500", "181821.507500", "181822.997500", "181824.487500", "181825.977500", "181827.467500", "181828.957500", "181830.447500", "181831.937500", "181833.427500", "181834.917500", "181836.407500", "181837.897500", "181839.387500", "181840.877500", "181842.367500", "181843.857500", "181845.347500", "181846.837500", "181848.327500", "181849.817500", "181851.307500", "181852.797500", "181854.287500", "181855.777500", "181857.267500", "181858.757500", "181900.247500", "181901.737500", "181903.227500", "181904.717500", "181906.207500", "181907.697500", "181909.187500", "181910.677500", "181912.167500", "181913.657500", "181915.147500", "181916.637500", "181918.127500", "181919.617500", "181921.107500", "181922.597500", "181924.087500", "181925.577500", "181927.067500", "181928.557500", "181930.047500", "181931.537500", "181933.027500", "181934.517500", "181936.007500", "181937.497500", "181938.987500", "181940.477500", "181941.967500", "181943.457500", "181944.947500", "181946.437500", "181947.927500", "181949.417500", "181950.907500", "181952.397500", "181953.887500", "181955.377500", "181956.867500", "181958.357500", "181959.847500", "182001.337500", "182002.827500", "182004.317500", "182005.807500", "182007.297500", "182008.787500", "182010.277500", "182011.767500", "182013.257500", "182014.747500", "182016.237500", "182017.727500", "182019.217500", "182020.707500", "182022.197500", "182023.687500", "182025.177500", "182026.667500", "182028.157500", "182029.647500", "182031.137500", "182032.627500", "182034.117500", "182035.607500", "182037.097500", "182038.587500", "182040.077500", "182041.567500", "182043.057500", "182044.547500", "182046.037500", "182047.527500", "182049.017500", "182050.507500", "182051.997500", "182053.487500", "182054.977500", "182056.467500", "182057.957500", "182059.447500", "182100.937500", "182102.427500", "182103.917500", "182105.407500", "182106.897500", "182108.387500", "182109.877500", "182111.367500", "182112.857500", "182114.347500", "182115.837500", "182117.327500", "182118.817500", "182120.307500", "182121.797500", "182123.287500", "182124.777500", "182126.267500", "182127.757500", "182129.247500", "182130.737500", "182132.227500", "182133.717500", "182135.207500", "182136.697500", "182138.187500", "182139.677500", "182141.167500", "182142.657500", "182144.147500", "182145.637500", "182147.127500", "182148.617500", "182150.107500", "182151.597500", "182153.087500", "182154.577500", "182156.067500", "182157.557500", "182159.047500", "182200.537500", "182202.027500", "182203.517500", "182205.007500", "182206.497500", "182207.987500", "182209.477500", "182210.967500", "182212.457500", "182213.947500", "182215.437500", "182216.927500", "182218.417500", "182219.907500", "182221.397500", "182222.887500", "182224.377500", "182225.867500", "182227.357500", "182228.847500", "182230.337500", "182231.827500", "182233.317500", "182234.807500", "182236.297500", "182237.787500", "182239.277500", "182240.767500", "182242.257500", "182243.747500", "182245.237500", "182246.727500", "182248.217500", "182249.707500", "182251.197500", "182252.687500", "182254.177500", "182255.667500", "182257.157500", "182258.647500", "182300.137500", "182301.627500", "182303.117500", "182304.607500", "182306.097500", "182307.587500", "182309.077500", "182310.567500", "182312.057500", "182313.547500", "182315.037500", "182316.527500", "182318.017500", "182319.507500", "182320.997500", "182322.487500", "182323.977500", "182325.467500", "182326.957500", "182328.447500", "182329.937500", "182331.427500", "182332.917500", "182334.407500", "182335.897500", "182337.387500", "182338.877500", "182340.367500", "182341.857500", "182343.347500", "182344.837500", "182346.327500", "182347.817500", "182349.307500", "182350.797500", "182352.287500", "182353.777500", "182355.267500", "182356.757500", "182358.247500", "182359.737500", "182401.227500", "182402.717500", "182404.207500", "182405.697500", "182407.187500", "182408.677500", "182410.167500", "182411.657500", "182413.147500", "182414.637500", "182416.127500", "182417.617500", "182419.107500", "182420.597500", "182422.087500", "182423.577500", "182425.067500", "182426.557500", "182428.047500", "182429.537500", "182431.027500", "182432.517500", "182434.007500", "182435.497500", "182436.987500"],
      "ContentTime": ["181352.101000", "181352.104000", "181352.107000", "181352.110000", "181352.119000", "181352.122000", "181352.125000", "181352.128000", "181352.131000", "181352.133000", "181352.136000", "181352.139000", "181352.142000", "181352.145000", "181352.148000", "181352.151000", "181352.153000", "181352.156000", "181352.194000", "181352.197000", "181352.200000", "181352.202000", "181352.211000", "181352.214000", "181352.217000", "181352.220000", "181352.222000", "181352.225000", "181352.228000", "181352.231000", "181352.234000", "181352.237000", "181352.240000", "181412.063000", "181412.066000", "181412.069000", "181412.072000", "181412.074000", "181412.077000", "181412.101000", "181412.111000", "181412.114000", "181412.117000", "181412.120000", "181412.123000", "181412.126000", "181412.128000", "181412.131000", "181412.134000", "181412.137000", "181412.140000", "181412.143000", "181412.146000", "181412.148000", "181432.063000", "181432.066000", "181432.069000", "181432.072000", "181432.074000", "181432.077000", "181432.080000", "181432.083000", "181432.086000", "181432.089000", "181432.092000", "181432.095000", "181432.097000", "181432.100000", "181432.103000", "181432.106000", "181432.109000", "181432.111000", "181432.115000", "181432.118000", "181452.064000", "181452.067000", "181452.070000", "181452.073000", "181452.075000", "181452.078000", "181452.081000", "181452.084000", "181452.087000", "181452.090000", "181452.093000", "181452.095000", "181452.098000", "181452.101000", "181452.104000", "181452.107000", "181452.110000", "181452.112000", "181452.115000", "181452.118000", "181532.064000", "181532.067000", "181532.070000", "181532.073000", "181532.076000", "181532.079000", "181532.082000", "181532.085000", "181532.088000", "181532.090000", "181532.093000", "181532.096000", "181532.099000", "181532.102000", "181532.105000", "181532.107000", "181532.110000", "181532.113000", "181532.116000", "181532.119000", "181532.122000", "181532.124000", "181532.127000", "181532.130000", "181532.133000", "181532.136000", "181532.139000", "181532.142000", "181532.144000", "181532.147000", "181532.150000", "181612.063000", "181612.066000", "181612.069000", "181612.072000", "181612.074000", "181612.077000", "181612.080000", "181612.083000", "181612.086000", "181612.089000", "181612.092000", "181612.095000", "181612.097000", "181612.100000", "181612.103000", "181612.106000", "181612.109000", "181612.112000", "181612.114000", "181612.117000", "181612.120000", "181612.123000", "181612.126000", "181612.129000", "181612.132000", "181612.135000", "181612.137000", "181652.063000", "181652.066000", "181652.069000", "181652.072000", "181652.075000", "181652.077000", "181652.080000", "181652.083000", "181652.086000", "181652.089000", "181652.092000", "181652.095000", "181652.097000", "181652.100000", "181652.103000", "181652.106000", "181652.109000", "181652.112000", "181652.115000", "181652.117000", "181652.120000", "181652.123000", "181652.126000", "181652.134000", "181652.137000", "181652.139000", "181652.142000", "181732.064000", "181732.067000", "181732.070000", "181732.073000", "181732.076000", "181732.079000", "181732.081000", "181732.084000", "181732.087000", "181732.090000", "181732.093000", "181732.096000", "181732.099000", "181732.102000", "181732.104000", "181732.107000", "181732.110000", "181732.113000", "181732.116000", "181732.118000", "181732.121000", "181732.124000", "181732.127000", "181732.130000", "181732.133000", "181732.136000", "181732.138000", "181812.063000", "181812.066000", "181812.069000", "181812.071000", "181812.074000", "181812.077000", "181812.080000", "181812.083000", "181812.086000", "181812.089000", "181812.092000", "181812.094000", "181812.097000", "181812.100000", "181812.103000", "181812.106000", "181812.109000", "181812.112000", "181812.114000", "181812.117000", "181812.120000", "181812.123000", "181812.126000", "181812.129000", "181812.132000", "181812.135000", "181852.063000", "181852.066000", "181852.069000", "181852.072000", "181852.075000", "181852.077000", "181852.080000", "181852.083000", "181852.086000", "181852.089000", "181852.092000", "181852.095000", "181852.098000", "181852.100000", "181852.103000", "181852.106000", "181852.109000", "181852.112000", "181852.115000", "181852.118000", "181852.120000", "181852.123000", "181852.126000", "181852.129000", "181852.132000", "181852.135000", "181852.138000", "181932.064000", "181932.067000", "181932.070000", "181932.073000", "181932.076000", "181932.079000", "181932.081000", "181932.084000", "181932.087000", "181932.090000", "181932.093000", "181932.096000", "181932.099000", "181932.101000", "181932.104000", "181932.107000", "181932.110000", "181932.113000", "181932.116000", "181932.118000", "181932.121000", "181932.124000", "181932.127000", "181932.130000", "181932.133000", "181932.136000", "181932.139000", "182012.064000", "182012.067000", "182012.070000", "182012.073000", "182012.076000", "182012.078000", "182012.081000", "182012.084000", "182012.087000", "182012.090000", "182012.093000", "182012.095000", "182012.098000", "182012.101000", "182012.104000", "182012.107000", "182012.110000", "182012.113000", "182012.115000", "182012.118000", "182012.121000", "182012.124000", "182012.127000", "182012.130000", "182012.133000", "182012.135000", "182012.138000", "182052.063000", "182052.066000", "182052.069000", "182052.072000", "182052.075000", "182052.077000", "182052.080000", "182052.083000", "182052.086000", "182052.097000", "182052.100000", "182052.103000", "182052.106000", "182052.109000", "182052.112000", "182052.114000", "182052.117000", "182052.120000", "182052.123000", "182052.126000", "182052.129000", "182052.132000", "182052.134000", "182052.137000", "182052.140000", "182052.143000", "182052.146000", "182132.063000", "182132.066000", "182132.069000", "182132.072000", "182132.075000", "182132.077000", "182132.080000", "182132.083000", "182132.086000", "182132.089000", "182132.092000", "182132.095000", "182132.098000", "182132.100000", "182132.103000", "182132.106000", "182132.109000", "182132.112000", "182132.115000", "182132.118000", "182132.120000", "182132.123000", "182132.126000", "182132.129000", "182132.132000", "182132.135000", "182132.138000", "182212.064000", "182212.067000", "182212.070000", "182212.073000", "182212.076000", "182212.079000", "182212.082000", "182212.085000", "182212.088000", "182212.091000", "182212.094000", "182212.096000", "182212.099000", "182212.102000", "182212.105000", "182212.108000", "182212.111000", "182212.114000", "182212.116000", "182212.119000", "182212.122000", "182212.125000", "182212.128000", "182212.131000", "182212.134000", "182212.137000", "182212.140000", "182252.063000", "182252.066000", "182252.069000", "182252.072000", "182252.075000", "182252.078000", "182252.081000", "182252.083000", "182252.086000", "182252.089000", "182252.099000", "182252.102000", "182252.105000", "182252.108000", "182252.111000", "182252.114000", "182252.117000", "182252.119000", "182252.122000", "182252.125000", "182252.128000", "182252.131000", "182252.134000", "182252.137000", "182252.140000", "182252.142000", "182332.063000", "182332.066000", "182332.073000", "182332.076000", "182332.079000", "182332.082000", "182332.085000", "182332.088000", "182332.091000", "182332.104000", "182332.107000", "182332.109000", "182332.112000", "182332.115000", "182332.118000", "182332.121000", "182332.124000", "182332.126000", "182332.129000", "182332.132000", "182332.135000", "182332.138000", "182332.141000", "182332.144000", "182332.146000", "182332.149000", "182332.152000", "182412.064000", "182412.067000", "182412.070000", "182412.073000", "182412.076000", "182412.079000", "182412.082000", "182412.085000", "182412.088000", "182412.091000", "182412.094000", "182412.096000", "182412.099000", "182412.102000", "182412.105000", "182412.108000", "182412.111000", "182412.114000", "182412.116000", "182412.119000", "182412.122000", "182412.125000", "182412.128000", "182412.131000", "182412.134000", "182412.137000", "182412.139000", "182439.514000", "182439.517000", "182439.520000", "182439.523000", "182439.529000", "182439.532000", "182439.535000", "182439.538000", "182439.541000", "182439.543000", "182439.546000", "182439.549000", "182439.552000", "182439.555000", "182439.558000", "182439.561000", "182439.564000", "182439.567000", "182439.570000"],
