{
  "AcquisitionMatrixPE": 104,
  "AcquisitionNumber": 1,
  "AcquisitionTime": "17:33:43.232500",
  "BandwidthPerPixelPhaseEncode": 17.17,
  "BaseResolution": 104,
  "BodyPartExamined": "BRAIN",
  "CoilString": "HC1-7;NC1_2",
  "ConsistencyInfo": "N4_VE11C_LATEST_20160120",
  "ConversionSoftware": "dcm2niix",
  "ConversionSoftwareVersion": "v1.0.20190902",
  "DerivedVendorReportedEchoSpacing": 0.000560011,
  "DeviceSerialNumber": "167006",
  "DwellTime": 2.1e-06,
  "EchoTime": 0.037,
  "EchoTrainLength": 104,
  "EffectiveEchoSpacing": 0.000560011,
  "FlipAngle": 52,
  "ImageComments": "Unaliased_MB4_PE3_LB",
  "ImageOrientationPatientDICOM": [0.999875, 0.0145419, 0.00617042, -0.0129145, 0.977439, -0.210825],
  "ImageType": [
    "ORIGINAL",
    "PRIMARY",
    "M",
    "MB",
    "ND",
    "MOSAIC"
],
  "ImagingFrequency": 123.259,
  "InPlanePhaseEncodingDirectionDICOM": "COL",
  "InstitutionAddress": "Chemin_Queen-Mary_4565_Montreal_District_CA_H3W_1W5",
  "InstitutionName": "IUGM",
  "InstitutionalDepartmentName": "Department",
  "MRAcquisitionType": "2D",
  "MagneticFieldStrength": 3,
  "Manufacturer": "Siemens",
  "ManufacturersModelName": "Prisma_fit",
  "Modality": "MR",
  "MultibandAccelerationFactor": 4,
  "PartialFourier": 1,
  "PatientPosition": "HFS",
  "PercentPhaseFOV": 100,
  "PhaseEncodingDirection": "j",
  "PhaseEncodingSteps": 104,
  "PhaseResolution": 1,
  "PixelBandwidth": 2290,
  "ProcedureStepDescription": "video_friends",
  "ProtocolName": "func_task-friends-s05e05a",
  "PulseSequenceDetails": "%CustomerSeq%_cmrr_mbep2d_bold",
  "ReceiveCoilActiveElements": "HC1-7;NC1,2",
  "ReceiveCoilName": "HeadNeck_64",
  "ReconMatrixPE": 104,
  "RepetitionTime": 1.49,
  "SAR": 0.0291059,
  "ScanOptions": "FS",
  "ScanningSequence": "EP",
  "SequenceName": "epfid2d1_104",
  "SequenceVariant": "SK_SS",
  "SeriesDescription": "func_task-friends-s05e05a",
  "SeriesNumber": 9,
  "ShimSetting": [633, -7237, -8740, 745, 17, -38, 126, 17],
  "SliceThickness": 2,
  "SliceTiming": [0, 0.785, 0.0975, 0.8825, 0.1975, 0.98, 0.295, 1.0775, 0.3925, 1.1775, 0.49, 1.275, 0.5875, 1.3725, 0.6875, 0, 0.785, 0.0975, 0.8825, 0.1975, 0.98, 0.295, 1.0775, 0.3925, 1.1775, 0.49, 1.275, 0.5875, 1.3725, 0.6875, 0, 0.785, 0.0975, 0.8825, 0.1975, 0.98, 0.295, 1.0775, 0.3925, 1.1775, 0.49, 1.275, 0.5875, 1.3725, 0.6875, 0, 0.785, 0.0975, 0.8825, 0.1975, 0.98, 0.295, 1.0775, 0.3925, 1.1775, 0.49, 1.275, 0.5875, 1.3725, 0.6875],
  "SoftwareVersions": "syngo_MR_E11",
  "SpacingBetweenSlices": 2,
  "StationName": "MRC35049",
  "TaskName": "s05e05a",
  "TotalReadoutTime": 0.0576811,
  "TxRefAmp": 205.537,
  "WipMemBlock": "84de8008-af54-44cf-ac20-e928ebab4dfe||Sequence: R016 ve11c/master r/e634e98; Dec 19 2017 11:00:25 by eja",
  "dcmmeta_affine": [
    [-1.9997504949569702, -0.025829019024968147, 0.01819397695362568, 105.24714660644531],
    [-0.029083717614412308, 1.9548771381378174, -0.4214373528957367, -85.58679962158203],
    [0.012340838089585304, 0.42164933681488037, 1.955008864402771, -45.81932067871094],
    [0.0, 0.0, 0.0, 1.0]
],
  "dcmmeta_reorient_transform": [
    [0.0, -1.0, 0.0, 103.0],
    [1.0, 0.0, 0.0, 0.0],
    [0.0, 0.0, 1.0, 0.0],
    [0.0, 0.0, 0.0, 1.0]
],
  "dcmmeta_shape": [104, 104, 60, 486],
  "dcmmeta_slice_dim": 2,
  "dcmmeta_version": 0.6,
  "global": {
    "const": {
      "AcquisitionMatrix": [104, 0, 0, 104],
      "AngioFlag": "N",
      "BitsAllocated": 16,
      "BitsStored": 16,
      "BodyPartExamined": "BRAIN",
      "Columns": 832,
      "EchoNumbers": 1,
      "EchoTime": 37.0,
      "EchoTrainLength": 104,
      "FlipAngle": 52.0,
      "HighBit": 15,
      "ImageOrientationPatient": [0.99987522234512, 0.0145418592193, 0.00617041900913, -0.0129145091135, 0.97743857867256, -0.2108246673825],
      "ImagePositionPatient": [-821.09415644356, -837.92730985917, 146.59885365906],
      "ImageType": [
        "ORIGINAL",
        "PRIMARY",
        "M",
        "MB",
        "ND",
        "MOSAIC"
],
      "ImagedNucleus": "1H",
      "ImagingFrequency": 123.259023,
      "InPlanePhaseEncodingDirection": "COL",
      "MRAcquisitionType": "2D",
      "MagneticFieldStrength": 3.0,
      "Manufacturer": "SIEMENS",
      "ManufacturerModelName": "Prisma_fit",
      "Modality": "MR",
      "NumberOfAverages": 1.0,
      "NumberOfPhaseEncodingSteps": 104,
      "PercentPhaseFieldOfView": 100.0,
      "PercentSampling": 100.0,
      "PerformedProcedureStepStartTime": "165636.042000",
      "PhotometricInterpretation": "MONOCHROME2",
      "PixelBandwidth": 2290.0,
      "PixelRepresentation": 0,
      "PixelSpacing": [2.0, 2.0],
      "ProtocolName": "func_task-friends-s05e05a",
      "RepetitionTime": 1490.0,
      "Rows": 832,
      "SAR": 0.02910587819364,
      "SamplesPerPixel": 1,
      "ScanOptions": "FS",
      "ScanningSequence": "EP",
      "SequenceName": "epfid2d1_104",
      "SequenceVariant": [
        "SK",
        "SS"
],
      "SeriesDescription": "func_task-friends-s05e05a",
      "SeriesNumber": 9,
      "SeriesTime": "173512.090000",
      "SliceLocation": -25.796420137886,
      "SliceThickness": 2.0,
      "SmallestImagePixelValue": 0,
      "SoftwareVersions": "syngo MR E11",
      "SpacingBetweenSlices": 2.0000000427388,
      "SpecificCharacterSet": "ISO_IR 100",
      "StudyID": "1",
      "StudyTime": "165635.984000",
      "TransmitCoilName": "Body",
      "VariableFlipAngleFlag": "N",
      "WindowCenterWidthExplanation": "Algo1",
      "dBdt": 0.0},
    "slices": {}
  },
  "time": {
    "samples": {
      "AcquisitionNumber": [1, 2, 3, 4, 5, 6, 7, 8, 9, 10, 11, 12, 13, 14, 15, 16, 17, 18, 19, 20, 21, 22, 23, 24, 25, 26, 27, 28, 29, 30, 31, 32, 33, 34, 35, 36, 37, 38, 39, 40, 41, 42, 43, 44, 45, 46, 47, 48, 49, 50, 51, 52, 53, 54, 55, 56, 57, 58, 59, 60, 61, 62, 63, 64, 65, 66, 67, 68, 69, 70, 71, 72, 73, 74, 75, 76, 77, 78, 79, 80, 81, 82, 83, 84, 85, 86, 87, 88, 89, 90, 91, 92, 93, 94, 95, 96, 97, 98, 99, 100, 101, 102, 103, 104, 105, 106, 107, 108, 109, 110, 111, 112, 113, 114, 115, 116, 117, 118, 119, 120, 121, 122, 123, 124, 125, 126, 127, 128, 129, 130, 131, 132, 133, 134, 135, 136, 137, 138, 139, 140, 141, 142, 143, 144, 145, 146, 147, 148, 149, 150, 151, 152, 153, 154, 155, 156, 157, 158, 159, 160, 161, 162, 163, 164, 165, 166, 167, 168, 169, 170, 171, 172, 173, 174, 175, 176, 177, 178, 179, 180, 181, 182, 183, 184, 185, 186, 187, 188, 189, 190, 191, 192, 193, 194, 195, 196, 197, 198, 199, 200, 201, 202, 203, 204, 205, 206, 207, 208, 209, 210, 211, 212, 213, 214, 215, 216, 217, 218, 219, 220, 221, 222, 223, 224, 225, 226, 227, 228, 229, 230, 231, 232, 233, 234, 235, 236, 237, 238, 239, 240, 241, 242, 243, 244, 245, 246, 247, 248, 249, 250, 251, 252, 253, 254, 255, 256, 257, 258, 259, 260, 261, 262, 263, 264, 265, 266, 267, 268, 269, 270, 271, 272, 273, 274, 275, 276, 277, 278, 279, 280, 281, 282, 283, 284, 285, 286, 287, 288, 289, 290, 291, 292, 293, 294, 295, 296, 297, 298, 299, 300, 301, 302, 303, 304, 305, 306, 307, 308, 309, 310, 311, 312, 313, 314, 315, 316, 317, 318, 319, 320, 321, 322, 323, 324, 325, 326, 327, 328, 329, 330, 331, 332, 333, 334, 335, 336, 337, 338, 339, 340, 341, 342, 343, 344, 345, 346, 347, 348, 349, 350, 351, 352, 353, 354, 355, 356, 357, 358, 359, 360, 361, 362, 363, 364, 365, 366, 367, 368, 369, 370, 371, 372, 373, 374, 375, 376, 377, 378, 379, 380, 381, 382, 383, 384, 385, 386, 387, 388, 389, 390, 391, 392, 393, 394, 395, 396, 397, 398, 399, 400, 401, 402, 403, 404, 405, 406, 407, 408, 409, 410, 411, 412, 413, 414, 415, 416, 417, 418, 419, 420, 421, 422, 423, 424, 425, 426, 427, 428, 429, 430, 431, 432, 433, 434, 435, 436, 437, 438, 439, 440, 441, 442, 443, 444, 445, 446, 447, 448, 449, 450, 451, 452, 453, 454, 455, 456, 457, 458, 459, 460, 461, 462, 463, 464, 465, 466, 467, 468, 469, 470, 471, 472, 473, 474, 475, 476, 477, 478, 479, 480, 481, 482, 483, 484, 485, 486],
      "AcquisitionTime": ["173343.232500", "173344.722500", "173346.212500", "173347.702500", "173349.192500", "173350.682500", "173352.172500", "173353.662500", "173355.152500", "173356.642500", "173358.132500", "173359.622500", "173401.112500", "173402.602500", "173404.092500", "173405.582500", "173407.072500", "173408.562500", "173410.052500", "173411.542500", "173413.032500", "173414.522500", "173416.012500", "173417.502500", "173418.992500", "173420.482500", "173421.972500", "173423.462500", "173424.952500", "173426.442500", "173427.932500", "173429.422500", "173430.912500", "173432.402500", "173433.892500", "173435.382500", "173436.872500", "173438.362500", "173439.852500", "173441.342500", "173442.832500", "173444.322500", "173445.812500", "173447.302500", "173448.792500", "173450.282500", "173451.772500", "173453.262500", "173454.752500", "173456.242500", "173457.732500", "173459.222500", "173500.712500", "173502.202500", "173503.692500", "173505.182500", "173506.672500", "173508.162500", "173509.652500", "173511.142500", "173512.632500", "173514.122500", "173515.612500", "173517.102500", "173518.592500", "173520.082500", "173521.572500", "173523.062500", "173524.552500", "173526.042500", "173527.532500", "173529.022500", "173530.512500", "173532.002500", "173533.492500", "173534.982500", "173536.472500", "173537.962500", "173539.452500", "173540.942500", "173542.432500", "173543.922500", "173545.412500", "173546.902500", "173548.392500", "173549.882500", "173551.372500", "173552.862500", "173554.352500", "173555.842500", "173557.332500", "173558.822500", "173600.312500", "173601.802500", "173603.292500", "173604.782500", "173606.272500", "173607.762500", "173609.252500", "173610.742500", "173612.232500", "173613.722500", "173615.212500", "173616.702500", "173618.192500", "173619.682500", "173621.172500", "173622.662500", "173624.152500", "173625.642500", "173627.132500", "173628.622500", "173630.112500", "173631.602500", "173633.092500", "173634.582500", "173636.072500", "173637.562500", "173639.052500", "173640.542500", "173642.032500", "173643.522500", "173645.012500", "173646.502500", "173647.992500", "173649.482500", "173650.972500", "173652.462500", "173653.952500", "173655.442500", "173656.932500", "173658.422500", "173659.912500", "173701.402500", "173702.892500", "173704.382500", "173705.872500", "173707.362500", "173708.852500", "173710.342500", "173711.832500", "173713.322500", "173714.812500", "173716.302500", "173717.792500", "173719.282500", "173720.772500", "173722.262500", "173723.752500", "173725.242500", "173726.732500", "173728.222500", "173729.712500", "173731.202500", "173732.692500", "173734.182500", "173735.672500", "173737.162500", "173738.652500", "173740.142500", "173741.632500", "173743.122500", "173744.612500", "173746.102500", "173747.592500", "173749.082500", "173750.572500", "173752.062500", "173753.552500", "173755.042500", "173756.532500", "173758.022500", "173759.512500", "173801.002500", "173802.492500", "173803.982500", "173805.472500", "173806.962500", "173808.452500", "173809.942500", "173811.432500", "173812.922500", "173814.412500", "173815.902500", "173817.392500", "173818.882500", "173820.372500", "173821.862500", "173823.352500", "173824.842500", "173826.332500", "173827.822500", "173829.312500", "173830.802500", "173832.292500", "173833.782500", "173835.272500", "173836.762500", "173838.252500", "173839.742500", "173841.232500", "173842.722500", "173844.212500", "173845.702500", "173847.192500", "173848.682500", "173850.172500", "173851.662500", "173853.152500", "173854.642500", "173856.132500", "173857.622500", "173859.112500", "173900.602500", "173902.092500", "173903.582500", "173905.072500", "173906.562500", "173908.052500", "173909.542500", "173911.032500", "173912.522500", "173914.012500", "173915.502500", "173916.992500", "173918.482500", "173919.972500", "173921.462500", "173922.952500", "173924.442500", "173925.932500", "173927.422500", "173928.912500", "173930.402500", "173931.892500", "173933.382500", "173934.872500", "173936.362500", "173937.852500", "173939.342500", "173940.832500", "173942.322500", "173943.812500", "173945.302500", "173946.792500", "173948.282500", "173949.772500", "173951.262500", "173952.752500", "173954.242500", "173955.732500", "173957.222500", "173958.712500", "174000.202500", "174001.692500", "174003.182500", "174004.672500", "174006.162500", "174007.652500", "174009.142500", "174010.632500", "174012.122500", "174013.612500", "174015.102500", "174016.592500", "174018.082500", "174019.572500", "174021.062500", "174022.552500", "174024.042500", "174025.532500", "174027.022500", "174028.512500", "174030.002500", "174031.492500", "174032.982500", "174034.472500", "174035.962500", "174037.452500", "174038.942500", "174040.432500", "174041.922500", "174043.412500", "174044.902500", "174046.392500", "174047.882500", "174049.372500", "174050.862500", "174052.352500", "174053.842500", "174055.332500", "174056.822500", "174058.312500", "174059.802500", "174101.292500", "174102.782500", "174104.272500", "174105.762500", "174107.252500", "174108.742500", "174110.232500", "174111.722500", "174113.212500", "174114.702500", "174116.192500", "174117.682500", "174119.172500", "174120.662500", "174122.152500", "174123.642500", "174125.132500", "174126.622500", "174128.112500", "174129.602500", "174131.092500", "174132.582500", "174134.072500", "174135.562500", "174137.052500", "174138.542500", "174140.032500", "174141.522500", "174143.012500", "174144.502500", "174145.992500", "174147.482500", "174148.972500", "174150.462500", "174151.952500", "174153.442500", "174154.932500", "174156.422500", "174157.912500", "174159.402500", "174200.892500", "174202.382500", "174203.872500", "174205.362500", "174206.852500", "174208.342500", "174209.832500", "174211.322500", "174212.812500", "174214.302500", "174215.792500", "174217.282500", "174218.772500", "174220.262500", "174221.752500", "174223.242500", "174224.732500", "174226.222500", "174227.712500", "174229.202500", "174230.692500", "174232.182500", "174233.672500", "174235.162500", "174236.652500", "174238.142500", "174239.632500", "174241.122500", "174242.612500", "174244.102500", "174245.592500", "174247.082500", "174248.572500", "174250.062500", "174251.552500", "174253.042500", "174254.532500", "174256.022500", "174257.512500", "174259.002500", "174300.492500", "174301.982500", "174303.472500", "174304.962500", "174306.452500", "174307.942500", "174309.432500", "174310.922500", "174312.412500", "174313.902500", "174315.392500", "174316.882500", "174318.372500", "174319.862500", "174321.352500", "174322.842500", "174324.332500", "174325.822500", "174327.312500", "174328.802500", "174330.292500", "174331.782500", "174333.272500", "174334.762500", "174336.252500", "174337.742500", "174339.232500", "174340.722500", "174342.212500", "174343.702500", "174345.192500", "174346.682500", "174348.172500", "174349.662500", "174351.152500", "174352.642500", "174354.132500", "174355.622500", "174357.112500", "174358.602500", "174400.092500", "174401.582500", "174403.072500", "174404.562500", "174406.052500", "174407.542500", "174409.032500", "174410.522500", "174412.012500", "174413.502500", "174414.992500", "174416.482500", "174417.972500", "174419.462500", "174420.952500", "174422.442500", "174423.932500", "174425.422500", "174426.912500", "174428.402500", "174429.892500", "174431.382500", "174432.872500", "174434.362500", "174435.852500", "174437.342500", "174438.832500", "174440.322500", "174441.812500", "174443.302500", "174444.792500", "174446.282500", "174447.772500", "174449.262500", "174450.752500", "174452.242500", "174453.732500", "174455.222500", "174456.712500", "174458.202500", "174459.692500", "174501.182500", "174502.672500", "174504.162500", "174505.652500", "174507.142500", "174508.632500", "174510.122500", "174511.612500", "174513.102500", "174514.592500", "174516.082500", "174517.572500", "174519.062500", "174520.552500", "174522.042500", "174523.532500", "174525.022500", "174526.512500", "174528.002500", "174529.492500", "174530.982500", "174532.472500", "174533.962500", "174535.452500", "174536.942500", "174538.432500", "174539.922500", "174541.412500", "174542.902500", "174544.392500", "174545.882500"],
      "ContentTime": ["173512.093000", "173512.103000", "173512.114000", "173512.116000", "173512.119000", "173512.122000", "173512.125000", "173512.128000", "173512.131000", "173512.134000", "173512.137000", "173512.139000", "173512.142000", "173512.145000", "173512.148000", "173512.151000", "173512.153000", "173512.157000", "173512.159000", "173512.162000", "173512.165000", "173512.168000", "173512.171000", "173512.174000", "173512.177000", "173512.180000", "173532.064000", "173532.067000", "173532.070000", "173532.073000", "173532.075000", "173532.078000", "173532.081000", "173532.084000", "173532.087000", "173532.090000", "173532.093000", "173532.095000", "173532.098000", "173532.106000", "173532.109000", "173532.112000", "173532.115000", "173532.118000", "173532.121000", "173532.123000", "173552.064000", "173552.067000", "173552.070000", "173552.073000", "173552.075000", "173552.078000", "173552.094000", "173552.097000", "173552.100000", "173552.103000", "173552.106000", "173552.109000", "173552.111000", "173552.114000", "173552.117000", "173552.120000", "173552.123000", "173552.126000", "173552.128000", "173552.131000", "173612.064000", "173612.067000", "173612.070000", "173612.073000", "173612.075000", "173612.078000", "173612.081000", "173612.084000", "173612.087000", "173612.090000", "173612.098000", "173612.101000", "173612.104000", "173612.107000", "173612.110000", "173612.112000", "173612.115000", "173612.124000", "173612.127000", "173612.130000", "173632.063000", "173632.066000", "173632.069000", "173632.072000", "173632.074000", "173632.077000", "173632.080000", "173632.083000", "173632.086000", "173632.089000", "173632.092000", "173632.095000", "173632.097000", "173632.100000", "173632.103000", "173632.106000", "173632.109000", "173632.111000", "173632.114000", "173632.117000", "173652.063000", "173652.066000", "173652.069000", "173652.072000", "173652.074000", "173652.077000", "173652.080000", "173652.083000", "173652.086000", "173652.089000", "173652.091000", "173652.094000", "173652.097000", "173652.100000", "173652.103000", "173652.106000", "173652.108000", "173652.111000", "173652.114000", "173652.117000", "173732.063000", "173732.066000", "173732.069000", "173732.072000", "173732.075000", "173732.077000", "173732.080000", "173732.083000", "173732.086000", "173732.089000", "173732.092000", "173732.094000", "173732.097000", "173732.100000", "173732.103000", "173732.106000", "173732.109000", "173732.112000", "173732.115000", "173732.117000", "173732.120000", "173732.123000", "173732.126000", "173732.129000", "173732.132000", "173732.135000", "173732.137000", "173812.064000", "173812.067000", "173812.070000", "173812.073000", "173812.076000", "173812.079000", "173812.081000", "173812.084000", "173812.087000", "173812.090000", "173812.093000", "173812.096000", "173812.098000", "173812.101000", "173812.104000", "173812.107000", "173812.110000", "173812.113000", "173812.116000", "173812.119000", "173812.122000", "173812.125000", "173812.128000", "173812.132000", "173812.134000", "173812.137000", "173852.063000", "173852.066000", "173852.069000", "173852.072000", "173852.075000", "173852.077000", "173852.080000", "173852.083000", "173852.086000", "173852.089000", "173852.092000", "173852.095000", "173852.097000", "173852.100000", "173852.103000", "173852.106000", "173852.109000", "173852.112000", "173852.115000", "173852.117000", "173852.120000", "173852.123000", "173852.126000", "173852.129000", "173852.132000", "173852.135000", "173852.137000", "173932.063000", "173932.066000", "173932.069000", "173932.072000", "173932.075000", "173932.078000", "173932.080000", "173932.083000", "173932.086000", "173932.089000", "173932.092000", "173932.095000", "173932.098000", "173932.100000", "173932.103000", "173932.106000", "173932.109000", "173932.112000", "173932.115000", "173932.117000", "173932.120000", "173932.123000", "173932.126000", "173932.129000", "173932.132000", "173932.134000", "173932.137000", "174012.064000", "174012.067000", "174012.070000", "174012.073000", "174012.076000", "174012.078000", "174012.081000", "174012.091000", "174012.094000", "174012.097000", "174012.100000", "174012.103000", "174012.106000", "174012.109000", "174012.111000", "174012.114000", "174012.117000", "174012.120000", "174012.123000", "174012.126000", "174012.129000", "174012.132000", "174012.134000", "174012.137000", "174012.140000", "174012.143000", "174012.146000", "174052.064000", "174052.067000", "174052.070000", "174052.073000", "174052.076000", "174052.078000", "174052.081000", "174052.084000", "174052.087000", "174052.090000", "174052.093000", "174052.096000", "174052.098000", "174052.101000", "174052.104000", "174052.107000", "174052.110000", "174052.113000", "174052.116000", "174052.119000", "174052.121000", "174052.125000", "174052.128000", "174052.131000", "174052.134000", "174052.137000", "174052.140000", "174132.063000", "174132.066000", "174132.069000", "174132.072000", "174132.075000", "174132.078000", "174132.080000", "174132.083000", "174132.086000", "174132.089000", "174132.092000", "174132.095000", "174132.097000", "174132.100000", "174132.103000", "174132.106000", "174132.109000", "174132.112000", "174132.115000", "174132.117000", "174132.120000", "174132.123000", "174132.126000", "174132.129000", "174132.132000", "174132.135000", "174132.138000", "174212.063000", "174212.066000", "174212.069000", "174212.071000", "174212.082000", "174212.084000", "174212.087000", "174212.090000", "174212.093000", "174212.096000", "174212.099000", "174212.102000", "174212.105000", "174212.107000", "174212.110000", "174212.113000", "174212.116000", "174212.119000", "174212.122000", "174212.124000", "174212.127000", "174212.130000", "174212.133000", "174212.136000", "174212.139000", "174212.142000", "174212.144000", "174252.064000", "174252.067000", "174252.070000", "174252.073000", "174252.076000", "174252.079000", "174252.081000", "174252.084000", "174252.087000", "174252.090000", "174252.093000", "174252.096000", "174252.099000", "174252.102000", "174252.104000", "174252.107000", "174252.110000", "174252.113000", "174252.117000", "174252.120000", "174252.123000", "174252.126000", "174252.129000", "174252.132000", "174252.134000", "174252.137000", "174332.063000", "174332.066000", "174332.069000", "174332.072000", "174332.075000", "174332.078000", "174332.080000", "174332.083000", "174332.086000", "174332.089000", "174332.092000", "174332.095000", "174332.097000", "174332.100000", "174332.103000", "174332.106000", "174332.109000", "174332.112000", "174332.115000", "174332.117000", "174332.120000", "174332.123000", "174332.126000", "174332.129000", "174332.132000", "174332.135000", "174332.138000", "174412.063000", "174412.066000", "174412.069000", "174412.071000", "174412.074000", "174412.077000", "174412.080000", "174412.083000", "174412.086000", "174412.089000", "174412.092000", "174412.094000", "174412.097000", "174412.100000", "174412.103000", "174412.106000", "174412.109000", "174412.112000", "174412.115000", "174412.117000", "174412.120000", "174412.123000", "174412.126000", "174412.129000", "174412.132000", "174412.135000", "174412.138000", "174452.064000", "174452.067000", "174452.070000", "174452.073000", "174452.076000", "174452.078000", "174452.081000", "174452.084000", "174452.098000", "174452.100000", "174452.103000", "174452.106000", "174452.109000", "174452.112000", "174452.115000", "174452.118000", "174452.121000", "174452.123000", "174452.126000", "174452.129000", "174452.132000", "174452.135000", "174452.138000", "174452.141000", "174452.143000", "174452.146000", "174452.149000", "174532.064000", "174532.067000", "174532.070000", "174532.073000", "174532.076000", "174532.078000", "174532.081000", "174532.084000", "174532.087000", "174532.090000", "174532.093000", "174532.096000", "174532.099000", "174532.101000", "174532.111000", "174532.114000", "174532.117000", "174532.120000", "174532.123000", "174532.125000", "174532.128000", "174532.131000", "174532.134000", "174532.137000", "174532.140000", "174532.143000", "174532.146000", "174548.123000", "174548.127000", "174548.130000", "174548.133000", "174548.135000", "174548.145000", "174548.148000", "174548.151000", "174548.154000", "174548.157000", "174548.161000"],
