{
  "AcquisitionMatrixPE": 104,
  "AcquisitionNumber": 1,
  "AcquisitionTime": "16:16:57.777500",
  "BandwidthPerPixelPhaseEncode": 17.17,
  "BaseResolution": 104,
  "BodyPartExamined": "BRAIN",
  "CoilString": "HC1-7;NC1_2",
  "ConsistencyInfo": "N4_VE11C_LATEST_20160120",
  "ConversionSoftware": "dcm2niix",
  "ConversionSoftwareVersion": "v1.0.20190902",
  "DerivedVendorReportedEchoSpacing": 0.000560011,
  "DeviceSerialNumber": "167006",
  "DwellTime": 2.1e-06,
  "EchoTime": 0.037,
  "EchoTrainLength": 104,
  "EffectiveEchoSpacing": 0.000560011,
  "FlipAngle": 52,
  "HeudiconvVersion": "0.10.0",
  "ImageComments": "Unaliased_MB4_PE3_LB",
  "ImageOrientationPatientDICOM": [0.999637, -0.00215683, 0.0268577, 0.0158781, 0.85248, -0.522519],
  "ImageType": [
    "ORIGINAL",
    "PRIMARY",
    "M",
    "MB",
    "ND",
    "MOSAIC"
],
  "ImagingFrequency": 123.259,
  "InPlanePhaseEncodingDirectionDICOM": "COL",
  "InstitutionAddress": "Chemin_Queen-Mary_4565_Montreal_District_CA_H3W_1W5",
  "InstitutionName": "IUGM",
  "InstitutionalDepartmentName": "Department",
  "MRAcquisitionType": "2D",
  "MagneticFieldStrength": 3,
  "Manufacturer": "Siemens",
  "ManufacturersModelName": "Prisma_fit",
  "Modality": "MR",
  "MultibandAccelerationFactor": 4,
  "PartialFourier": 1,
  "PatientPosition": "HFS",
  "PercentPhaseFOV": 100,
  "PhaseEncodingDirection": "j",
  "PhaseEncodingSteps": 104,
  "PhaseResolution": 1,
  "PixelBandwidth": 2290,
  "ProcedureStepDescription": "video_friends",
  "ProtocolName": "func_task-friends-s06e18a",
  "PulseSequenceDetails": "%CustomerSeq%_cmrr_mbep2d_bold",
  "ReceiveCoilActiveElements": "HC1-7;NC1,2",
  "ReceiveCoilName": "HeadNeck_64",
  "ReconMatrixPE": 104,
  "RepetitionTime": 1.49,
  "SAR": 0.0656971,
  "ScanOptions": "FS",
  "ScanningSequence": "EP",
  "SequenceName": "epfid2d1_104",
  "SequenceVariant": "SK_SS",
  "SeriesDescription": "func_task-friends-s06e18a",
  "SeriesNumber": 13,
  "ShimSetting": [625, -7179, -8865, 271, 9, -161, 17, 12],
  "SliceThickness": 2,
  "SliceTiming": [0, 0.785, 0.0975, 0.8825, 0.195, 0.98, 0.295, 1.0775, 0.3925, 1.175, 0.49, 1.275, 0.5875, 1.3725, 0.685, 0, 0.785, 0.0975, 0.8825, 0.195, 0.98, 0.295, 1.0775, 0.3925, 1.175, 0.49, 1.275, 0.5875, 1.3725, 0.685, 0, 0.785, 0.0975, 0.8825, 0.195, 0.98, 0.295, 1.0775, 0.3925, 1.175, 0.49, 1.275, 0.5875, 1.3725, 0.685, 0, 0.785, 0.0975, 0.8825, 0.195, 0.98, 0.295, 1.0775, 0.3925, 1.175, 0.49, 1.275, 0.5875, 1.3725, 0.685],
  "SoftwareVersions": "syngo_MR_E11",
  "SpacingBetweenSlices": 2,
  "StationName": "MRC35049",
  "TaskName": "s06e18a",
  "TotalReadoutTime": 0.0576811,
  "TxRefAmp": 298.265,
  "WipMemBlock": "5d733c05-c41c-462f-bd2f-8695dc51fe83||Sequence: R016 ve11c/master r/e634e98; Dec 19 2017 11:00:25 by eja",
  "dcmmeta_affine": [
    [-1.9992738962173462, 0.031756121665239334, 0.04353722929954529, 100.1586685180664],
    [0.004313665442168713, 1.7049592733383179, -1.0455119609832764, -58.056373596191406],
    [0.0537153035402298, 1.0450384616851807, 1.7044087648391724, -102.97048950195312],
    [0.0, 0.0, 0.0, 1.0]
],
  "dcmmeta_reorient_transform": [
    [0.0, -1.0, 0.0, 103.0],
    [1.0, 0.0, 0.0, 0.0],
    [0.0, 0.0, 1.0, 0.0],
    [0.0, 0.0, 0.0, 1.0]
],
  "dcmmeta_shape": [104, 104, 60, 435],
  "dcmmeta_slice_dim": 2,
  "dcmmeta_version": 0.6,
  "global": {
    "const": {
      "AcquisitionMatrix": [104, 0, 0, 104],
      "AngioFlag": "N",
      "BitsAllocated": 16,
      "BitsStored": 16,
      "BodyPartExamined": "BRAIN",
      "Columns": 832,
      "EchoNumbers": 1,
      "EchoTime": 37.0,
      "EchoTrainLength": 104,
      "FlipAngle": 52.0,
      "HighBit": 15,
      "ImageOrientationPatient": [0.99963694141276, -0.0021568326484, 0.02685765134673, 0.01587806011302, 0.85247963758178, -0.522519238608],
      "ImagePositionPatient": [-842.72446742591, -736.58943475802, 365.51010765459],
      "ImageType": [
        "ORIGINAL",
        "PRIMARY",
        "M",
        "MB",
        "ND",
        "MOSAIC"
],
      "ImagedNucleus": "1H",
      "ImagingFrequency": 123.258863,
      "InPlanePhaseEncodingDirection": "COL",
      "MRAcquisitionType": "2D",
      "MagneticFieldStrength": 3.0,
      "Manufacturer": "SIEMENS",
      "ManufacturerModelName": "Prisma_fit",
      "Modality": "MR",
      "NumberOfAverages": 1.0,
      "NumberOfPhaseEncodingSteps": 104,
      "PercentPhaseFieldOfView": 100.0,
      "PercentSampling": 100.0,
      "PerformedProcedureStepStartTime": "151839.155000",
      "PhotometricInterpretation": "MONOCHROME2",
      "PixelBandwidth": 2290.0,
      "PixelRepresentation": 0,
      "PixelSpacing": [2.0, 2.0],
      "ProtocolName": "func_task-friends-s06e18a",
      "RepetitionTime": 1490.0,
      "Rows": 832,
      "SAR": 0.06569710360127,
      "SamplesPerPixel": 1,
      "ScanOptions": "FS",
      "ScanningSequence": "EP",
      "SequenceName": "epfid2d1_104",
      "SequenceVariant": [
        "SK",
        "SS"
],
      "SeriesDescription": "func_task-friends-s06e18a",
      "SeriesNumber": 13,
      "SeriesTime": "161815.544000",
      "SliceLocation": -55.222272493591,
      "SliceThickness": 2.0,
      "SmallestImagePixelValue": 0,
      "SoftwareVersions": "syngo MR E11",
      "SpacingBetweenSlices": 1.9999999928753,
      "SpecificCharacterSet": "ISO_IR 100",
      "StudyID": "1",
      "StudyTime": "151839.098000",
      "TransmitCoilName": "Body",
      "VariableFlipAngleFlag": "N",
      "WindowCenterWidthExplanation": "Algo1",
      "dBdt": 0.0},
    "slices": {}
  },
  "time": {
    "samples": {
      "AcquisitionNumber": [1, 2, 3, 4, 5, 6, 7, 8, 9, 10, 11, 12, 13, 14, 15, 16, 17, 18, 19, 20, 21, 22, 23, 24, 25, 26, 27, 28, 29, 30, 31, 32, 33, 34, 35, 36, 37, 38, 39, 40, 41, 42, 43, 44, 45, 46, 47, 48, 49, 50, 51, 52, 53, 54, 55, 56, 57, 58, 59, 60, 61, 62, 63, 64, 65, 66, 67, 68, 69, 70, 71, 72, 73, 74, 75, 76, 77, 78, 79, 80, 81, 82, 83, 84, 85, 86, 87, 88, 89, 90, 91, 92, 93, 94, 95, 96, 97, 98, 99, 100, 101, 102, 103, 104, 105, 106, 107, 108, 109, 110, 111, 112, 113, 114, 115, 116, 117, 118, 119, 120, 121, 122, 123, 124, 125, 126, 127, 128, 129, 130, 131, 132, 133, 134, 135, 136, 137, 138, 139, 140, 141, 142, 143, 144, 145, 146, 147, 148, 149, 150, 151, 152, 153, 154, 155, 156, 157, 158, 159, 160, 161, 162, 163, 164, 165, 166, 167, 168, 169, 170, 171, 172, 173, 174, 175, 176, 177, 178, 179, 180, 181, 182, 183, 184, 185, 186, 187, 188, 189, 190, 191, 192, 193, 194, 195, 196, 197, 198, 199, 200, 201, 202, 203, 204, 205, 206, 207, 208, 209, 210, 211, 212, 213, 214, 215, 216, 217, 218, 219, 220, 221, 222, 223, 224, 225, 226, 227, 228, 229, 230, 231, 232, 233, 234, 235, 236, 237, 238, 239, 240, 241, 242, 243, 244, 245, 246, 247, 248, 249, 250, 251, 252, 253, 254, 255, 256, 257, 258, 259, 260, 261, 262, 263, 264, 265, 266, 267, 268, 269, 270, 271, 272, 273, 274, 275, 276, 277, 278, 279, 280, 281, 282, 283, 284, 285, 286, 287, 288, 289, 290, 291, 292, 293, 294, 295, 296, 297, 298, 299, 300, 301, 302, 303, 304, 305, 306, 307, 308, 309, 310, 311, 312, 313, 314, 315, 316, 317, 318, 319, 320, 321, 322, 323, 324, 325, 326, 327, 328, 329, 330, 331, 332, 333, 334, 335, 336, 337, 338, 339, 340, 341, 342, 343, 344, 345, 346, 347, 348, 349, 350, 351, 352, 353, 354, 355, 356, 357, 358, 359, 360, 361, 362, 363, 364, 365, 366, 367, 368, 369, 370, 371, 372, 373, 374, 375, 376, 377, 378, 379, 380, 381, 382, 383, 384, 385, 386, 387, 388, 389, 390, 391, 392, 393, 394, 395, 396, 397, 398, 399, 400, 401, 402, 403, 404, 405, 406, 407, 408, 409, 410, 411, 412, 413, 414, 415, 416, 417, 418, 419, 420, 421, 422, 423, 424, 425, 426, 427, 428, 429, 430, 431, 432, 433, 434, 435],
      "AcquisitionTime": ["161657.777500", "161659.267500", "161700.757500", "161702.247500", "161703.737500", "161705.227500", "161706.717500", "161708.207500", "161709.697500", "161711.187500", "161712.677500", "161714.167500", "161715.657500", "161717.147500", "161718.637500", "161720.127500", "161721.617500", "161723.107500", "161724.597500", "161726.087500", "161727.577500", "161729.067500", "161730.557500", "161732.047500", "161733.537500", "161735.027500", "161736.517500", "161738.007500", "161739.497500", "161740.987500", "161742.477500", "161743.967500", "161745.457500", "161746.947500", "161748.437500", "161749.927500", "161751.417500", "161752.907500", "161754.397500", "161755.887500", "161757.377500", "161758.867500", "161800.357500", "161801.847500", "161803.337500", "161804.827500", "161806.317500", "161807.807500", "161809.297500", "161810.787500", "161812.277500", "161813.767500", "161815.257500", "161816.747500", "161818.237500", "161819.727500", "161821.217500", "161822.707500", "161824.197500", "161825.687500", "161827.177500", "161828.667500", "161830.157500", "161831.647500", "161833.137500", "161834.627500", "161836.117500", "161837.607500", "161839.097500", "161840.587500", "161842.077500", "161843.567500", "161845.057500", "161846.547500", "161848.037500", "161849.527500", "161851.017500", "161852.507500", "161853.997500", "161855.487500", "161856.977500", "161858.467500", "161859.957500", "161901.447500", "161902.937500", "161904.427500", "161905.917500", "161907.407500", "161908.897500", "161910.387500", "161911.877500", "161913.367500", "161914.857500", "161916.347500", "161917.837500", "161919.327500", "161920.817500", "161922.307500", "161923.797500", "161925.287500", "161926.777500", "161928.267500", "161929.757500", "161931.247500", "161932.737500", "161934.227500", "161935.717500", "161937.207500", "161938.697500", "161940.187500", "161941.677500", "161943.167500", "161944.657500", "161946.147500", "161947.637500", "161949.127500", "161950.617500", "161952.107500", "161953.597500", "161955.087500", "161956.577500", "161958.067500", "161959.557500", "162001.047500", "162002.537500", "162004.027500", "162005.517500", "162007.007500", "162008.497500", "162009.987500", "162011.477500", "162012.967500", "162014.457500", "162015.947500", "162017.437500", "162018.927500", "162020.417500", "162021.907500", "162023.397500", "162024.887500", "162026.377500", "162027.867500", "162029.357500", "162030.847500", "162032.337500", "162033.827500", "162035.317500", "162036.807500", "162038.297500", "162039.787500", "162041.277500", "162042.767500", "162044.257500", "162045.747500", "162047.237500", "162048.727500", "162050.217500", "162051.707500", "162053.197500", "162054.687500", "162056.177500", "162057.667500", "162059.157500", "162100.647500", "162102.137500", "162103.627500", "162105.117500", "162106.607500", "162108.097500", "162109.587500", "162111.077500", "162112.567500", "162114.057500", "162115.547500", "162117.037500", "162118.527500", "162120.017500", "162121.507500", "162122.997500", "162124.487500", "162125.977500", "162127.467500", "162128.957500", "162130.447500", "162131.937500", "162133.427500", "162134.917500", "162136.407500", "162137.897500", "162139.387500", "162140.877500", "162142.367500", "162143.857500", "162145.347500", "162146.837500", "162148.327500", "162149.817500", "162151.307500", "162152.797500", "162154.287500", "162155.777500", "162157.267500", "162158.757500", "162200.247500", "162201.737500", "162203.227500", "162204.717500", "162206.207500", "162207.697500", "162209.187500", "162210.677500", "162212.167500", "162213.657500", "162215.147500", "162216.637500", "162218.127500", "162219.617500", "162221.107500", "162222.597500", "162224.087500", "162225.577500", "162227.067500", "162228.557500", "162230.047500", "162231.537500", "162233.027500", "162234.517500", "162236.007500", "162237.497500", "162238.987500", "162240.477500", "162241.967500", "162243.457500", "162244.947500", "162246.437500", "162247.927500", "162249.417500", "162250.907500", "162252.397500", "162253.887500", "162255.377500", "162256.867500", "162258.357500", "162259.847500", "162301.337500", "162302.827500", "162304.317500", "162305.807500", "162307.297500", "162308.787500", "162310.277500", "162311.767500", "162313.257500", "162314.747500", "162316.237500", "162317.727500", "162319.217500", "162320.707500", "162322.197500", "162323.687500", "162325.177500", "162326.667500", "162328.157500", "162329.647500", "162331.137500", "162332.627500", "162334.117500", "162335.607500", "162337.097500", "162338.587500", "162340.077500", "162341.567500", "162343.057500", "162344.547500", "162346.037500", "162347.527500", "162349.017500", "162350.507500", "162351.997500", "162353.487500", "162354.977500", "162356.467500", "162357.957500", "162359.447500", "162400.937500", "162402.427500", "162403.917500", "162405.407500", "162406.897500", "162408.387500", "162409.877500", "162411.367500", "162412.857500", "162414.347500", "162415.837500", "162417.327500", "162418.817500", "162420.307500", "162421.797500", "162423.287500", "162424.777500", "162426.267500", "162427.757500", "162429.247500", "162430.737500", "162432.227500", "162433.717500", "162435.207500", "162436.697500", "162438.187500", "162439.677500", "162441.167500", "162442.657500", "162444.147500", "162445.637500", "162447.127500", "162448.617500", "162450.107500", "162451.597500", "162453.087500", "162454.577500", "162456.067500", "162457.557500", "162459.047500", "162500.537500", "162502.027500", "162503.517500", "162505.007500", "162506.497500", "162507.987500", "162509.477500", "162510.967500", "162512.457500", "162513.947500", "162515.437500", "162516.927500", "162518.417500", "162519.907500", "162521.397500", "162522.887500", "162524.377500", "162525.867500", "162527.357500", "162528.847500", "162530.337500", "162531.827500", "162533.317500", "162534.807500", "162536.297500", "162537.787500", "162539.277500", "162540.767500", "162542.257500", "162543.747500", "162545.237500", "162546.727500", "162548.217500", "162549.707500", "162551.197500", "162552.687500", "162554.177500", "162555.667500", "162557.157500", "162558.647500", "162600.137500", "162601.627500", "162603.117500", "162604.607500", "162606.097500", "162607.587500", "162609.077500", "162610.567500", "162612.057500", "162613.547500", "162615.037500", "162616.527500", "162618.017500", "162619.507500", "162620.997500", "162622.487500", "162623.977500", "162625.467500", "162626.957500", "162628.447500", "162629.937500", "162631.427500", "162632.917500", "162634.407500", "162635.897500", "162637.387500", "162638.877500", "162640.367500", "162641.857500", "162643.347500", "162644.837500", "162646.327500", "162647.817500", "162649.307500", "162650.797500", "162652.287500", "162653.777500", "162655.267500", "162656.757500", "162658.247500", "162659.737500", "162701.227500", "162702.717500", "162704.207500", "162705.697500", "162707.187500", "162708.677500", "162710.167500", "162711.657500", "162713.147500", "162714.637500", "162716.127500", "162717.617500", "162719.107500", "162720.597500", "162722.087500", "162723.577500", "162725.067500", "162726.557500", "162728.047500", "162729.537500", "162731.027500", "162732.517500", "162734.007500", "162735.497500", "162736.987500", "162738.477500", "162739.967500", "162741.457500", "162742.947500", "162744.437500"],
      "ContentTime": ["161815.547000", "161815.550000", "161815.553000", "161815.564000", "161815.567000", "161815.570000", "161815.573000", "161815.576000", "161815.579000", "161815.582000", "161815.590000", "161815.593000", "161815.596000", "161815.599000", "161815.602000", "161815.605000", "161815.617000", "161815.620000", "161815.622000", "161815.625000", "161815.628000", "161815.631000", "161815.634000", "161815.637000", "161835.527000", "161835.530000", "161835.533000", "161835.541000", "161835.544000", "161835.547000", "161835.550000", "161835.553000", "161835.555000", "161835.558000", "161835.561000", "161835.564000", "161835.567000", "161835.570000", "161835.573000", "161835.575000", "161835.578000", "161835.581000", "161835.584000", "161835.586000", "161855.518000", "161855.521000", "161855.524000", "161855.527000", "161855.530000", "161855.532000", "161855.535000", "161855.538000", "161855.541000", "161855.544000", "161855.547000", "161855.550000", "161855.552000", "161855.555000", "161855.558000", "161855.561000", "161855.564000", "161855.567000", "161855.570000", "161855.573000", "161915.518000", "161915.521000", "161915.524000", "161915.527000", "161915.529000", "161915.532000", "161915.535000", "161915.538000", "161915.541000", "161915.543000", "161915.546000", "161915.549000", "161915.552000", "161915.555000", "161915.558000", "161915.561000", "161915.564000", "161915.566000", "161915.569000", "161915.572000", "161935.519000", "161935.522000", "161935.525000", "161935.528000", "161935.530000", "161935.533000", "161935.536000", "161935.539000", "161935.542000", "161935.545000", "161935.547000", "161935.550000", "161935.553000", "161935.556000", "161935.559000", "161935.562000", "161935.565000", "161935.567000", "161935.570000", "161935.573000", "161935.583000", "162015.519000", "162015.522000", "162015.525000", "162015.528000", "162015.530000", "162015.533000", "162015.536000", "162015.540000", "162015.543000", "162015.546000", "162015.550000", "162015.554000", "162015.557000", "162015.560000", "162015.563000", "162015.566000", "162015.568000", "162015.571000", "162015.574000", "162015.577000", "162015.580000", "162015.588000", "162015.591000", "162015.594000", "162015.597000", "162015.600000", "162035.519000", "162035.522000", "162035.525000", "162035.528000", "162035.531000", "162035.534000", "162035.536000", "162035.539000", "162035.542000", "162035.545000", "162035.548000", "162035.551000", "162035.554000", "162035.557000", "162115.518000", "162115.521000", "162115.524000", "162115.527000", "162115.529000", "162115.532000", "162115.535000", "162115.538000", "162115.541000", "162115.544000", "162115.546000", "162115.549000", "162115.552000", "162115.555000", "162115.558000", "162115.561000", "162115.564000", "162115.567000", "162115.569000", "162115.572000", "162115.575000", "162115.578000", "162115.581000", "162115.588000", "162115.591000", "162115.594000", "162115.597000", "162155.519000", "162155.522000", "162155.525000", "162155.528000", "162155.530000", "162155.533000", "162155.536000", "162155.539000", "162155.542000", "162155.545000", "162155.548000", "162155.550000", "162155.553000", "162155.556000", "162155.559000", "162155.562000", "162155.565000", "162155.568000", "162155.570000", "162155.573000", "162155.576000", "162155.579000", "162155.582000", "162155.585000", "162155.587000", "162155.590000", "162155.593000", "162235.519000", "162235.522000", "162235.525000", "162235.528000", "162235.531000", "162235.534000", "162235.537000", "162235.540000", "162235.543000", "162235.546000", "162235.549000", "162235.551000", "162235.554000", "162235.557000", "162235.560000", "162235.563000", "162235.566000", "162235.569000", "162235.571000", "162235.574000", "162235.577000", "162235.580000", "162235.590000", "162235.593000", "162235.596000", "162235.599000", "162315.518000", "162315.521000", "162315.524000", "162315.527000", "162315.529000", "162315.532000", "162315.535000", "162315.538000", "162315.541000", "162315.544000", "162315.547000", "162315.549000", "162315.552000", "162315.555000", "162315.558000", "162315.561000", "162315.564000", "162315.566000", "162315.569000", "162315.572000", "162315.575000", "162315.578000", "162315.581000", "162315.583000", "162315.586000", "162315.589000", "162315.592000", "162355.518000", "162355.521000", "162355.524000", "162355.527000", "162355.530000", "162355.533000", "162355.535000", "162355.538000", "162355.541000", "162355.544000", "162355.547000", "162355.550000", "162355.553000", "162355.556000", "162355.559000", "162355.561000", "162355.564000", "162355.567000", "162355.570000", "162355.573000", "162355.576000", "162355.578000", "162355.581000", "162355.584000", "162355.587000", "162355.590000", "162355.593000", "162435.519000", "162435.522000", "162435.525000", "162435.528000", "162435.531000", "162435.533000", "162435.536000", "162435.539000", "162435.542000", "162435.545000", "162435.548000", "162435.550000", "162435.553000", "162435.556000", "162435.559000", "162435.562000", "162435.565000", "162435.568000", "162435.571000", "162435.574000", "162435.576000", "162435.579000", "162435.582000", "162435.585000", "162435.588000", "162435.591000", "162435.594000", "162515.519000", "162515.522000", "162515.525000", "162515.528000", "162515.531000", "162515.533000", "162515.536000", "162515.539000", "162515.542000", "162515.545000", "162515.548000", "162515.550000", "162515.553000", "162515.556000", "162515.559000", "162515.562000", "162515.565000", "162515.568000", "162515.571000", "162515.574000", "162515.577000", "162515.579000", "162515.582000", "162515.585000", "162515.588000", "162515.591000", "162515.602000", "162555.518000", "162555.521000", "162555.524000", "162555.527000", "162555.530000", "162555.532000", "162555.535000", "162555.538000", "162555.541000", "162555.544000", "162555.547000", "162555.550000", "162555.553000", "162555.555000", "162555.558000", "162555.561000", "162555.564000", "162555.567000", "162555.570000", "162555.573000", "162555.576000", "162555.578000", "162555.581000", "162555.584000", "162555.587000", "162555.590000", "162555.593000", "162635.519000", "162635.522000", "162635.525000", "162635.528000", "162635.531000", "162635.534000", "162635.536000", "162635.539000", "162635.542000", "162635.545000", "162635.548000", "162635.551000", "162635.554000", "162635.557000", "162635.560000", "162635.563000", "162635.566000", "162635.568000", "162635.571000", "162635.574000", "162635.577000", "162635.580000", "162635.583000", "162635.586000", "162635.588000", "162635.591000", "162635.594000", "162715.519000", "162715.522000", "162715.525000", "162715.528000", "162715.531000", "162715.534000", "162715.537000", "162715.540000", "162715.542000", "162715.545000", "162715.548000", "162715.551000", "162715.554000", "162715.557000", "162715.560000", "162715.562000", "162715.565000", "162715.568000", "162715.581000", "162715.584000", "162715.587000", "162715.590000", "162715.592000", "162715.595000", "162715.599000", "162715.602000", "162747.073000", "162747.077000", "162747.080000", "162747.082000", "162747.085000", "162747.088000", "162747.091000", "162747.094000", "162747.097000", "162747.100000", "162747.103000", "162747.106000", "162747.108000", "162747.111000", "162747.114000", "162747.117000", "162747.120000", "162747.124000", "162747.127000", "162747.130000", "162747.133000", "162747.136000"],
      "InstanceCreationTime": ["161815.547000", "161815.550000", "161815.553000", "161815.564000", "161815.567000", "161815.570000", "161815.573000", "161815.576000", "161815.579000", "161815.582000", "161815.590000", "161815.593000", "161815.596000", "161815.599000", "161815.602000", "161815.605000", "161815.617000", "161815.620000", "161815.622000", "161815.625000", "161815.628000", "161815.631000", "161815.634000", "161815.637000", "161835.527000", "161835.530000", "161835.533000", "161835.541000", "161835.544000", "161835.547000", "161835.550000", "161835.553000", "161835.555000", "161835.558000", "161835.561000", "161835.564000", "161835.567000", "161835.570000", "161835.573000", "161835.575000", "161835.578000", "161835.581000", "161835.584000", "161835.586000", "161855.518000", "161855.521000", "161855.524000", "161855.527000", "161855.530000", "161855.532000", "161855.535000", "161855.538000", "161855.541000", "161855.544000", "161855.547000", "161855.550000", "161855.552000", "161855.555000", "161855.558000", "161855.561000", "161855.564000", "161855.567000", "161855.570000", "161855.573000", "161915.518000", "161915.521000", "161915.524000", "161915.527000", "161915.529000", "161915.532000", "161915.535000", "161915.538000", "161915.541000", "161915.543000", "161915.546000", "161915.549000", "161915.552000", "161915.555000", "161915.558000", "161915.561000", "161915.564000", "161915.566000", "161915.569000", "161915.572000", "161935.519000", "161935.522000", "161935.525000", "161935.528000", "161935.530000", "161935.533000", "161935.536000", "161935.539000", "161935.542000", "161935.545000", "161935.547000", "161935.550000", "161935.553000", "161935.556000", "161935.559000", "161935.562000", "161935.565000", "161935.567000", "161935.570000", "161935.573000", "161935.583000", "162015.519000", "162015.522000", "162015.525000", "162015.528000", "162015.530000", "162015.533000", "162015.536000", "162015.540000", "162015.543000", "162015.546000", "162015.550000", "162015.554000", "162015.557000", "162015.560000", "162015.563000", "162015.566000", "162015.568000", "162015.571000", "162015.574000", "162015.577000", "162015.580000", "162015.588000", "162015.591000", "162015.594000", "162015.597000", "162015.600000", "162035.519000", "162035.522000", "162035.525000", "162035.528000", "162035.531000", "162035.534000", "162035.536000", "162035.539000", "162035.542000", "162035.545000", "162035.548000", "162035.551000", "162035.554000", "162035.557000", "162115.518000", "162115.521000", "162115.524000", "162115.527000", "162115.529000", "162115.532000", "162115.535000", "162115.538000", "162115.541000", "162115.544000", "162115.546000", "162115.549000", "162115.552000", "162115.555000", "162115.558000", "162115.561000", "162115.564000", "162115.567000", "162115.569000", "162115.572000", "162115.575000", "162115.578000", "162115.581000", "162115.588000", "162115.591000", "162115.594000", "162115.597000", "162155.519000", "162155.522000", "162155.525000", "162155.528000", "162155.530000", "162155.533000", "162155.536000", "162155.539000", "162155.542000", "162155.545000", "162155.548000", "162155.550000", "162155.553000", "162155.556000", "162155.559000", "162155.562000", "162155.565000", "162155.568000", "162155.570000", "162155.573000", "162155.576000", "162155.579000", "162155.582000", "162155.585000", "162155.587000", "162155.590000", "162155.593000", "162235.519000", "162235.522000", "162235.525000", "162235.528000", "162235.531000", "162235.534000", "162235.537000", "162235.540000", "162235.543000", "162235.546000", "162235.549000", "162235.551000", "162235.554000", "162235.557000", "162235.560000", "162235.563000", "162235.566000", "162235.569000", "162235.571000", "162235.574000", "162235.577000", "162235.580000", "162235.590000", "162235.593000", "162235.596000", "162235.599000", "162315.518000", "162315.521000", "162315.524000", "162315.527000", "162315.529000", "162315.532000", "162315.535000", "162315.538000", "162315.541000", "162315.544000", "162315.547000", "162315.549000", "162315.552000", "162315.555000", "162315.558000", "162315.561000", "162315.564000", "162315.566000", "162315.569000", "162315.572000", "162315.575000", "162315.578000", "162315.581000", "162315.583000", "162315.586000", "162315.589000", "162315.592000", "162355.518000", "162355.521000", "162355.524000", "162355.527000", "162355.530000", "162355.533000", "162355.535000", "162355.538000", "162355.541000", "162355.544000", "162355.547000", "162355.550000", "162355.553000", "162355.556000", "162355.559000", "162355.561000", "162355.564000", "162355.567000", "162355.570000", "162355.573000", "162355.576000", "162355.578000", "162355.581000", "162355.584000", "162355.587000", "162355.590000", "162355.593000", "162435.519000", "162435.522000", "162435.525000", "162435.528000", "162435.531000", "162435.533000", "162435.536000", "162435.539000", "162435.542000", "162435.545000", "162435.548000", "162435.550000", "162435.553000", "162435.556000", "162435.559000", "162435.562000", "162435.565000", "162435.568000", "162435.571000", "162435.574000", "162435.576000", "162435.579000", "162435.582000", "162435.585000", "162435.588000", "162435.591000", "162435.594000", "162515.519000", "162515.522000", "162515.525000", "162515.528000", "162515.531000", "162515.533000", "162515.536000", "162515.539000", "162515.542000", "162515.545000", "162515.548000", "162515.550000", "162515.553000", "162515.556000", "162515.559000", "162515.562000", "162515.565000", "162515.568000", "162515.571000", "162515.574000", "162515.577000", "162515.579000", "162515.582000", "162515.585000", "162515.588000", "162515.591000", "162515.602000", "162555.518000", "162555.521000", "162555.524000", "162555.527000", "162555.530000", "162555.532000", "162555.535000", "162555.538000", "162555.541000", "162555.544000", "162555.547000", "162555.550000", "162555.553000", "162555.555000", "162555.558000", "162555.561000", "162555.564000", "162555.567000", "162555.570000", "162555.573000", "162555.576000", "162555.578000", "162555.581000", "162555.584000", "162555.587000", "162555.590000", "162555.593000", "162635.519000", "162635.522000", "162635.525000", "162635.528000", "162635.531000", "162635.534000", "162635.536000", "162635.539000", "162635.542000", "162635.545000", "162635.548000", "162635.551000", "162635.554000", "162635.557000", "162635.560000", "162635.563000", "162635.566000", "162635.568000", "162635.571000", "162635.574000", "162635.577000", "162635.580000", "162635.583000", "162635.586000", "162635.588000", "162635.591000", "162635.594000", "162715.519000", "162715.522000", "162715.525000", "162715.528000", "162715.531000", "162715.534000", "162715.537000", "162715.540000", "162715.542000", "162715.545000", "162715.548000", "162715.551000", "162715.554000", "162715.557000", "162715.560000", "162715.562000", "162715.565000", "162715.568000", "162715.581000", "162715.584000", "162715.587000", "162715.590000", "162715.592000", "162715.595000", "162715.599000", "162715.602000", "162747.073000", "162747.077000", "162747.080000", "162747.082000", "162747.085000", "162747.088000", "162747.091000", "162747.094000", "162747.097000", "162747.100000", "162747.103000", "162747.106000", "162747.108000", "162747.111000", "162747.114000", "162747.117000", "162747.120000", "162747.124000", "162747.127000", "162747.130000", "162747.133000", "162747.136000"],
