{
  "AcquisitionMatrixPE": 104,
  "AcquisitionNumber": 1,
  "AcquisitionTime": "10:15:55.845000",
  "BandwidthPerPixelPhaseEncode": 17.17,
  "BaseResolution": 104,
  "BodyPartExamined": "BRAIN",
  "CoilCombinationMethod": "Sum of Squares",
  "ConsistencyInfo": "N4_VE11C_LATEST_20160120",
  "ConversionSoftware": "dcm2niix",
  "ConversionSoftwareVersion": "v1.0.20230411",
  "DerivedVendorReportedEchoSpacing": 0.000560011,
  "DeviceSerialNumber": "167006",
  "DwellTime": 2.1e-06,
  "EchoTime": 0.037,
  "EchoTrainLength": 104,
  "EffectiveEchoSpacing": 0.000560011,
  "FlipAngle": 52,
  "HeudiconvVersion": "0.5.3.post861+ge7d3c7f",
  "ImageComments": "Unaliased MB4/PE3/LB",
  "ImageOrientationPatientDICOM": [0.999898, 0.00565008, -0.0131483, -0.00872602, 0.968917, -0.247232],
  "ImageOrientationText": "Tra>Cor(-14.3)>Sag(-0.6)",
  "ImageType": [
    "ORIGINAL",
    "PRIMARY",
    "M",
    "MB",
    "ND",
    "MOSAIC"
],
  "ImagingFrequency": 123.250086,
  "InPlanePhaseEncodingDirectionDICOM": "COL",
  "InstitutionAddress": "Chemin Queen-Mary 4565,Montreal,District,CA,H3W 1W5",
  "InstitutionName": "IUGM",
  "InstitutionalDepartmentName": "Department",
  "MRAcquisitionType": "2D",
  "MagneticFieldStrength": 3,
  "Manufacturer": "Siemens",
  "ManufacturersModelName": "Prisma_fit",
  "MatrixCoilMode": "SENSE",
  "Modality": "MR",
  "MultibandAccelerationFactor": 4,
  "NonlinearGradientCorrection": false,
  "PartialFourier": 1,
  "PatientPosition": "HFS",
  "PercentPhaseFOV": 100,
  "PercentSampling": 100,
  "PhaseEncodingDirection": "j",
  "PhaseEncodingSteps": 104,
  "PhaseResolution": 1,
  "PixelBandwidth": 2290,
  "ProcedureStepDescription": "video^friends",
  "ProtocolName": "func_task-friends-s07e10a",
  "PulseSequenceDetails": "%CustomerSeq%\\cmrr_mbep2d_bold",
  "ReceiveCoilActiveElements": "HC1-7;NC1,2",
  "ReceiveCoilName": "HeadNeck_64",
  "ReconMatrixPE": 104,
  "RepetitionTime": 1.49,
  "SAR": 0.0619638,
  "ScanOptions": "FS",
  "ScanningSequence": "EP",
  "SequenceName": "epfid2d1_104",
  "SequenceVariant": "SK\\SS",
  "SeriesDescription": "func_task-friends-s07e10a",
  "SeriesNumber": 10,
  "ShimSetting": [606, -7245, -8794, 643, 76, -14, -11, 29],
  "SliceThickness": 2,
  "SliceTiming": [0, 0.785, 0.0975, 0.8825, 0.195, 0.98, 0.295, 1.0775, 0.3925, 1.175, 0.49, 1.275, 0.5875, 1.3725, 0.685, 0, 0.785, 0.0975, 0.8825, 0.195, 0.98, 0.295, 1.0775, 0.3925, 1.175, 0.49, 1.275, 0.5875, 1.3725, 0.685, 0, 0.785, 0.0975, 0.8825, 0.195, 0.98, 0.295, 1.0775, 0.3925, 1.175, 0.49, 1.275, 0.5875, 1.3725, 0.685, 0, 0.785, 0.0975, 0.8825, 0.195, 0.98, 0.295, 1.0775, 0.3925, 1.175, 0.49, 1.275, 0.5875, 1.3725, 0.685],
  "SoftwareVersions": "syngo MR E11",
  "SpacingBetweenSlices": 2,
  "StationName": "MRC35049",
  "TaskName": "s07e10a",
  "TotalReadoutTime": 0.0576811,
  "TxRefAmp": 244.882,
  "WipMemBlock": "2acb7b47-4f40-4860-b356-08c807c8c745||Sequence: R017 ve11c/master r/75a17815+; Jun 28 2022 16:32:11 by eja",
  "dcmmeta_affine": [
    [-1.9997951984405518, -0.017452042549848557, -0.022685369476675987, 107.05066680908203],
    [-0.011300155892968178, 1.9378339052200317, -0.4946432411670685, -83.60913848876953],
    [-0.026296507567167282, 0.4944644272327423, 1.9377340078353882, -58.70150375366211],
    [0.0, 0.0, 0.0, 1.0]
],
  "dcmmeta_reorient_transform": [
    [0.0, -1.0, 0.0, 103.0],
    [1.0, 0.0, 0.0, 0.0],
    [0.0, 0.0, 1.0, 0.0],
    [0.0, 0.0, 0.0, 1.0]
],
  "dcmmeta_shape": [104, 104, 60, 459],
  "dcmmeta_slice_dim": 2,
  "dcmmeta_version": 0.6,
  "global": {
    "const": {
      "AcquisitionMatrix": [104, 0, 0, 104],
      "AngioFlag": "N",
      "BitsAllocated": 16,
      "BitsStored": 16,
      "BodyPartExamined": "BRAIN",
      "Columns": 832,
      "EchoNumbers": 1,
      "EchoTime": 37.0,
      "EchoTrainLength": 104,
      "FlipAngle": 52.0,
      "HighBit": 15,
      "ImageOrientationPatient": [0.99989759478462, 0.00565007771782, -0.0131482533329, -0.0087260215744, 0.96891696617851, -0.2472322171541],
      "ImagePositionPatient": [-826.8260111752, -825.47256631887, 181.78531700916],
      "ImageType": [
        "ORIGINAL",
        "PRIMARY",
        "M",
        "MB",
        "ND",
        "MOSAIC"
],
      "ImagedNucleus": "1H",
      "ImagingFrequency": 123.250086,
      "InPlanePhaseEncodingDirection": "COL",
      "MRAcquisitionType": "2D",
      "MagneticFieldStrength": 3.0,
      "Manufacturer": "SIEMENS",
      "ManufacturerModelName": "Prisma_fit",
      "Modality": "MR",
      "NumberOfAverages": 1.0,
      "NumberOfPhaseEncodingSteps": 104,
      "PercentPhaseFieldOfView": 100.0,
      "PercentSampling": 100.0,
      "PerformedProcedureStepStartTime": "101033.712000",
      "PhotometricInterpretation": "MONOCHROME2",
      "PixelBandwidth": 2290.0,
      "PixelRepresentation": 0,
      "PixelSpacing": [2.0, 2.0],
      "ProtocolName": "func_task-friends-s07e10a",
      "RepetitionTime": 1490.0,
      "Rows": 832,
      "SAR": 0.06196381680637,
      "SamplesPerPixel": 1,
      "ScanOptions": "FS",
      "ScanningSequence": "EP",
      "SequenceName": "epfid2d1_104",
      "SequenceVariant": [
        "SK",
        "SS"
],
      "SeriesDescription": "func_task-friends-s07e10a",
      "SeriesNumber": 10,
      "SeriesTime": "101750.088000",
      "SliceLocation": -37.409844978422,
      "SliceThickness": 2.0,
      "SmallestImagePixelValue": 0,
      "SoftwareVersions": "syngo MR E11",
      "SpacingBetweenSlices": 1.9999999654499,
      "SpecificCharacterSet": "ISO_IR 100",
      "StudyID": "1",
      "StudyTime": "101033.634000",
      "TransmitCoilName": "Body",
      "VariableFlipAngleFlag": "N",
      "WindowCenterWidthExplanation": "Algo1",
      "dBdt": 0.0},
    "slices": {}
  },
  "time": {
    "samples": {
      "AcquisitionNumber": [1, 2, 3, 4, 5, 6, 7, 8, 9, 10, 11, 12, 13, 14, 15, 16, 17, 18, 19, 20, 21, 22, 23, 24, 25, 26, 27, 28, 29, 30, 31, 32, 33, 34, 35, 36, 37, 38, 39, 40, 41, 42, 43, 44, 45, 46, 47, 48, 49, 50, 51, 52, 53, 54, 55, 56, 57, 58, 59, 60, 61, 62, 63, 64, 65, 66, 67, 68, 69, 70, 71, 72, 73, 74, 75, 76, 77, 78, 79, 80, 81, 82, 83, 84, 85, 86, 87, 88, 89, 90, 91, 92, 93, 94, 95, 96, 97, 98, 99, 100, 101, 102, 103, 104, 105, 106, 107, 108, 109, 110, 111, 112, 113, 114, 115, 116, 117, 118, 119, 120, 121, 122, 123, 124, 125, 126, 127, 128, 129, 130, 131, 132, 133, 134, 135, 136, 137, 138, 139, 140, 141, 142, 143, 144, 145, 146, 147, 148, 149, 150, 151, 152, 153, 154, 155, 156, 157, 158, 159, 160, 161, 162, 163, 164, 165, 166, 167, 168, 169, 170, 171, 172, 173, 174, 175, 176, 177, 178, 179, 180, 181, 182, 183, 184, 185, 186, 187, 188, 189, 190, 191, 192, 193, 194, 195, 196, 197, 198, 199, 200, 201, 202, 203, 204, 205, 206, 207, 208, 209, 210, 211, 212, 213, 214, 215, 216, 217, 218, 219, 220, 221, 222, 223, 224, 225, 226, 227, 228, 229, 230, 231, 232, 233, 234, 235, 236, 237, 238, 239, 240, 241, 242, 243, 244, 245, 246, 247, 248, 249, 250, 251, 252, 253, 254, 255, 256, 257, 258, 259, 260, 261, 262, 263, 264, 265, 266, 267, 268, 269, 270, 271, 272, 273, 274, 275, 276, 277, 278, 279, 280, 281, 282, 283, 284, 285, 286, 287, 288, 289, 290, 291, 292, 293, 294, 295, 296, 297, 298, 299, 300, 301, 302, 303, 304, 305, 306, 307, 308, 309, 310, 311, 312, 313, 314, 315, 316, 317, 318, 319, 320, 321, 322, 323, 324, 325, 326, 327, 328, 329, 330, 331, 332, 333, 334, 335, 336, 337, 338, 339, 340, 341, 342, 343, 344, 345, 346, 347, 348, 349, 350, 351, 352, 353, 354, 355, 356, 357, 358, 359, 360, 361, 362, 363, 364, 365, 366, 367, 368, 369, 370, 371, 372, 373, 374, 375, 376, 377, 378, 379, 380, 381, 382, 383, 384, 385, 386, 387, 388, 389, 390, 391, 392, 393, 394, 395, 396, 397, 398, 399, 400, 401, 402, 403, 404, 405, 406, 407, 408, 409, 410, 411, 412, 413, 414, 415, 416, 417, 418, 419, 420, 421, 422, 423, 424, 425, 426, 427, 428, 429, 430, 431, 432, 433, 434, 435, 436, 437, 438, 439, 440, 441, 442, 443, 444, 445, 446, 447, 448, 449, 450, 451, 452, 453, 454, 455, 456, 457, 458, 459],
      "AcquisitionTime": ["101555.845000", "101557.335000", "101558.825000", "101600.315000", "101601.805000", "101603.295000", "101604.785000", "101606.275000", "101607.765000", "101609.255000", "101610.745000", "101612.235000", "101613.725000", "101615.215000", "101616.705000", "101618.195000", "101619.685000", "101621.175000", "101622.665000", "101624.155000", "101625.645000", "101627.135000", "101628.625000", "101630.115000", "101631.605000", "101633.095000", "101634.585000", "101636.075000", "101637.565000", "101639.055000", "101640.545000", "101642.035000", "101643.525000", "101645.015000", "101646.505000", "101647.995000", "101649.485000", "101650.975000", "101652.465000", "101653.955000", "101655.445000", "101656.935000", "101658.425000", "101659.915000", "101701.405000", "101702.895000", "101704.385000", "101705.875000", "101707.365000", "101708.855000", "101710.345000", "101711.835000", "101713.325000", "101714.815000", "101716.305000", "101717.795000", "101719.285000", "101720.775000", "101722.265000", "101723.755000", "101725.245000", "101726.735000", "101728.225000", "101729.715000", "101731.205000", "101732.695000", "101734.185000", "101735.675000", "101737.165000", "101738.655000", "101740.145000", "101741.635000", "101743.125000", "101744.615000", "101746.105000", "101747.595000", "101749.085000", "101750.575000", "101752.065000", "101753.555000", "101755.045000", "101756.535000", "101758.025000", "101759.515000", "101801.005000", "101802.495000", "101803.985000", "101805.475000", "101806.965000", "101808.455000", "101809.945000", "101811.435000", "101812.925000", "101814.415000", "101815.905000", "101817.395000", "101818.885000", "101820.375000", "101821.865000", "101823.355000", "101824.845000", "101826.335000", "101827.825000", "101829.315000", "101830.805000", "101832.295000", "101833.785000", "101835.275000", "101836.765000", "101838.255000", "101839.745000", "101841.235000", "101842.725000", "101844.215000", "101845.705000", "101847.195000", "101848.685000", "101850.175000", "101851.665000", "101853.155000", "101854.645000", "101856.135000", "101857.625000", "101859.115000", "101900.605000", "101902.095000", "101903.585000", "101905.075000", "101906.565000", "101908.055000", "101909.545000", "101911.035000", "101912.525000", "101914.015000", "101915.505000", "101916.995000", "101918.485000", "101919.975000", "101921.465000", "101922.955000", "101924.445000", "101925.935000", "101927.425000", "101928.915000", "101930.405000", "101931.895000", "101933.385000", "101934.875000", "101936.365000", "101937.855000", "101939.345000", "101940.835000", "101942.325000", "101943.815000", "101945.305000", "101946.795000", "101948.285000", "101949.775000", "101951.265000", "101952.755000", "101954.245000", "101955.735000", "101957.225000", "101958.715000", "102000.205000", "102001.695000", "102003.185000", "102004.675000", "102006.165000", "102007.655000", "102009.145000", "102010.635000", "102012.125000", "102013.615000", "102015.105000", "102016.595000", "102018.085000", "102019.575000", "102021.065000", "102022.555000", "102024.045000", "102025.535000", "102027.025000", "102028.515000", "102030.005000", "102031.495000", "102032.985000", "102034.475000", "102035.965000", "102037.455000", "102038.945000", "102040.435000", "102041.925000", "102043.415000", "102044.905000", "102046.395000", "102047.885000", "102049.375000", "102050.865000", "102052.355000", "102053.845000", "102055.335000", "102056.825000", "102058.315000", "102059.805000", "102101.295000", "102102.785000", "102104.275000", "102105.765000", "102107.255000", "102108.745000", "102110.235000", "102111.725000", "102113.215000", "102114.705000", "102116.195000", "102117.685000", "102119.175000", "102120.665000", "102122.155000", "102123.645000", "102125.135000", "102126.625000", "102128.115000", "102129.605000", "102131.095000", "102132.585000", "102134.075000", "102135.565000", "102137.055000", "102138.545000", "102140.035000", "102141.525000", "102143.015000", "102144.505000", "102145.995000", "102147.485000", "102148.975000", "102150.465000", "102151.955000", "102153.445000", "102154.935000", "102156.425000", "102157.915000", "102159.405000", "102200.895000", "102202.385000", "102203.875000", "102205.365000", "102206.855000", "102208.345000", "102209.835000", "102211.325000", "102212.815000", "102214.305000", "102215.795000", "102217.285000", "102218.775000", "102220.265000", "102221.755000", "102223.245000", "102224.735000", "102226.225000", "102227.715000", "102229.205000", "102230.695000", "102232.185000", "102233.675000", "102235.165000", "102236.655000", "102238.145000", "102239.635000", "102241.125000", "102242.615000", "102244.105000", "102245.595000", "102247.085000", "102248.575000", "102250.065000", "102251.555000", "102253.045000", "102254.535000", "102256.025000", "102257.515000", "102259.005000", "102300.495000", "102301.985000", "102303.475000", "102304.965000", "102306.455000", "102307.945000", "102309.435000", "102310.925000", "102312.415000", "102313.905000", "102315.395000", "102316.885000", "102318.375000", "102319.865000", "102321.355000", "102322.845000", "102324.335000", "102325.825000", "102327.315000", "102328.805000", "102330.295000", "102331.785000", "102333.275000", "102334.765000", "102336.255000", "102337.745000", "102339.235000", "102340.725000", "102342.215000", "102343.705000", "102345.195000", "102346.685000", "102348.175000", "102349.665000", "102351.155000", "102352.645000", "102354.135000", "102355.625000", "102357.115000", "102358.605000", "102400.095000", "102401.585000", "102403.075000", "102404.565000", "102406.055000", "102407.545000", "102409.035000", "102410.525000", "102412.015000", "102413.505000", "102414.995000", "102416.485000", "102417.975000", "102419.465000", "102420.955000", "102422.445000", "102423.935000", "102425.425000", "102426.915000", "102428.405000", "102429.895000", "102431.385000", "102432.875000", "102434.365000", "102435.855000", "102437.345000", "102438.835000", "102440.325000", "102441.815000", "102443.305000", "102444.795000", "102446.285000", "102447.775000", "102449.265000", "102450.755000", "102452.245000", "102453.735000", "102455.225000", "102456.715000", "102458.205000", "102459.695000", "102501.185000", "102502.675000", "102504.165000", "102505.655000", "102507.145000", "102508.635000", "102510.125000", "102511.615000", "102513.105000", "102514.595000", "102516.085000", "102517.575000", "102519.065000", "102520.555000", "102522.045000", "102523.535000", "102525.025000", "102526.515000", "102528.005000", "102529.495000", "102530.985000", "102532.475000", "102533.965000", "102535.455000", "102536.945000", "102538.435000", "102539.925000", "102541.415000", "102542.905000", "102544.395000", "102545.885000", "102547.375000", "102548.865000", "102550.355000", "102551.845000", "102553.335000", "102554.825000", "102556.315000", "102557.805000", "102559.295000", "102600.785000", "102602.275000", "102603.765000", "102605.255000", "102606.745000", "102608.235000", "102609.725000", "102611.215000", "102612.705000", "102614.195000", "102615.685000", "102617.175000", "102618.665000", "102620.155000", "102621.645000", "102623.135000", "102624.625000", "102626.115000", "102627.605000", "102629.095000", "102630.585000", "102632.075000", "102633.565000", "102635.055000", "102636.545000", "102638.035000", "102639.525000", "102641.015000", "102642.505000", "102643.995000", "102645.485000", "102646.975000", "102648.465000", "102649.955000", "102651.445000", "102652.935000", "102654.425000", "102655.915000", "102657.405000", "102658.895000", "102700.385000", "102701.875000", "102703.365000", "102704.855000", "102706.345000", "102707.835000", "102709.325000", "102710.815000", "102712.305000", "102713.795000", "102715.285000", "102716.775000", "102718.265000"],
      "ContentTime": ["101750.091000", "101750.095000", "101750.098000", "101750.101000", "101750.104000", "101750.107000", "101750.110000", "101750.114000", "101750.118000", "101750.122000", "101750.125000", "101750.129000", "101750.133000", "101750.144000", "101750.152000", "101750.155000", "101750.158000", "101750.162000", "101750.165000", "101750.175000", "101750.178000", "101750.181000", "101750.184000", "101750.187000", "101750.190000", "101750.193000", "101810.056000", "101810.059000", "101810.062000", "101810.064000", "101810.068000", "101810.070000", "101810.073000", "101810.076000", "101810.079000", "101810.087000", "101810.090000", "101810.093000", "101810.096000", "101810.099000", "101810.102000", "101810.104000", "101810.107000", "101810.110000", "101810.113000", "101810.116000", "101830.056000", "101830.059000", "101830.062000", "101830.064000", "101830.068000", "101830.070000", "101830.073000", "101830.076000", "101830.079000", "101830.082000", "101830.085000", "101830.088000", "101830.091000", "101830.093000", "101830.096000", "101830.099000", "101830.102000", "101830.105000", "101830.107000", "101830.110000", "101850.056000", "101850.059000", "101850.062000", "101850.065000", "101850.068000", "101850.070000", "101850.073000", "101850.076000", "101850.079000", "101850.082000", "101850.085000", "101850.088000", "101850.091000", "101850.093000", "101850.096000", "101850.099000", "101850.102000", "101850.105000", "101850.108000", "101850.110000", "101910.057000", "101910.060000", "101910.063000", "101910.066000", "101910.069000", "101910.071000", "101910.074000", "101910.077000", "101910.080000", "101910.083000", "101910.086000", "101910.088000", "101910.092000", "101910.094000", "101910.097000", "101910.100000", "101910.103000", "101910.106000", "101910.109000", "101910.111000", "101930.056000", "101930.059000", "101930.062000", "101930.064000", "101930.067000", "101930.070000", "101930.073000", "101930.076000", "101930.079000", "101930.082000", "101930.085000", "101930.087000", "101930.090000", "101930.093000", "101930.096000", "101930.099000", "101930.102000", "101930.105000", "101930.108000", "101930.110000", "101950.056000", "101950.059000", "101950.062000", "101950.064000", "101950.067000", "101950.070000", "101950.073000", "101950.076000", "101950.079000", "101950.082000", "101950.085000", "101950.088000", "101950.090000", "101950.093000", "101950.096000", "101950.099000", "101950.102000", "101950.105000", "101950.108000", "101950.110000", "102010.056000", "102010.060000", "102010.063000", "102010.067000", "102010.071000", "102010.075000", "102010.078000", "102010.082000", "102010.085000", "102010.088000", "102010.091000", "102010.094000", "102010.097000", "102010.100000", "102010.121000", "102010.124000", "102010.127000", "102010.130000", "102010.133000", "102010.136000", "102050.056000", "102050.059000", "102050.062000", "102050.065000", "102050.068000", "102050.071000", "102050.074000", "102050.077000", "102050.080000", "102050.083000", "102050.085000", "102050.088000", "102050.091000", "102050.094000", "102050.097000", "102050.099000", "102050.102000", "102050.105000", "102050.108000", "102050.111000", "102050.114000", "102050.117000", "102050.120000", "102050.122000", "102050.125000", "102050.128000", "102050.131000", "102050.134000", "102050.137000", "102050.140000", "102130.057000", "102130.060000", "102130.063000", "102130.066000", "102130.069000", "102130.071000", "102130.074000", "102130.077000", "102130.080000", "102130.083000", "102130.086000", "102130.088000", "102130.091000", "102130.094000", "102130.097000", "102130.100000", "102130.103000", "102130.106000", "102130.108000", "102130.119000", "102130.122000", "102130.125000", "102130.128000", "102130.131000", "102130.133000", "102130.136000", "102130.139000", "102210.056000", "102210.059000", "102210.062000", "102210.065000", "102210.068000", "102210.070000", "102210.073000", "102210.076000", "102210.079000", "102210.082000", "102210.085000", "102210.088000", "102210.091000", "102210.094000", "102210.096000", "102210.099000", "102210.102000", "102210.105000", "102210.108000", "102210.110000", "102210.113000", "102210.116000", "102210.119000", "102210.122000", "102210.125000", "102210.128000", "102210.130000", "102250.056000", "102250.059000", "102250.062000", "102250.065000", "102250.068000", "102250.071000", "102250.073000", "102250.076000", "102250.079000", "102250.082000", "102250.085000", "102250.088000", "102250.090000", "102250.093000", "102250.096000", "102250.099000", "102250.102000", "102250.105000", "102250.107000", "102250.110000", "102250.113000", "102250.116000", "102250.119000", "102250.122000", "102250.124000", "102250.127000", "102250.130000", "102330.056000", "102330.059000", "102330.062000", "102330.065000", "102330.068000", "102330.070000", "102330.073000", "102330.076000", "102330.079000", "102330.082000", "102330.085000", "102330.088000", "102330.090000", "102330.093000", "102330.096000", "102330.099000", "102330.102000", "102330.105000", "102330.108000", "102330.110000", "102330.113000", "102330.116000", "102330.119000", "102330.122000", "102330.124000", "102330.127000", "102330.130000", "102350.057000", "102350.060000", "102350.063000", "102350.066000", "102350.069000", "102350.071000", "102350.074000", "102350.077000", "102350.080000", "102350.083000", "102350.087000", "102350.091000", "102350.094000", "102430.056000", "102430.059000", "102430.062000", "102430.065000", "102430.068000", "102430.070000", "102430.073000", "102430.076000", "102430.079000", "102430.082000", "102430.085000", "102430.087000", "102430.090000", "102430.093000", "102430.096000", "102430.099000", "102430.101000", "102430.104000", "102430.107000", "102430.110000", "102430.113000", "102430.116000", "102430.119000", "102430.121000", "102430.124000", "102430.138000", "102430.141000", "102510.056000", "102510.059000", "102510.062000", "102510.065000", "102510.083000", "102510.086000", "102510.089000", "102510.091000", "102510.094000", "102510.097000", "102510.100000", "102510.103000", "102510.106000", "102510.108000", "102510.111000", "102510.114000", "102510.117000", "102510.120000", "102510.123000", "102510.126000", "102510.128000", "102510.131000", "102510.134000", "102510.137000", "102510.140000", "102510.143000", "102510.145000", "102550.056000", "102550.059000", "102550.062000", "102550.065000", "102550.067000", "102550.070000", "102550.073000", "102550.076000", "102550.079000", "102550.082000", "102550.084000", "102550.087000", "102550.090000", "102550.093000", "102550.096000", "102550.099000", "102550.102000", "102550.104000", "102550.107000", "102550.110000", "102550.113000", "102550.116000", "102550.119000", "102550.122000", "102550.124000", "102550.127000", "102550.130000", "102630.056000", "102630.059000", "102630.062000", "102630.065000", "102630.068000", "102630.070000", "102630.073000", "102630.076000", "102630.079000", "102630.082000", "102630.085000", "102630.088000", "102630.091000", "102630.093000", "102630.096000", "102630.099000", "102630.102000", "102630.105000", "102630.108000", "102630.110000", "102630.113000", "102630.116000", "102630.119000", "102630.122000", "102630.125000", "102630.127000", "102630.130000", "102710.056000", "102710.059000", "102710.062000", "102710.065000", "102710.068000", "102710.071000", "102710.074000", "102710.077000", "102710.080000", "102710.082000", "102710.085000", "102710.088000", "102710.091000", "102710.094000", "102710.097000", "102710.100000", "102710.102000", "102710.105000", "102710.108000", "102710.111000", "102710.114000", "102710.117000", "102710.119000", "102710.122000", "102710.125000", "102710.128000", "102720.616000", "102720.619000", "102720.622000", "102720.625000", "102720.628000", "102720.631000", "102720.633000", "102720.636000"],
