{
  "AcquisitionMatrixPE": 104,
  "AcquisitionNumber": 1,
  "AcquisitionTime": "13:51:42.520000",
  "BandwidthPerPixelPhaseEncode": 17.17,
  "BaseResolution": 104,
  "BodyPartExamined": "BRAIN",
  "CoilCombinationMethod": "Sum of Squares",
  "ConsistencyInfo": "N4_VE11C_LATEST_20160120",
  "ConversionSoftware": "dcm2niix",
  "ConversionSoftwareVersion": "v1.0.20211006",
  "DerivedVendorReportedEchoSpacing": 0.000560011,
  "DeviceSerialNumber": "167006",
  "DwellTime": 2.1e-06,
  "EchoTime": 0.037,
  "EchoTrainLength": 104,
  "EffectiveEchoSpacing": 0.000560011,
  "FlipAngle": 52,
  "HeudiconvVersion": "0.5.3.post569+g418601f",
  "ImageComments": "Unaliased MB4/PE3/LB",
  "ImageOrientationPatientDICOM": [0.999763, 0.0140817, 0.0166248, -0.00959726, 0.969678, -0.244197],
  "ImageOrientationText": "Tra>Cor(-14.1)>Sag(1.1)",
  "ImageType": [
    "ORIGINAL",
    "PRIMARY",
    "M",
    "MB",
    "ND",
    "MOSAIC"
],
  "ImagingFrequency": 123.259,
  "InPlanePhaseEncodingDirectionDICOM": "COL",
  "InstitutionAddress": "Chemin Queen-Mary 4565,Montreal,District,CA,H3W 1W5",
  "InstitutionName": "IUGM",
  "InstitutionalDepartmentName": "Department",
  "MRAcquisitionType": "2D",
  "MagneticFieldStrength": 3,
  "Manufacturer": "Siemens",
  "ManufacturersModelName": "Prisma_fit",
  "MatrixCoilMode": "SENSE",
  "Modality": "MR",
  "MultibandAccelerationFactor": 4,
  "PartialFourier": 1,
  "PatientPosition": "HFS",
  "PercentPhaseFOV": 100,
  "PercentSampling": 100,
  "PhaseEncodingDirection": "j",
  "PhaseEncodingSteps": 104,
  "PhaseResolution": 1,
  "PixelBandwidth": 2290,
  "ProcedureStepDescription": "video^friends",
  "ProtocolName": "func_task-friends-s06e10a",
  "PulseSequenceDetails": "%CustomerSeq%\\cmrr_mbep2d_bold",
  "ReceiveCoilActiveElements": "HC1-7;NC1,2",
  "ReceiveCoilName": "HeadNeck_64",
  "ReconMatrixPE": 104,
  "RepetitionTime": 1.49,
  "SAR": 0.0722223,
  "ScanOptions": "FS",
  "ScanningSequence": "EP",
  "SequenceName": "epfid2d1_104",
  "SequenceVariant": "SK\\SS",
  "SeriesDescription": "func_task-friends-s06e10a",
  "SeriesNumber": 13,
  "ShimSetting": [640, -7206, -8798, 719, 56, 23, 39, -21],
  "SliceThickness": 2,
  "SliceTiming": [0, 0.785, 0.0975, 0.8825, 0.1975, 0.98, 0.295, 1.0775, 0.3925, 1.1775, 0.49, 1.275, 0.5875, 1.3725, 0.6875, 0, 0.785, 0.0975, 0.8825, 0.1975, 0.98, 0.295, 1.0775, 0.3925, 1.1775, 0.49, 1.275, 0.5875, 1.3725, 0.6875, 0, 0.785, 0.0975, 0.8825, 0.1975, 0.98, 0.295, 1.0775, 0.3925, 1.1775, 0.49, 1.275, 0.5875, 1.3725, 0.6875, 0, 0.785, 0.0975, 0.8825, 0.1975, 0.98, 0.295, 1.0775, 0.3925, 1.1775, 0.49, 1.275, 0.5875, 1.3725, 0.6875],
  "SoftwareVersions": "syngo MR E11",
  "SpacingBetweenSlices": 2,
  "StationName": "MRC35049",
  "TaskName": "s06e10a",
  "TotalReadoutTime": 0.0576811,
  "TxRefAmp": 276.145,
  "WipMemBlock": "989925f1-026d-4014-9d13-caf0e37da724||Sequence: R016 ve11c/master r/e634e98; Dec 19 2017 11:00:25 by eja",
  "dcmmeta_affine": [
    [-1.9995253086090088, -0.019194522872567177, 0.03911884129047394, 105.13761138916016],
    [-0.028163380920886993, 1.9393564462661743, -0.48795846104621887, -82.26266479492188],
    [0.0332496203482151, 0.4883934557437897, 1.9391664266586304, -64.51803588867188],
    [0.0, 0.0, 0.0, 1.0]
],
  "dcmmeta_reorient_transform": [
    [0.0, -1.0, 0.0, 103.0],
    [1.0, 0.0, 0.0, 0.0],
    [0.0, 0.0, 1.0, 0.0],
    [0.0, 0.0, 0.0, 1.0]
],
  "dcmmeta_shape": [104, 104, 60, 466],
  "dcmmeta_slice_dim": 2,
  "dcmmeta_version": 0.6,
  "global": {
    "const": {
      "AcquisitionMatrix": [104, 0, 0, 104],
      "AngioFlag": "N",
      "BitsAllocated": 16,
      "BitsStored": 16,
      "BodyPartExamined": "BRAIN",
      "Columns": 832,
      "EchoNumbers": 1,
      "EchoTime": 37.0,
      "EchoTrainLength": 104,
      "FlipAngle": 52.0,
      "HighBit": 15,
      "ImageOrientationPatient": [0.99976263266698, 0.01408169010396, 0.01662481057354, -0.0095972617881, 0.96967821839544, -0.2441967348996],
      "ImagePositionPatient": [-824.00096507723, -833.66826515751, 151.45885196455],
      "ImageType": [
        "ORIGINAL",
        "PRIMARY",
        "M",
        "MB",
        "ND",
        "MOSAIC"
],
      "ImagedNucleus": "1H",
      "ImagingFrequency": 123.258892,
      "InPlanePhaseEncodingDirection": "COL",
      "MRAcquisitionType": "2D",
      "MagneticFieldStrength": 3.0,
      "Manufacturer": "SIEMENS",
      "ManufacturerModelName": "Prisma_fit",
      "Modality": "MR",
      "NumberOfAverages": 1.0,
      "NumberOfPhaseEncodingSteps": 104,
      "PercentPhaseFieldOfView": 100.0,
      "PercentSampling": 100.0,
      "PerformedProcedureStepStartTime": "130359.329000",
      "PhotometricInterpretation": "MONOCHROME2",
      "PixelBandwidth": 2290.0,
      "PixelRepresentation": 0,
      "PixelSpacing": [2.0, 2.0],
      "ProtocolName": "func_task-friends-s06e10a",
      "RepetitionTime": 1490.0,
      "Rows": 832,
      "SAR": 0.07222228984466,
      "SamplesPerPixel": 1,
      "ScanOptions": "FS",
      "ScanningSequence": "EP",
      "SequenceName": "epfid2d1_104",
      "SequenceVariant": [
        "SK",
        "SS"
],
      "SeriesDescription": "func_task-friends-s06e10a",
      "SeriesNumber": 13,
      "SeriesTime": "135310.246000",
      "SliceLocation": -40.428793367089,
      "SliceThickness": 2.0,
      "SmallestImagePixelValue": 0,
      "SoftwareVersions": "syngo MR E11",
      "SpacingBetweenSlices": 2.0000000480412,
      "SpecificCharacterSet": "ISO_IR 100",
      "StudyID": "1",
      "StudyTime": "130359.261000",
      "TransmitCoilName": "Body",
      "VariableFlipAngleFlag": "N",
      "WindowCenterWidthExplanation": "Algo1",
      "dBdt": 0.0},
    "slices": {}
  },
  "time": {
    "samples": {
      "AcquisitionNumber": [1, 2, 3, 4, 5, 6, 7, 8, 9, 10, 11, 12, 13, 14, 15, 16, 17, 18, 19, 20, 21, 22, 23, 24, 25, 26, 27, 28, 29, 30, 31, 32, 33, 34, 35, 36, 37, 38, 39, 40, 41, 42, 43, 44, 45, 46, 47, 48, 49, 50, 51, 52, 53, 54, 55, 56, 57, 58, 59, 60, 61, 62, 63, 64, 65, 66, 67, 68, 69, 70, 71, 72, 73, 74, 75, 76, 77, 78, 79, 80, 81, 82, 83, 84, 85, 86, 87, 88, 89, 90, 91, 92, 93, 94, 95, 96, 97, 98, 99, 100, 101, 102, 103, 104, 105, 106, 107, 108, 109, 110, 111, 112, 113, 114, 115, 116, 117, 118, 119, 120, 121, 122, 123, 124, 125, 126, 127, 128, 129, 130, 131, 132, 133, 134, 135, 136, 137, 138, 139, 140, 141, 142, 143, 144, 145, 146, 147, 148, 149, 150, 151, 152, 153, 154, 155, 156, 157, 158, 159, 160, 161, 162, 163, 164, 165, 166, 167, 168, 169, 170, 171, 172, 173, 174, 175, 176, 177, 178, 179, 180, 181, 182, 183, 184, 185, 186, 187, 188, 189, 190, 191, 192, 193, 194, 195, 196, 197, 198, 199, 200, 201, 202, 203, 204, 205, 206, 207, 208, 209, 210, 211, 212, 213, 214, 215, 216, 217, 218, 219, 220, 221, 222, 223, 224, 225, 226, 227, 228, 229, 230, 231, 232, 233, 234, 235, 236, 237, 238, 239, 240, 241, 242, 243, 244, 245, 246, 247, 248, 249, 250, 251, 252, 253, 254, 255, 256, 257, 258, 259, 260, 261, 262, 263, 264, 265, 266, 267, 268, 269, 270, 271, 272, 273, 274, 275, 276, 277, 278, 279, 280, 281, 282, 283, 284, 285, 286, 287, 288, 289, 290, 291, 292, 293, 294, 295, 296, 297, 298, 299, 300, 301, 302, 303, 304, 305, 306, 307, 308, 309, 310, 311, 312, 313, 314, 315, 316, 317, 318, 319, 320, 321, 322, 323, 324, 325, 326, 327, 328, 329, 330, 331, 332, 333, 334, 335, 336, 337, 338, 339, 340, 341, 342, 343, 344, 345, 346, 347, 348, 349, 350, 351, 352, 353, 354, 355, 356, 357, 358, 359, 360, 361, 362, 363, 364, 365, 366, 367, 368, 369, 370, 371, 372, 373, 374, 375, 376, 377, 378, 379, 380, 381, 382, 383, 384, 385, 386, 387, 388, 389, 390, 391, 392, 393, 394, 395, 396, 397, 398, 399, 400, 401, 402, 403, 404, 405, 406, 407, 408, 409, 410, 411, 412, 413, 414, 415, 416, 417, 418, 419, 420, 421, 422, 423, 424, 425, 426, 427, 428, 429, 430, 431, 432, 433, 434, 435, 436, 437, 438, 439, 440, 441, 442, 443, 444, 445, 446, 447, 448, 449, 450, 451, 452, 453, 454, 455, 456, 457, 458, 459, 460, 461, 462, 463, 464, 465, 466],
      "AcquisitionTime": ["135142.520000", "135144.010000", "135145.500000", "135146.990000", "135148.480000", "135149.970000", "135151.460000", "135152.950000", "135154.440000", "135155.930000", "135157.420000", "135158.910000", "135200.400000", "135201.890000", "135203.380000", "135204.870000", "135206.360000", "135207.850000", "135209.340000", "135210.830000", "135212.320000", "135213.810000", "135215.300000", "135216.790000", "135218.280000", "135219.770000", "135221.260000", "135222.750000", "135224.240000", "135225.730000", "135227.220000", "135228.710000", "135230.200000", "135231.690000", "135233.180000", "135234.670000", "135236.160000", "135237.650000", "135239.140000", "135240.630000", "135242.120000", "135243.610000", "135245.100000", "135246.590000", "135248.080000", "135249.570000", "135251.060000", "135252.550000", "135254.040000", "135255.530000", "135257.020000", "135258.510000", "135300.000000", "135301.490000", "135302.980000", "135304.470000", "135305.960000", "135307.450000", "135308.940000", "135310.430000", "135311.920000", "135313.410000", "135314.900000", "135316.390000", "135317.880000", "135319.370000", "135320.860000", "135322.350000", "135323.840000", "135325.330000", "135326.820000", "135328.310000", "135329.800000", "135331.290000", "135332.780000", "135334.270000", "135335.760000", "135337.250000", "135338.740000", "135340.230000", "135341.720000", "135343.210000", "135344.700000", "135346.190000", "135347.680000", "135349.170000", "135350.660000", "135352.150000", "135353.640000", "135355.130000", "135356.620000", "135358.110000", "135359.600000", "135401.090000", "135402.580000", "135404.070000", "135405.560000", "135407.050000", "135408.540000", "135410.030000", "135411.520000", "135413.010000", "135414.500000", "135415.990000", "135417.480000", "135418.970000", "135420.460000", "135421.950000", "135423.440000", "135424.930000", "135426.420000", "135427.910000", "135429.400000", "135430.890000", "135432.380000", "135433.870000", "135435.360000", "135436.850000", "135438.340000", "135439.830000", "135441.320000", "135442.810000", "135444.300000", "135445.790000", "135447.280000", "135448.770000", "135450.260000", "135451.750000", "135453.240000", "135454.730000", "135456.220000", "135457.710000", "135459.200000", "135500.690000", "135502.180000", "135503.670000", "135505.160000", "135506.650000", "135508.140000", "135509.630000", "135511.120000", "135512.610000", "135514.100000", "135515.590000", "135517.080000", "135518.570000", "135520.060000", "135521.550000", "135523.040000", "135524.530000", "135526.020000", "135527.510000", "135529.000000", "135530.490000", "135531.980000", "135533.470000", "135534.960000", "135536.450000", "135537.940000", "135539.430000", "135540.920000", "135542.410000", "135543.900000", "135545.390000", "135546.880000", "135548.370000", "135549.860000", "135551.350000", "135552.840000", "135554.330000", "135555.820000", "135557.310000", "135558.800000", "135600.290000", "135601.780000", "135603.270000", "135604.760000", "135606.250000", "135607.740000", "135609.230000", "135610.720000", "135612.210000", "135613.700000", "135615.190000", "135616.680000", "135618.170000", "135619.660000", "135621.150000", "135622.640000", "135624.130000", "135625.620000", "135627.110000", "135628.600000", "135630.090000", "135631.580000", "135633.070000", "135634.560000", "135636.050000", "135637.540000", "135639.030000", "135640.520000", "135642.010000", "135643.500000", "135644.990000", "135646.480000", "135647.970000", "135649.460000", "135650.950000", "135652.440000", "135653.930000", "135655.420000", "135656.910000", "135658.400000", "135659.890000", "135701.380000", "135702.870000", "135704.360000", "135705.850000", "135707.340000", "135708.830000", "135710.320000", "135711.810000", "135713.300000", "135714.790000", "135716.280000", "135717.770000", "135719.260000", "135720.750000", "135722.240000", "135723.730000", "135725.220000", "135726.710000", "135728.200000", "135729.690000", "135731.180000", "135732.670000", "135734.160000", "135735.650000", "135737.140000", "135738.630000", "135740.120000", "135741.610000", "135743.100000", "135744.590000", "135746.080000", "135747.570000", "135749.060000", "135750.550000", "135752.040000", "135753.530000", "135755.020000", "135756.510000", "135758.000000", "135759.490000", "135800.980000", "135802.470000", "135803.960000", "135805.450000", "135806.940000", "135808.430000", "135809.920000", "135811.410000", "135812.900000", "135814.390000", "135815.880000", "135817.370000", "135818.860000", "135820.350000", "135821.840000", "135823.330000", "135824.820000", "135826.310000", "135827.800000", "135829.290000", "135830.780000", "135832.270000", "135833.760000", "135835.250000", "135836.740000", "135838.230000", "135839.720000", "135841.210000", "135842.700000", "135844.190000", "135845.680000", "135847.170000", "135848.660000", "135850.150000", "135851.640000", "135853.130000", "135854.620000", "135856.110000", "135857.600000", "135859.090000", "135900.580000", "135902.070000", "135903.560000", "135905.050000", "135906.540000", "135908.030000", "135909.520000", "135911.010000", "135912.500000", "135913.990000", "135915.480000", "135916.970000", "135918.460000", "135919.950000", "135921.440000", "135922.930000", "135924.420000", "135925.910000", "135927.400000", "135928.890000", "135930.380000", "135931.870000", "135933.360000", "135934.850000", "135936.340000", "135937.830000", "135939.320000", "135940.810000", "135942.300000", "135943.790000", "135945.280000", "135946.770000", "135948.260000", "135949.750000", "135951.240000", "135952.730000", "135954.220000", "135955.710000", "135957.200000", "135958.690000", "140000.180000", "140001.670000", "140003.160000", "140004.650000", "140006.140000", "140007.630000", "140009.120000", "140010.610000", "140012.100000", "140013.590000", "140015.080000", "140016.570000", "140018.060000", "140019.550000", "140021.040000", "140022.530000", "140024.020000", "140025.510000", "140027.000000", "140028.490000", "140029.980000", "140031.470000", "140032.960000", "140034.450000", "140035.940000", "140037.430000", "140038.920000", "140040.410000", "140041.900000", "140043.390000", "140044.880000", "140046.370000", "140047.860000", "140049.350000", "140050.840000", "140052.330000", "140053.820000", "140055.310000", "140056.800000", "140058.290000", "140059.780000", "140101.270000", "140102.760000", "140104.250000", "140105.740000", "140107.230000", "140108.720000", "140110.210000", "140111.700000", "140113.190000", "140114.680000", "140116.170000", "140117.660000", "140119.150000", "140120.640000", "140122.130000", "140123.620000", "140125.110000", "140126.600000", "140128.090000", "140129.580000", "140131.070000", "140132.560000", "140134.050000", "140135.540000", "140137.030000", "140138.520000", "140140.010000", "140141.500000", "140142.990000", "140144.480000", "140145.970000", "140147.460000", "140148.950000", "140150.440000", "140151.930000", "140153.420000", "140154.910000", "140156.400000", "140157.890000", "140159.380000", "140200.870000", "140202.360000", "140203.850000", "140205.340000", "140206.830000", "140208.320000", "140209.810000", "140211.300000", "140212.790000", "140214.280000", "140215.770000", "140217.260000", "140218.750000", "140220.240000", "140221.730000", "140223.220000", "140224.710000", "140226.200000", "140227.690000", "140229.180000", "140230.670000", "140232.160000", "140233.650000", "140235.140000", "140236.630000", "140238.120000", "140239.610000", "140241.100000", "140242.590000", "140244.080000", "140245.570000", "140247.060000", "140248.550000", "140250.040000", "140251.530000", "140253.020000", "140254.510000", "140256.000000", "140257.490000", "140258.980000", "140300.470000", "140301.960000", "140303.450000", "140304.940000", "140306.430000", "140307.920000", "140309.410000", "140310.900000", "140312.390000", "140313.880000", "140315.370000"],
      "ContentTime": ["135310.248000", "135310.252000", "135310.255000", "135310.258000", "135310.260000", "135310.263000", "135310.266000", "135310.269000", "135310.272000", "135310.274000", "135310.277000", "135310.280000", "135310.283000", "135310.286000", "135310.289000", "135310.291000", "135310.296000", "135310.299000", "135310.302000", "135310.304000", "135310.307000", "135310.310000", "135310.313000", "135310.316000", "135310.319000", "135310.348000", "135310.351000", "135310.354000", "135310.357000", "135310.360000", "135310.363000", "135310.365000", "135310.368000", "135310.371000", "135330.213000", "135330.216000", "135330.219000", "135330.222000", "135330.225000", "135330.227000", "135330.230000", "135330.233000", "135330.236000", "135330.239000", "135330.242000", "135330.244000", "135330.247000", "135330.250000", "135330.253000", "135330.256000", "135330.258000", "135330.261000", "135330.264000", "135330.267000", "135350.213000", "135350.216000", "135350.219000", "135350.221000", "135350.224000", "135350.227000", "135350.230000", "135350.233000", "135350.236000", "135350.239000", "135350.242000", "135350.245000", "135350.248000", "135350.251000", "135350.279000", "135350.282000", "135350.285000", "135350.288000", "135350.291000", "135350.294000", "135410.212000", "135410.215000", "135410.218000", "135410.220000", "135410.223000", "135410.226000", "135410.229000", "135410.232000", "135410.235000", "135410.237000", "135410.240000", "135410.243000", "135410.246000", "135410.249000", "135410.252000", "135410.254000", "135410.257000", "135410.260000", "135410.263000", "135410.266000", "135410.269000", "135450.213000", "135450.216000", "135450.219000", "135450.222000", "135450.224000", "135450.227000", "135450.230000", "135450.233000", "135450.236000", "135450.239000", "135450.242000", "135450.244000", "135450.247000", "135450.250000", "135450.253000", "135450.256000", "135450.259000", "135450.262000", "135450.264000", "135450.267000", "135450.270000", "135450.273000", "135450.276000", "135450.279000", "135450.282000", "135450.285000", "135450.287000", "135450.290000", "135450.293000", "135450.296000", "135530.213000", "135530.216000", "135530.219000", "135530.221000", "135530.224000", "135530.227000", "135530.239000", "135530.241000", "135530.244000", "135530.247000", "135530.250000", "135530.253000", "135530.256000", "135530.259000", "135530.262000", "135530.265000", "135530.267000", "135530.270000", "135530.273000", "135530.276000", "135530.279000", "135530.282000", "135530.284000", "135530.287000", "135530.290000", "135530.293000", "135530.296000", "135610.213000", "135610.216000", "135610.219000", "135610.222000", "135610.225000", "135610.228000", "135610.230000", "135610.233000", "135610.236000", "135610.239000", "135610.242000", "135610.245000", "135610.247000", "135610.250000", "135610.253000", "135610.256000", "135610.259000", "135610.262000", "135610.265000", "135610.268000", "135610.270000", "135610.273000", "135610.276000", "135610.279000", "135610.282000", "135610.285000", "135610.287000", "135650.212000", "135650.215000", "135650.218000", "135650.221000", "135650.223000", "135650.226000", "135650.229000", "135650.232000", "135650.235000", "135650.238000", "135650.240000", "135650.243000", "135650.246000", "135650.249000", "135650.252000", "135650.255000", "135650.257000", "135650.260000", "135650.263000", "135650.266000", "135650.269000", "135650.272000", "135650.275000", "135650.278000", "135650.282000", "135650.285000", "135730.213000", "135730.216000", "135730.219000", "135730.222000", "135730.224000", "135730.227000", "135730.230000", "135730.233000", "135730.236000", "135730.239000", "135730.242000", "135730.244000", "135730.247000", "135730.250000", "135730.253000", "135730.256000", "135730.275000", "135730.280000", "135730.282000", "135730.285000", "135730.288000", "135730.291000", "135730.294000", "135730.297000", "135730.299000", "135730.302000", "135730.305000", "135810.213000", "135810.216000", "135810.219000", "135810.230000", "135810.233000", "135810.236000", "135810.239000", "135810.242000", "135810.244000", "135810.247000", "135810.250000", "135810.253000", "135810.256000", "135810.259000", "135810.262000", "135810.265000", "135810.268000", "135810.279000", "135810.282000", "135810.285000", "135810.288000", "135810.291000", "135810.294000", "135810.297000", "135810.300000", "135810.303000", "135810.306000", "135850.212000", "135850.215000", "135850.218000", "135850.221000", "135850.224000", "135850.227000", "135850.229000", "135850.232000", "135850.237000", "135850.239000", "135850.242000", "135850.245000", "135850.248000", "135850.251000", "135850.254000", "135850.256000", "135850.259000", "135850.262000", "135850.265000", "135850.268000", "135850.271000", "135850.274000", "135850.277000", "135850.280000", "135850.282000", "135850.285000", "135850.288000", "135930.213000", "135930.342000", "135930.344000", "135930.347000", "135930.350000", "135930.353000", "135930.356000", "135930.359000", "135930.361000", "135930.364000", "135930.367000", "135930.370000", "135930.373000", "135930.376000", "135930.379000", "135930.381000", "135930.384000", "135930.387000", "135930.390000", "135930.393000", "135930.396000", "135930.399000", "135930.401000", "135930.404000", "135930.407000", "135930.410000", "135930.413000", "140010.213000", "140010.351000", "140010.354000", "140010.357000", "140010.360000", "140010.363000", "140010.366000", "140010.369000", "140010.371000", "140010.374000", "140010.377000", "140010.380000", "140010.383000", "140010.386000", "140010.389000", "140010.392000", "140010.394000", "140010.397000", "140010.400000", "140010.403000", "140010.406000", "140010.409000", "140010.412000", "140010.414000", "140010.417000", "140010.420000", "140010.423000", "140050.213000", "140050.216000", "140050.219000", "140050.222000", "140050.225000", "140050.228000", "140050.231000", "140050.234000", "140050.236000", "140050.239000", "140050.242000", "140050.245000", "140050.248000", "140050.251000", "140050.254000", "140050.257000", "140050.260000", "140050.262000", "140050.265000", "140050.268000", "140050.271000", "140050.274000", "140050.277000", "140050.280000", "140050.282000", "140050.285000", "140050.288000", "140130.212000", "140130.215000", "140130.218000", "140130.221000", "140130.224000", "140130.227000", "140130.229000", "140130.232000", "140130.235000", "140130.238000", "140130.241000", "140130.244000", "140130.247000", "140130.250000", "140130.252000", "140130.255000", "140130.258000", "140130.261000", "140130.265000", "140130.268000", "140130.271000", "140130.274000", "140130.276000", "140130.279000", "140130.282000", "140130.285000", "140210.213000", "140210.216000", "140210.219000", "140210.222000", "140210.225000", "140210.228000", "140210.230000", "140210.233000", "140210.236000", "140210.239000", "140210.242000", "140210.245000", "140210.259000", "140210.262000", "140210.264000", "140210.267000", "140210.270000", "140210.273000", "140210.276000", "140210.279000", "140210.282000", "140210.284000", "140210.287000", "140210.290000", "140210.293000", "140210.296000", "140210.299000", "140250.213000", "140250.216000", "140250.219000", "140250.222000", "140250.225000", "140250.227000", "140250.230000", "140250.233000", "140250.236000", "140250.239000", "140250.242000", "140250.245000", "140250.248000", "140250.250000", "140250.253000", "140250.256000", "140250.259000", "140250.262000", "140250.265000", "140250.268000", "140250.270000", "140250.273000", "140250.276000", "140250.289000", "140250.292000", "140250.295000", "140250.298000", "140317.748000", "140317.751000", "140317.754000", "140317.757000", "140317.760000", "140317.763000", "140317.766000", "140317.769000", "140317.772000", "140317.775000", "140317.778000", "140317.781000", "140317.784000", "140317.787000", "140317.790000", "140317.793000", "140317.795000", "140317.798000", "140317.801000"],
