{
  "AcquisitionMatrixPE": 104,
  "AcquisitionNumber": 1,
  "AcquisitionTime": "13:36:54.682500",
  "BandwidthPerPixelPhaseEncode": 17.17,
  "BaseResolution": 104,
  "BodyPartExamined": "BRAIN",
  "CoilCombinationMethod": "Sum of Squares",
  "ConsistencyInfo": "N4_VE11C_LATEST_20160120",
  "ConversionSoftware": "dcm2niix",
  "ConversionSoftwareVersion": "v1.0.20211006",
  "DerivedVendorReportedEchoSpacing": 0.000560011,
  "DeviceSerialNumber": "167006",
  "DwellTime": 2.1e-06,
  "EchoTime": 0.037,
  "EchoTrainLength": 104,
  "EffectiveEchoSpacing": 0.000560011,
  "FlipAngle": 52,
  "HeudiconvVersion": "0.5.3.post569+g418601f",
  "ImageComments": "Unaliased MB4/PE3/LB",
  "ImageOrientationPatientDICOM": [0.999763, 0.0140817, 0.0166248, -0.00959726, 0.969678, -0.244197],
  "ImageOrientationText": "Tra>Cor(-14.1)>Sag(1.1)",
  "ImageType": [
    "ORIGINAL",
    "PRIMARY",
    "M",
    "MB",
    "ND",
    "MOSAIC"
],
  "ImagingFrequency": 123.259,
  "InPlanePhaseEncodingDirectionDICOM": "COL",
  "InstitutionAddress": "Chemin Queen-Mary 4565,Montreal,District,CA,H3W 1W5",
  "InstitutionName": "IUGM",
  "InstitutionalDepartmentName": "Department",
  "MRAcquisitionType": "2D",
  "MagneticFieldStrength": 3,
  "Manufacturer": "Siemens",
  "ManufacturersModelName": "Prisma_fit",
  "MatrixCoilMode": "SENSE",
  "Modality": "MR",
  "MultibandAccelerationFactor": 4,
  "PartialFourier": 1,
  "PatientPosition": "HFS",
  "PercentPhaseFOV": 100,
  "PercentSampling": 100,
  "PhaseEncodingDirection": "j",
  "PhaseEncodingSteps": 104,
  "PhaseResolution": 1,
  "PixelBandwidth": 2290,
  "ProcedureStepDescription": "video^friends",
  "ProtocolName": "func_task-friends-s06e09b",
  "PulseSequenceDetails": "%CustomerSeq%\\cmrr_mbep2d_bold",
  "ReceiveCoilActiveElements": "HC1-7;NC1,2",
  "ReceiveCoilName": "HeadNeck_64",
  "ReconMatrixPE": 104,
  "RepetitionTime": 1.49,
  "SAR": 0.0722628,
  "ScanOptions": "FS",
  "ScanningSequence": "EP",
  "SequenceName": "epfid2d1_104",
  "SequenceVariant": "SK\\SS",
  "SeriesDescription": "func_task-friends-s06e09b",
  "SeriesNumber": 11,
  "ShimSetting": [640, -7206, -8798, 719, 56, 23, 39, -21],
  "SliceThickness": 2,
  "SliceTiming": [0, 0.7825, 0.0975, 0.8825, 0.195, 0.98, 0.2925, 1.0775, 0.3925, 1.175, 0.49, 1.2725, 0.5875, 1.3725, 0.685, 0, 0.7825, 0.0975, 0.8825, 0.195, 0.98, 0.2925, 1.0775, 0.3925, 1.175, 0.49, 1.2725, 0.5875, 1.3725, 0.685, 0, 0.7825, 0.0975, 0.8825, 0.195, 0.98, 0.2925, 1.0775, 0.3925, 1.175, 0.49, 1.2725, 0.5875, 1.3725, 0.685, 0, 0.7825, 0.0975, 0.8825, 0.195, 0.98, 0.2925, 1.0775, 0.3925, 1.175, 0.49, 1.2725, 0.5875, 1.3725, 0.685],
  "SoftwareVersions": "syngo MR E11",
  "SpacingBetweenSlices": 2,
  "StationName": "MRC35049",
  "TaskName": "s06e09b",
  "TotalReadoutTime": 0.0576811,
  "TxRefAmp": 276.145,
  "WipMemBlock": "824fbd56-b65b-4d0d-924e-19aec00e54c2||Sequence: R016 ve11c/master r/e634e98; Dec 19 2017 11:00:25 by eja",
  "dcmmeta_affine": [
    [-1.9995253086090088, -0.019194522872567177, 0.03911884129047394, 105.13761138916016],
    [-0.028163380920886993, 1.9393564462661743, -0.48795846104621887, -82.26266479492188],
    [0.0332496203482151, 0.4883934557437897, 1.9391664266586304, -64.51803588867188],
    [0.0, 0.0, 0.0, 1.0]
],
  "dcmmeta_reorient_transform": [
    [0.0, -1.0, 0.0, 103.0],
    [1.0, 0.0, 0.0, 0.0],
    [0.0, 0.0, 1.0, 0.0],
    [0.0, 0.0, 0.0, 1.0]
],
  "dcmmeta_shape": [104, 104, 60, 537],
  "dcmmeta_slice_dim": 2,
  "dcmmeta_version": 0.6,
  "global": {
    "const": {
      "AcquisitionMatrix": [104, 0, 0, 104],
      "AngioFlag": "N",
      "BitsAllocated": 16,
      "BitsStored": 16,
      "BodyPartExamined": "BRAIN",
      "Columns": 832,
      "EchoNumbers": 1,
      "EchoTime": 37.0,
      "EchoTrainLength": 104,
      "FlipAngle": 52.0,
      "HighBit": 15,
      "ImageOrientationPatient": [0.99976263266698, 0.01408169010396, 0.01662481057354, -0.0095972617881, 0.96967821839544, -0.2441967348996],
      "ImagePositionPatient": [-824.00096507723, -833.66826515751, 151.45885196455],
      "ImageType": [
        "ORIGINAL",
        "PRIMARY",
        "M",
        "MB",
        "ND",
        "MOSAIC"
],
      "ImagedNucleus": "1H",
      "ImagingFrequency": 123.258885,
      "InPlanePhaseEncodingDirection": "COL",
      "MRAcquisitionType": "2D",
      "MagneticFieldStrength": 3.0,
      "Manufacturer": "SIEMENS",
      "ManufacturerModelName": "Prisma_fit",
      "Modality": "MR",
      "NumberOfAverages": 1.0,
      "NumberOfPhaseEncodingSteps": 104,
      "PercentPhaseFieldOfView": 100.0,
      "PercentSampling": 100.0,
      "PerformedProcedureStepStartTime": "130359.329000",
      "PhotometricInterpretation": "MONOCHROME2",
      "PixelBandwidth": 2290.0,
      "PixelRepresentation": 0,
      "PixelSpacing": [2.0, 2.0],
      "ProtocolName": "func_task-friends-s06e09b",
      "RepetitionTime": 1490.0,
      "Rows": 832,
      "SAR": 0.07226283682535,
      "SamplesPerPixel": 1,
      "ScanOptions": "FS",
      "ScanningSequence": "EP",
      "SequenceName": "epfid2d1_104",
      "SequenceVariant": [
        "SK",
        "SS"
],
      "SeriesDescription": "func_task-friends-s06e09b",
      "SeriesNumber": 11,
      "SeriesTime": "133756.006000",
      "SliceLocation": -40.428793367089,
      "SliceThickness": 2.0,
      "SmallestImagePixelValue": 0,
      "SoftwareVersions": "syngo MR E11",
      "SpacingBetweenSlices": 2.0000000480412,
      "SpecificCharacterSet": "ISO_IR 100",
      "StudyID": "1",
      "StudyTime": "130359.261000",
      "TransmitCoilName": "Body",
      "VariableFlipAngleFlag": "N",
      "WindowCenterWidthExplanation": "Algo1",
      "dBdt": 0.0},
    "slices": {}
  },
  "time": {
    "samples": {
      "AcquisitionNumber": [1, 2, 3, 4, 5, 6, 7, 8, 9, 10, 11, 12, 13, 14, 15, 16, 17, 18, 19, 20, 21, 22, 23, 24, 25, 26, 27, 28, 29, 30, 31, 32, 33, 34, 35, 36, 37, 38, 39, 40, 41, 42, 43, 44, 45, 46, 47, 48, 49, 50, 51, 52, 53, 54, 55, 56, 57, 58, 59, 60, 61, 62, 63, 64, 65, 66, 67, 68, 69, 70, 71, 72, 73, 74, 75, 76, 77, 78, 79, 80, 81, 82, 83, 84, 85, 86, 87, 88, 89, 90, 91, 92, 93, 94, 95, 96, 97, 98, 99, 100, 101, 102, 103, 104, 105, 106, 107, 108, 109, 110, 111, 112, 113, 114, 115, 116, 117, 118, 119, 120, 121, 122, 123, 124, 125, 126, 127, 128, 129, 130, 131, 132, 133, 134, 135, 136, 137, 138, 139, 140, 141, 142, 143, 144, 145, 146, 147, 148, 149, 150, 151, 152, 153, 154, 155, 156, 157, 158, 159, 160, 161, 162, 163, 164, 165, 166, 167, 168, 169, 170, 171, 172, 173, 174, 175, 176, 177, 178, 179, 180, 181, 182, 183, 184, 185, 186, 187, 188, 189, 190, 191, 192, 193, 194, 195, 196, 197, 198, 199, 200, 201, 202, 203, 204, 205, 206, 207, 208, 209, 210, 211, 212, 213, 214, 215, 216, 217, 218, 219, 220, 221, 222, 223, 224, 225, 226, 227, 228, 229, 230, 231, 232, 233, 234, 235, 236, 237, 238, 239, 240, 241, 242, 243, 244, 245, 246, 247, 248, 249, 250, 251, 252, 253, 254, 255, 256, 257, 258, 259, 260, 261, 262, 263, 264, 265, 266, 267, 268, 269, 270, 271, 272, 273, 274, 275, 276, 277, 278, 279, 280, 281, 282, 283, 284, 285, 286, 287, 288, 289, 290, 291, 292, 293, 294, 295, 296, 297, 298, 299, 300, 301, 302, 303, 304, 305, 306, 307, 308, 309, 310, 311, 312, 313, 314, 315, 316, 317, 318, 319, 320, 321, 322, 323, 324, 325, 326, 327, 328, 329, 330, 331, 332, 333, 334, 335, 336, 337, 338, 339, 340, 341, 342, 343, 344, 345, 346, 347, 348, 349, 350, 351, 352, 353, 354, 355, 356, 357, 358, 359, 360, 361, 362, 363, 364, 365, 366, 367, 368, 369, 370, 371, 372, 373, 374, 375, 376, 377, 378, 379, 380, 381, 382, 383, 384, 385, 386, 387, 388, 389, 390, 391, 392, 393, 394, 395, 396, 397, 398, 399, 400, 401, 402, 403, 404, 405, 406, 407, 408, 409, 410, 411, 412, 413, 414, 415, 416, 417, 418, 419, 420, 421, 422, 423, 424, 425, 426, 427, 428, 429, 430, 431, 432, 433, 434, 435, 436, 437, 438, 439, 440, 441, 442, 443, 444, 445, 446, 447, 448, 449, 450, 451, 452, 453, 454, 455, 456, 457, 458, 459, 460, 461, 462, 463, 464, 465, 466, 467, 468, 469, 470, 471, 472, 473, 474, 475, 476, 477, 478, 479, 480, 481, 482, 483, 484, 485, 486, 487, 488, 489, 490, 491, 492, 493, 494, 495, 496, 497, 498, 499, 500, 501, 502, 503, 504, 505, 506, 507, 508, 509, 510, 511, 512, 513, 514, 515, 516, 517, 518, 519, 520, 521, 522, 523, 524, 525, 526, 527, 528, 529, 530, 531, 532, 533, 534, 535, 536, 537],
      "AcquisitionTime": ["133654.682500", "133656.172500", "133657.662500", "133659.152500", "133700.642500", "133702.132500", "133703.622500", "133705.112500", "133706.602500", "133708.092500", "133709.582500", "133711.072500", "133712.562500", "133714.052500", "133715.542500", "133717.032500", "133718.522500", "133720.012500", "133721.502500", "133722.992500", "133724.482500", "133725.972500", "133727.462500", "133728.952500", "133730.442500", "133731.932500", "133733.422500", "133734.912500", "133736.402500", "133737.892500", "133739.382500", "133740.872500", "133742.362500", "133743.852500", "133745.342500", "133746.832500", "133748.322500", "133749.812500", "133751.302500", "133752.792500", "133754.282500", "133755.772500", "133757.262500", "133758.752500", "133800.242500", "133801.732500", "133803.222500", "133804.712500", "133806.202500", "133807.692500", "133809.182500", "133810.672500", "133812.162500", "133813.652500", "133815.142500", "133816.632500", "133818.122500", "133819.612500", "133821.102500", "133822.592500", "133824.082500", "133825.572500", "133827.062500", "133828.552500", "133830.042500", "133831.532500", "133833.022500", "133834.512500", "133836.002500", "133837.492500", "133838.982500", "133840.472500", "133841.962500", "133843.452500", "133844.942500", "133846.432500", "133847.922500", "133849.412500", "133850.902500", "133852.392500", "133853.882500", "133855.372500", "133856.862500", "133858.352500", "133859.842500", "133901.332500", "133902.822500", "133904.312500", "133905.802500", "133907.292500", "133908.782500", "133910.272500", "133911.762500", "133913.252500", "133914.742500", "133916.232500", "133917.722500", "133919.212500", "133920.702500", "133922.192500", "133923.682500", "133925.172500", "133926.662500", "133928.152500", "133929.642500", "133931.132500", "133932.622500", "133934.112500", "133935.602500", "133937.092500", "133938.582500", "133940.072500", "133941.562500", "133943.052500", "133944.542500", "133946.032500", "133947.522500", "133949.012500", "133950.502500", "133951.992500", "133953.482500", "133954.972500", "133956.462500", "133957.952500", "133959.442500", "134000.932500", "134002.422500", "134003.912500", "134005.402500", "134006.892500", "134008.382500", "134009.872500", "134011.362500", "134012.852500", "134014.342500", "134015.832500", "134017.322500", "134018.812500", "134020.302500", "134021.792500", "134023.282500", "134024.772500", "134026.262500", "134027.752500", "134029.242500", "134030.732500", "134032.222500", "134033.712500", "134035.202500", "134036.692500", "134038.182500", "134039.672500", "134041.162500", "134042.652500", "134044.142500", "134045.632500", "134047.122500", "134048.612500", "134050.102500", "134051.592500", "134053.082500", "134054.572500", "134056.062500", "134057.552500", "134059.042500", "134100.532500", "134102.022500", "134103.512500", "134105.002500", "134106.492500", "134107.982500", "134109.472500", "134110.962500", "134112.452500", "134113.942500", "134115.432500", "134116.922500", "134118.412500", "134119.902500", "134121.392500", "134122.882500", "134124.372500", "134125.862500", "134127.352500", "134128.842500", "134130.332500", "134131.822500", "134133.312500", "134134.802500", "134136.292500", "134137.782500", "134139.272500", "134140.762500", "134142.252500", "134143.742500", "134145.232500", "134146.722500", "134148.212500", "134149.702500", "134151.192500", "134152.682500", "134154.172500", "134155.662500", "134157.152500", "134158.642500", "134200.132500", "134201.622500", "134203.112500", "134204.602500", "134206.092500", "134207.582500", "134209.072500", "134210.562500", "134212.052500", "134213.542500", "134215.032500", "134216.522500", "134218.012500", "134219.502500", "134220.992500", "134222.482500", "134223.972500", "134225.462500", "134226.952500", "134228.442500", "134229.932500", "134231.422500", "134232.912500", "134234.402500", "134235.892500", "134237.382500", "134238.872500", "134240.362500", "134241.852500", "134243.342500", "134244.832500", "134246.322500", "134247.812500", "134249.302500", "134250.792500", "134252.282500", "134253.772500", "134255.262500", "134256.752500", "134258.242500", "134259.732500", "134301.222500", "134302.712500", "134304.202500", "134305.692500", "134307.182500", "134308.672500", "134310.162500", "134311.652500", "134313.142500", "134314.632500", "134316.122500", "134317.612500", "134319.102500", "134320.592500", "134322.082500", "134323.572500", "134325.062500", "134326.552500", "134328.042500", "134329.532500", "134331.022500", "134332.512500", "134334.002500", "134335.492500", "134336.982500", "134338.472500", "134339.962500", "134341.452500", "134342.942500", "134344.432500", "134345.922500", "134347.412500", "134348.902500", "134350.392500", "134351.882500", "134353.372500", "134354.862500", "134356.352500", "134357.842500", "134359.332500", "134400.822500", "134402.312500", "134403.802500", "134405.292500", "134406.782500", "134408.272500", "134409.762500", "134411.252500", "134412.742500", "134414.232500", "134415.722500", "134417.212500", "134418.702500", "134420.192500", "134421.682500", "134423.172500", "134424.662500", "134426.152500", "134427.642500", "134429.132500", "134430.622500", "134432.112500", "134433.602500", "134435.092500", "134436.582500", "134438.072500", "134439.562500", "134441.052500", "134442.542500", "134444.032500", "134445.522500", "134447.012500", "134448.502500", "134449.992500", "134451.482500", "134452.972500", "134454.462500", "134455.952500", "134457.442500", "134458.932500", "134500.422500", "134501.912500", "134503.402500", "134504.892500", "134506.382500", "134507.872500", "134509.362500", "134510.852500", "134512.342500", "134513.832500", "134515.322500", "134516.812500", "134518.302500", "134519.792500", "134521.282500", "134522.772500", "134524.262500", "134525.752500", "134527.242500", "134528.732500", "134530.222500", "134531.712500", "134533.202500", "134534.692500", "134536.182500", "134537.672500", "134539.162500", "134540.652500", "134542.142500", "134543.632500", "134545.122500", "134546.612500", "134548.102500", "134549.592500", "134551.082500", "134552.572500", "134554.062500", "134555.552500", "134557.042500", "134558.532500", "134600.022500", "134601.512500", "134603.002500", "134604.492500", "134605.982500", "134607.472500", "134608.962500", "134610.452500", "134611.942500", "134613.432500", "134614.922500", "134616.412500", "134617.902500", "134619.392500", "134620.882500", "134622.372500", "134623.862500", "134625.352500", "134626.842500", "134628.332500", "134629.822500", "134631.312500", "134632.802500", "134634.292500", "134635.782500", "134637.272500", "134638.762500", "134640.252500", "134641.742500", "134643.232500", "134644.722500", "134646.212500", "134647.702500", "134649.192500", "134650.682500", "134652.172500", "134653.662500", "134655.152500", "134656.642500", "134658.132500", "134659.622500", "134701.112500", "134702.602500", "134704.092500", "134705.582500", "134707.072500", "134708.562500", "134710.052500", "134711.542500", "134713.032500", "134714.522500", "134716.012500", "134717.502500", "134718.992500", "134720.482500", "134721.972500", "134723.462500", "134724.952500", "134726.442500", "134727.932500", "134729.422500", "134730.912500", "134732.402500", "134733.892500", "134735.382500", "134736.872500", "134738.362500", "134739.852500", "134741.342500", "134742.832500", "134744.322500", "134745.812500", "134747.302500", "134748.792500", "134750.282500", "134751.772500", "134753.262500", "134754.752500", "134756.242500", "134757.732500", "134759.222500", "134800.712500", "134802.202500", "134803.692500", "134805.182500", "134806.672500", "134808.162500", "134809.652500", "134811.142500", "134812.632500", "134814.122500", "134815.612500", "134817.102500", "134818.592500", "134820.082500", "134821.572500", "134823.062500", "134824.552500", "134826.042500", "134827.532500", "134829.022500", "134830.512500", "134832.002500", "134833.492500", "134834.982500", "134836.472500", "134837.962500", "134839.452500", "134840.942500", "134842.432500", "134843.922500", "134845.412500", "134846.902500", "134848.392500", "134849.882500", "134851.372500", "134852.862500", "134854.352500", "134855.842500", "134857.332500", "134858.822500", "134900.312500", "134901.802500", "134903.292500", "134904.782500", "134906.272500", "134907.762500", "134909.252500", "134910.742500", "134912.232500", "134913.722500", "134915.212500", "134916.702500", "134918.192500", "134919.682500", "134921.172500", "134922.662500", "134924.152500", "134925.642500", "134927.132500", "134928.622500", "134930.112500", "134931.602500", "134933.092500", "134934.582500", "134936.072500", "134937.562500", "134939.052500", "134940.542500", "134942.032500", "134943.522500", "134945.012500", "134946.502500", "134947.992500", "134949.482500", "134950.972500", "134952.462500", "134953.952500", "134955.442500", "134956.932500", "134958.422500", "134959.912500", "135001.402500", "135002.892500", "135004.382500", "135005.872500", "135007.362500", "135008.852500", "135010.342500", "135011.832500", "135013.322500"],
      "ContentTime": ["133756.009000", "133756.012000", "133756.015000", "133756.018000", "133756.020000", "133756.023000", "133815.972000", "133815.975000", "133815.978000", "133815.981000", "133815.983000", "133815.986000", "133815.989000", "133815.998000", "133816.002000", "133816.005000", "133816.008000", "133816.011000", "133816.014000", "133816.016000", "133816.019000", "133816.022000", "133816.025000", "133816.028000", "133816.061000", "133816.067000", "133816.070000", "133835.972000", "133835.975000", "133835.978000", "133835.980000", "133835.983000", "133835.986000", "133835.989000", "133835.992000", "133835.995000", "133835.997000", "133836.001000", "133836.004000", "133836.007000", "133836.010000", "133836.018000", "133836.021000", "133836.024000", "133836.027000", "133836.029000", "133836.032000", "133855.972000", "133855.975000", "133855.978000", "133855.980000", "133855.983000", "133855.986000", "133855.989000", "133855.992000", "133855.995000", "133855.997000", "133856.014000", "133856.016000", "133856.019000", "133856.022000", "133856.025000", "133856.028000", "133856.031000", "133856.034000", "133856.036000", "133856.039000", "133915.971000", "133915.974000", "133915.977000", "133915.979000", "133915.982000", "133915.985000", "133915.988000", "133915.991000", "133915.993000", "133915.996000", "133916.000000", "133916.003000", "133916.006000", "133916.009000", "133916.012000", "133916.015000", "133916.017000", "133916.020000", "133916.023000", "133916.026000", "133935.971000", "133935.974000", "133935.977000", "133935.979000", "133935.982000", "133935.985000", "133935.988000", "133935.991000", "133935.994000", "133935.996000", "133936.000000", "133936.003000", "133936.006000", "133936.009000", "133936.012000", "133936.014000", "133936.017000", "133936.020000", "133936.023000", "133936.026000", "134015.972000", "134015.975000", "134015.978000", "134015.980000", "134015.983000", "134015.986000", "134015.989000", "134015.992000", "134015.995000", "134015.997000", "134016.001000", "134016.004000", "134016.007000", "134016.010000", "134016.013000", "134016.016000", "134016.018000", "134016.021000", "134016.024000", "134016.027000", "134016.030000", "134016.033000", "134016.036000", "134016.038000", "134016.041000", "134016.044000", "134016.047000", "134055.972000", "134055.975000", "134055.978000", "134055.981000", "134055.983000", "134055.986000", "134055.989000", "134055.992000", "134055.995000", "134055.998000", "134056.002000", "134056.011000", "134056.014000", "134056.017000", "134056.020000", "134056.023000", "134056.035000", "134056.038000", "134056.040000", "134056.043000", "134056.046000", "134056.065000", "134056.068000", "134056.071000", "134056.074000", "134056.077000", "134056.080000", "134135.971000", "134135.974000", "134135.977000", "134135.980000", "134135.982000", "134135.985000", "134135.988000", "134135.991000", "134135.994000", "134135.997000", "134136.000000", "134136.003000", "134136.006000", "134136.009000", "134136.012000", "134136.015000", "134136.018000", "134136.021000", "134136.023000", "134136.026000", "134136.029000", "134136.032000", "134136.035000", "134136.038000", "134136.040000", "134136.043000", "134136.046000", "134215.971000", "134215.974000", "134215.977000", "134215.980000", "134215.983000", "134215.985000", "134215.988000", "134215.992000", "134215.995000", "134215.998000", "134216.002000", "134216.005000", "134216.007000", "134216.010000", "134216.013000", "134216.016000", "134216.019000", "134216.022000", "134216.024000", "134216.027000", "134216.030000", "134216.033000", "134216.036000", "134216.039000", "134216.042000", "134216.044000", "134255.972000", "134255.975000", "134255.978000", "134255.981000", "134255.983000", "134255.986000", "134255.989000", "134256.005000", "134256.008000", "134256.011000", "134256.013000", "134256.016000", "134256.019000", "134256.022000", "134256.025000", "134256.028000", "134256.030000", "134256.033000", "134256.036000", "134256.039000", "134256.048000", "134256.051000", "134256.054000", "134256.057000", "134256.060000", "134256.068000", "134256.070000", "134335.972000", "134335.975000", "134335.978000", "134335.981000", "134335.983000", "134335.986000", "134335.989000", "134335.992000", "134335.995000", "134335.998000", "134336.002000", "134336.004000", "134336.007000", "134336.016000", "134336.019000", "134336.022000", "134336.025000", "134336.028000", "134336.030000", "134336.033000", "134336.036000", "134336.039000", "134336.042000", "134336.050000", "134336.053000", "134336.055000", "134336.058000", "134415.971000", "134415.980000", "134415.983000", "134415.986000", "134415.988000", "134415.991000", "134415.994000", "134415.997000", "134416.001000", "134416.004000", "134416.007000", "134416.012000", "134416.015000", "134416.018000", "134416.021000", "134416.023000", "134416.027000", "134416.029000", "134416.032000", "134416.035000", "134416.038000", "134416.041000", "134416.044000", "134416.047000", "134416.050000", "134416.052000", "134416.055000", "134455.972000", "134455.975000", "134455.978000", "134455.981000", "134455.990000", "134455.993000", "134455.995000", "134455.998000", "134456.002000", "134456.005000", "134456.008000", "134456.011000", "134456.014000", "134456.017000", "134456.019000", "134456.022000", "134456.025000", "134456.028000", "134456.031000", "134456.034000", "134456.037000", "134456.039000", "134456.042000", "134456.045000", "134456.048000", "134456.051000", "134456.054000", "134535.972000", "134535.975000", "134535.978000", "134535.981000", "134535.984000", "134535.986000", "134535.989000", "134535.992000", "134535.995000", "134535.998000", "134536.002000", "134536.005000", "134536.007000", "134536.010000", "134536.013000", "134536.016000", "134536.019000", "134536.022000", "134536.024000", "134536.027000", "134536.030000", "134536.033000", "134536.044000", "134536.046000", "134536.049000", "134536.052000", "134536.055000", "134555.972000", "134555.975000", "134555.978000", "134555.981000", "134555.983000", "134555.986000", "134555.989000", "134555.992000", "134555.995000", "134555.998000", "134556.001000", "134556.004000", "134556.007000", "134635.971000", "134635.974000", "134635.986000", "134635.989000", "134635.992000", "134635.994000", "134635.997000", "134636.001000", "134636.004000", "134636.007000", "134636.010000", "134636.012000", "134636.015000", "134636.018000", "134636.021000", "134636.024000", "134636.027000", "134636.030000", "134636.032000", "134636.035000", "134636.038000", "134636.041000", "134636.044000", "134636.047000", "134636.049000", "134636.052000", "134636.055000", "134715.972000", "134715.975000", "134715.978000", "134715.981000", "134715.984000", "134715.986000", "134715.989000", "134715.992000", "134715.995000", "134715.998000", "134716.002000", "134716.004000", "134716.007000", "134716.010000", "134716.013000", "134716.016000", "134716.028000", "134716.031000", "134716.034000", "134716.037000", "134716.040000", "134716.042000", "134716.045000", "134716.048000", "134716.051000", "134716.054000", "134716.057000", "134755.972000", "134755.975000", "134755.978000", "134755.981000", "134755.983000", "134755.986000", "134755.989000", "134755.992000", "134755.995000", "134755.998000", "134756.002000", "134756.004000", "134756.007000", "134756.010000", "134756.013000", "134756.016000", "134756.019000", "134756.022000", "134756.024000", "134756.027000", "134756.030000", "134756.033000", "134756.036000", "134756.038000", "134756.041000", "134756.044000", "134756.047000", "134835.971000", "134835.974000", "134835.977000", "134835.980000", "134835.983000", "134835.985000", "134835.994000", "134835.997000", "134836.001000", "134836.003000", "134836.006000", "134836.009000", "134836.012000", "134836.015000", "134836.018000", "134836.021000", "134836.024000", "134836.026000", "134836.029000", "134836.032000", "134836.035000", "134836.038000", "134836.041000", "134836.043000", "134836.046000", "134836.049000", "134915.971000", "134915.974000", "134915.977000", "134915.980000", "134915.982000", "134915.989000", "134915.992000", "134915.995000", "134915.998000", "134916.002000", "134916.005000", "134916.008000", "134916.010000", "134916.013000", "134916.016000", "134916.019000", "134916.022000", "134916.025000", "134916.028000", "134916.030000", "134916.033000", "134916.036000", "134916.039000", "134916.042000", "134916.045000", "134916.048000", "134916.050000", "134955.972000", "134955.975000", "134955.978000", "134955.981000", "134955.984000", "134955.987000", "134955.989000", "134955.992000", "134955.995000", "134955.998000", "134956.002000", "134956.005000", "134956.008000", "134956.011000", "134956.013000", "134956.016000", "134956.019000", "134956.022000", "134956.034000", "134956.037000", "134956.039000", "134956.042000", "134956.045000", "134956.048000", "134956.051000", "134956.053000", "134956.056000", "135015.960000", "135015.963000", "135015.966000", "135015.969000", "135015.972000", "135015.975000", "135015.978000", "135015.981000", "135015.984000", "135015.987000", "135015.990000", "135016.000000", "135016.004000", "135016.007000"],
