{
  "AcquisitionMatrixPE": 104,
  "AcquisitionNumber": 1,
  "AcquisitionTime": "13:22:55.050000",
  "BandwidthPerPixelPhaseEncode": 17.17,
  "BaseResolution": 104,
  "BodyPartExamined": "BRAIN",
  "CoilCombinationMethod": "Sum of Squares",
  "ConsistencyInfo": "N4_VE11C_LATEST_20160120",
  "ConversionSoftware": "dcm2niix",
  "ConversionSoftwareVersion": "v1.0.20211006",
  "DerivedVendorReportedEchoSpacing": 0.000560011,
  "DeviceSerialNumber": "167006",
  "DwellTime": 2.1e-06,
  "EchoTime": 0.037,
  "EchoTrainLength": 104,
  "EffectiveEchoSpacing": 0.000560011,
  "FlipAngle": 52,
  "HeudiconvVersion": "0.5.3.post569+g418601f",
  "ImageComments": "Unaliased MB4/PE3/LB",
  "ImageOrientationPatientDICOM": [0.999763, 0.0140817, 0.0166248, -0.00959726, 0.969678, -0.244197],
  "ImageOrientationText": "Tra>Cor(-14.1)>Sag(1.1)",
  "ImageType": [
    "ORIGINAL",
    "PRIMARY",
    "M",
    "MB",
    "ND",
    "MOSAIC"
],
  "ImagingFrequency": 123.259,
  "InPlanePhaseEncodingDirectionDICOM": "COL",
  "InstitutionAddress": "Chemin Queen-Mary 4565,Montreal,District,CA,H3W 1W5",
  "InstitutionName": "IUGM",
  "InstitutionalDepartmentName": "Department",
  "MRAcquisitionType": "2D",
  "MagneticFieldStrength": 3,
  "Manufacturer": "Siemens",
  "ManufacturersModelName": "Prisma_fit",
  "MatrixCoilMode": "SENSE",
  "Modality": "MR",
  "MultibandAccelerationFactor": 4,
  "PartialFourier": 1,
  "PatientPosition": "HFS",
  "PercentPhaseFOV": 100,
  "PercentSampling": 100,
  "PhaseEncodingDirection": "j",
  "PhaseEncodingSteps": 104,
  "PhaseResolution": 1,
  "PixelBandwidth": 2290,
  "ProcedureStepDescription": "video^friends",
  "ProtocolName": "func_task-friends-s06e09a",
  "PulseSequenceDetails": "%CustomerSeq%\\cmrr_mbep2d_bold",
  "ReceiveCoilActiveElements": "HC1-7;NC1,2",
  "ReceiveCoilName": "HeadNeck_64",
  "ReconMatrixPE": 104,
  "RepetitionTime": 1.49,
  "SAR": 0.0722454,
  "ScanOptions": "FS",
  "ScanningSequence": "EP",
  "SequenceName": "epfid2d1_104",
  "SequenceVariant": "SK\\SS",
  "SeriesDescription": "func_task-friends-s06e09a",
  "SeriesNumber": 9,
  "ShimSetting": [640, -7206, -8798, 719, 56, 23, 39, -21],
  "SliceThickness": 2,
  "SliceTiming": [0, 0.7825, 0.0975, 0.88, 0.195, 0.98, 0.2925, 1.0775, 0.39, 1.175, 0.49, 1.2725, 0.5875, 1.37, 0.685, 0, 0.7825, 0.0975, 0.88, 0.195, 0.98, 0.2925, 1.0775, 0.39, 1.175, 0.49, 1.2725, 0.5875, 1.37, 0.685, 0, 0.7825, 0.0975, 0.88, 0.195, 0.98, 0.2925, 1.0775, 0.39, 1.175, 0.49, 1.2725, 0.5875, 1.37, 0.685, 0, 0.7825, 0.0975, 0.88, 0.195, 0.98, 0.2925, 1.0775, 0.39, 1.175, 0.49, 1.2725, 0.5875, 1.37, 0.685],
  "SoftwareVersions": "syngo MR E11",
  "SpacingBetweenSlices": 2,
  "StationName": "MRC35049",
  "TaskName": "s06e09a",
  "TotalReadoutTime": 0.0576811,
  "TxRefAmp": 276.145,
  "WipMemBlock": "42d31f55-fa4a-4678-892d-fa860dddfef3||Sequence: R016 ve11c/master r/e634e98; Dec 19 2017 11:00:25 by eja",
  "dcmmeta_affine": [
    [-1.9995253086090088, -0.019194522872567177, 0.03911884129047394, 105.13761138916016],
    [-0.028163380920886993, 1.9393564462661743, -0.48795846104621887, -82.26266479492188],
    [0.0332496203482151, 0.4883934557437897, 1.9391664266586304, -64.51803588867188],
    [0.0, 0.0, 0.0, 1.0]
],
  "dcmmeta_reorient_transform": [
    [0.0, -1.0, 0.0, 103.0],
    [1.0, 0.0, 0.0, 0.0],
    [0.0, 0.0, 1.0, 0.0],
    [0.0, 0.0, 0.0, 1.0]
],
  "dcmmeta_shape": [104, 104, 60, 504],
  "dcmmeta_slice_dim": 2,
  "dcmmeta_version": 0.6,
  "global": {
    "const": {
      "AcquisitionMatrix": [104, 0, 0, 104],
      "AngioFlag": "N",
      "BitsAllocated": 16,
      "BitsStored": 16,
      "BodyPartExamined": "BRAIN",
      "Columns": 832,
      "EchoNumbers": 1,
      "EchoTime": 37.0,
      "EchoTrainLength": 104,
      "FlipAngle": 52.0,
      "HighBit": 15,
      "ImageOrientationPatient": [0.99976263266698, 0.01408169010396, 0.01662481057354, -0.0095972617881, 0.96967821839544, -0.2441967348996],
      "ImagePositionPatient": [-824.00096507723, -833.66826515751, 151.45885196455],
      "ImageType": [
        "ORIGINAL",
        "PRIMARY",
        "M",
        "MB",
        "ND",
        "MOSAIC"
],
      "ImagedNucleus": "1H",
      "ImagingFrequency": 123.258874,
      "InPlanePhaseEncodingDirection": "COL",
      "MRAcquisitionType": "2D",
      "MagneticFieldStrength": 3.0,
      "Manufacturer": "SIEMENS",
      "ManufacturerModelName": "Prisma_fit",
      "Modality": "MR",
      "NumberOfAverages": 1.0,
      "NumberOfPhaseEncodingSteps": 104,
      "PercentPhaseFieldOfView": 100.0,
      "PercentSampling": 100.0,
      "PerformedProcedureStepStartTime": "130359.329000",
      "PhotometricInterpretation": "MONOCHROME2",
      "PixelBandwidth": 2290.0,
      "PixelRepresentation": 0,
      "PixelSpacing": [2.0, 2.0],
      "ProtocolName": "func_task-friends-s06e09a",
      "RepetitionTime": 1490.0,
      "Rows": 832,
      "SAR": 0.07224538986554,
      "SamplesPerPixel": 1,
      "ScanOptions": "FS",
      "ScanningSequence": "EP",
      "SequenceName": "epfid2d1_104",
      "SequenceVariant": [
        "SK",
        "SS"
],
      "SeriesDescription": "func_task-friends-s06e09a",
      "SeriesNumber": 9,
      "SeriesTime": "132418.887000",
      "SliceLocation": -40.428793367089,
      "SliceThickness": 2.0,
      "SmallestImagePixelValue": 0,
      "SoftwareVersions": "syngo MR E11",
      "SpacingBetweenSlices": 2.0000000480412,
      "SpecificCharacterSet": "ISO_IR 100",
      "StudyID": "1",
      "StudyTime": "130359.261000",
      "TransmitCoilName": "Body",
      "VariableFlipAngleFlag": "N",
      "WindowCenterWidthExplanation": "Algo1",
      "dBdt": 0.0},
    "slices": {}
  },
  "time": {
    "samples": {
      "AcquisitionNumber": [1, 2, 3, 4, 5, 6, 7, 8, 9, 10, 11, 12, 13, 14, 15, 16, 17, 18, 19, 20, 21, 22, 23, 24, 25, 26, 27, 28, 29, 30, 31, 32, 33, 34, 35, 36, 37, 38, 39, 40, 41, 42, 43, 44, 45, 46, 47, 48, 49, 50, 51, 52, 53, 54, 55, 56, 57, 58, 59, 60, 61, 62, 63, 64, 65, 66, 67, 68, 69, 70, 71, 72, 73, 74, 75, 76, 77, 78, 79, 80, 81, 82, 83, 84, 85, 86, 87, 88, 89, 90, 91, 92, 93, 94, 95, 96, 97, 98, 99, 100, 101, 102, 103, 104, 105, 106, 107, 108, 109, 110, 111, 112, 113, 114, 115, 116, 117, 118, 119, 120, 121, 122, 123, 124, 125, 126, 127, 128, 129, 130, 131, 132, 133, 134, 135, 136, 137, 138, 139, 140, 141, 142, 143, 144, 145, 146, 147, 148, 149, 150, 151, 152, 153, 154, 155, 156, 157, 158, 159, 160, 161, 162, 163, 164, 165, 166, 167, 168, 169, 170, 171, 172, 173, 174, 175, 176, 177, 178, 179, 180, 181, 182, 183, 184, 185, 186, 187, 188, 189, 190, 191, 192, 193, 194, 195, 196, 197, 198, 199, 200, 201, 202, 203, 204, 205, 206, 207, 208, 209, 210, 211, 212, 213, 214, 215, 216, 217, 218, 219, 220, 221, 222, 223, 224, 225, 226, 227, 228, 229, 230, 231, 232, 233, 234, 235, 236, 237, 238, 239, 240, 241, 242, 243, 244, 245, 246, 247, 248, 249, 250, 251, 252, 253, 254, 255, 256, 257, 258, 259, 260, 261, 262, 263, 264, 265, 266, 267, 268, 269, 270, 271, 272, 273, 274, 275, 276, 277, 278, 279, 280, 281, 282, 283, 284, 285, 286, 287, 288, 289, 290, 291, 292, 293, 294, 295, 296, 297, 298, 299, 300, 301, 302, 303, 304, 305, 306, 307, 308, 309, 310, 311, 312, 313, 314, 315, 316, 317, 318, 319, 320, 321, 322, 323, 324, 325, 326, 327, 328, 329, 330, 331, 332, 333, 334, 335, 336, 337, 338, 339, 340, 341, 342, 343, 344, 345, 346, 347, 348, 349, 350, 351, 352, 353, 354, 355, 356, 357, 358, 359, 360, 361, 362, 363, 364, 365, 366, 367, 368, 369, 370, 371, 372, 373, 374, 375, 376, 377, 378, 379, 380, 381, 382, 383, 384, 385, 386, 387, 388, 389, 390, 391, 392, 393, 394, 395, 396, 397, 398, 399, 400, 401, 402, 403, 404, 405, 406, 407, 408, 409, 410, 411, 412, 413, 414, 415, 416, 417, 418, 419, 420, 421, 422, 423, 424, 425, 426, 427, 428, 429, 430, 431, 432, 433, 434, 435, 436, 437, 438, 439, 440, 441, 442, 443, 444, 445, 446, 447, 448, 449, 450, 451, 452, 453, 454, 455, 456, 457, 458, 459, 460, 461, 462, 463, 464, 465, 466, 467, 468, 469, 470, 471, 472, 473, 474, 475, 476, 477, 478, 479, 480, 481, 482, 483, 484, 485, 486, 487, 488, 489, 490, 491, 492, 493, 494, 495, 496, 497, 498, 499, 500, 501, 502, 503, 504],
      "AcquisitionTime": ["132255.050000", "132256.540000", "132258.030000", "132259.520000", "132301.010000", "132302.500000", "132303.990000", "132305.480000", "132306.970000", "132308.460000", "132309.950000", "132311.440000", "132312.930000", "132314.420000", "132315.910000", "132317.400000", "132318.890000", "132320.380000", "132321.870000", "132323.360000", "132324.850000", "132326.340000", "132327.830000", "132329.320000", "132330.810000", "132332.300000", "132333.790000", "132335.280000", "132336.770000", "132338.260000", "132339.750000", "132341.240000", "132342.730000", "132344.220000", "132345.710000", "132347.200000", "132348.690000", "132350.180000", "132351.670000", "132353.160000", "132354.650000", "132356.140000", "132357.630000", "132359.120000", "132400.610000", "132402.100000", "132403.590000", "132405.080000", "132406.570000", "132408.060000", "132409.550000", "132411.040000", "132412.530000", "132414.020000", "132415.510000", "132417.000000", "132418.490000", "132419.980000", "132421.470000", "132422.960000", "132424.450000", "132425.940000", "132427.430000", "132428.920000", "132430.410000", "132431.900000", "132433.390000", "132434.880000", "132436.370000", "132437.860000", "132439.350000", "132440.840000", "132442.330000", "132443.820000", "132445.310000", "132446.800000", "132448.290000", "132449.780000", "132451.270000", "132452.760000", "132454.250000", "132455.740000", "132457.230000", "132458.720000", "132500.210000", "132501.700000", "132503.190000", "132504.680000", "132506.170000", "132507.660000", "132509.150000", "132510.640000", "132512.130000", "132513.620000", "132515.110000", "132516.600000", "132518.090000", "132519.580000", "132521.070000", "132522.560000", "132524.050000", "132525.540000", "132527.030000", "132528.520000", "132530.010000", "132531.500000", "132532.990000", "132534.480000", "132535.970000", "132537.460000", "132538.950000", "132540.440000", "132541.930000", "132543.420000", "132544.910000", "132546.400000", "132547.890000", "132549.380000", "132550.870000", "132552.360000", "132553.850000", "132555.340000", "132556.830000", "132558.320000", "132559.810000", "132601.300000", "132602.790000", "132604.280000", "132605.770000", "132607.260000", "132608.750000", "132610.240000", "132611.730000", "132613.220000", "132614.710000", "132616.200000", "132617.690000", "132619.180000", "132620.670000", "132622.160000", "132623.650000", "132625.140000", "132626.630000", "132628.120000", "132629.610000", "132631.100000", "132632.590000", "132634.080000", "132635.570000", "132637.060000", "132638.550000", "132640.040000", "132641.530000", "132643.020000", "132644.510000", "132646.000000", "132647.490000", "132648.980000", "132650.470000", "132651.960000", "132653.450000", "132654.940000", "132656.430000", "132657.920000", "132659.410000", "132700.900000", "132702.390000", "132703.880000", "132705.370000", "132706.860000", "132708.350000", "132709.840000", "132711.330000", "132712.820000", "132714.310000", "132715.800000", "132717.290000", "132718.780000", "132720.270000", "132721.760000", "132723.250000", "132724.740000", "132726.230000", "132727.720000", "132729.210000", "132730.700000", "132732.190000", "132733.680000", "132735.170000", "132736.660000", "132738.150000", "132739.640000", "132741.130000", "132742.620000", "132744.110000", "132745.600000", "132747.090000", "132748.580000", "132750.070000", "132751.560000", "132753.050000", "132754.540000", "132756.030000", "132757.520000", "132759.010000", "132800.500000", "132801.990000", "132803.480000", "132804.970000", "132806.460000", "132807.950000", "132809.440000", "132810.930000", "132812.420000", "132813.910000", "132815.400000", "132816.890000", "132818.380000", "132819.870000", "132821.360000", "132822.850000", "132824.340000", "132825.830000", "132827.320000", "132828.810000", "132830.300000", "132831.790000", "132833.280000", "132834.770000", "132836.260000", "132837.750000", "132839.240000", "132840.730000", "132842.220000", "132843.710000", "132845.200000", "132846.690000", "132848.180000", "132849.670000", "132851.160000", "132852.650000", "132854.140000", "132855.630000", "132857.120000", "132858.610000", "132900.100000", "132901.590000", "132903.080000", "132904.570000", "132906.060000", "132907.550000", "132909.040000", "132910.530000", "132912.020000", "132913.510000", "132915.000000", "132916.490000", "132917.980000", "132919.470000", "132920.960000", "132922.450000", "132923.940000", "132925.430000", "132926.920000", "132928.410000", "132929.900000", "132931.390000", "132932.880000", "132934.370000", "132935.860000", "132937.350000", "132938.840000", "132940.330000", "132941.820000", "132943.310000", "132944.800000", "132946.290000", "132947.780000", "132949.270000", "132950.760000", "132952.250000", "132953.740000", "132955.230000", "132956.720000", "132958.210000", "132959.700000", "133001.190000", "133002.680000", "133004.170000", "133005.660000", "133007.150000", "133008.640000", "133010.130000", "133011.620000", "133013.110000", "133014.600000", "133016.090000", "133017.580000", "133019.070000", "133020.560000", "133022.050000", "133023.540000", "133025.030000", "133026.520000", "133028.010000", "133029.500000", "133030.990000", "133032.480000", "133033.970000", "133035.460000", "133036.950000", "133038.440000", "133039.930000", "133041.420000", "133042.910000", "133044.400000", "133045.890000", "133047.380000", "133048.870000", "133050.360000", "133051.850000", "133053.340000", "133054.830000", "133056.320000", "133057.810000", "133059.300000", "133100.790000", "133102.280000", "133103.770000", "133105.260000", "133106.750000", "133108.240000", "133109.730000", "133111.220000", "133112.710000", "133114.200000", "133115.690000", "133117.180000", "133118.670000", "133120.160000", "133121.650000", "133123.140000", "133124.630000", "133126.120000", "133127.610000", "133129.100000", "133130.590000", "133132.080000", "133133.570000", "133135.060000", "133136.550000", "133138.040000", "133139.530000", "133141.020000", "133142.510000", "133144.000000", "133145.490000", "133146.980000", "133148.470000", "133149.960000", "133151.450000", "133152.940000", "133154.430000", "133155.920000", "133157.410000", "133158.900000", "133200.390000", "133201.880000", "133203.370000", "133204.860000", "133206.350000", "133207.840000", "133209.330000", "133210.820000", "133212.310000", "133213.800000", "133215.290000", "133216.780000", "133218.270000", "133219.760000", "133221.250000", "133222.740000", "133224.230000", "133225.720000", "133227.210000", "133228.700000", "133230.190000", "133231.680000", "133233.170000", "133234.660000", "133236.150000", "133237.640000", "133239.130000", "133240.620000", "133242.110000", "133243.600000", "133245.090000", "133246.580000", "133248.070000", "133249.560000", "133251.050000", "133252.540000", "133254.030000", "133255.520000", "133257.010000", "133258.500000", "133259.990000", "133301.480000", "133302.970000", "133304.460000", "133305.950000", "133307.440000", "133308.930000", "133310.420000", "133311.910000", "133313.400000", "133314.890000", "133316.380000", "133317.870000", "133319.360000", "133320.850000", "133322.340000", "133323.830000", "133325.320000", "133326.810000", "133328.300000", "133329.790000", "133331.280000", "133332.770000", "133334.260000", "133335.750000", "133337.240000", "133338.730000", "133340.220000", "133341.710000", "133343.200000", "133344.690000", "133346.180000", "133347.670000", "133349.160000", "133350.650000", "133352.140000", "133353.630000", "133355.120000", "133356.610000", "133358.100000", "133359.590000", "133401.080000", "133402.570000", "133404.060000", "133405.550000", "133407.040000", "133408.530000", "133410.020000", "133411.510000", "133413.000000", "133414.490000", "133415.980000", "133417.470000", "133418.960000", "133420.450000", "133421.940000", "133423.430000", "133424.920000", "133426.410000", "133427.900000", "133429.390000", "133430.880000", "133432.370000", "133433.860000", "133435.350000", "133436.840000", "133438.330000", "133439.820000", "133441.310000", "133442.800000", "133444.290000", "133445.780000", "133447.270000", "133448.760000", "133450.250000", "133451.740000", "133453.230000", "133454.720000", "133456.210000", "133457.700000", "133459.190000", "133500.680000", "133502.170000", "133503.660000", "133505.150000", "133506.640000", "133508.130000", "133509.620000", "133511.110000", "133512.600000", "133514.090000", "133515.580000", "133517.070000", "133518.560000", "133520.050000", "133521.540000", "133523.030000", "133524.520000"],
      "ContentTime": ["132418.890000", "132418.893000", "132418.896000", "132418.899000", "132418.901000", "132418.911000", "132418.914000", "132418.917000", "132418.920000", "132418.923000", "132418.926000", "132418.929000", "132418.932000", "132418.935000", "132418.937000", "132418.940000", "132418.943000", "132418.946000", "132418.949000", "132418.952000", "132418.954000", "132418.957000", "132418.960000", "132418.963000", "132418.970000", "132418.973000", "132418.976000", "132418.979000", "132418.982000", "132418.985000", "132438.846000", "132438.849000", "132438.852000", "132438.855000", "132438.857000", "132438.860000", "132438.863000", "132438.866000", "132438.869000", "132438.872000", "132438.875000", "132438.877000", "132438.880000", "132438.883000", "132438.886000", "132438.889000", "132438.892000", "132438.894000", "132438.897000", "132438.900000", "132458.846000", "132458.849000", "132458.852000", "132458.855000", "132458.861000", "132458.864000", "132458.867000", "132458.870000", "132458.873000", "132458.876000", "132458.879000", "132458.881000", "132458.884000", "132458.888000", "132458.891000", "132458.894000", "132458.897000", "132458.900000", "132458.903000", "132458.905000", "132518.846000", "132518.861000", "132518.864000", "132518.867000", "132518.870000", "132518.873000", "132518.875000", "132518.878000", "132518.881000", "132518.884000", "132518.887000", "132518.890000", "132518.893000", "132518.896000", "132518.900000", "132518.903000", "132518.906000", "132518.909000", "132518.912000", "132518.915000", "132558.846000", "132558.849000", "132558.852000", "132558.855000", "132558.858000", "132558.860000", "132558.863000", "132558.870000", "132558.873000", "132558.876000", "132558.879000", "132558.882000", "132558.885000", "132558.887000", "132558.890000", "132558.893000", "132558.896000", "132558.899000", "132558.902000", "132558.905000", "132558.908000", "132558.911000", "132558.913000", "132558.916000", "132558.919000", "132558.922000", "132558.925000", "132558.928000", "132558.931000", "132558.933000", "132558.936000", "132558.939000", "132558.942000", "132638.846000", "132638.849000", "132638.859000", "132638.862000", "132638.865000", "132638.868000", "132638.871000", "132638.873000", "132638.876000", "132638.879000", "132638.882000", "132638.885000", "132638.888000", "132638.891000", "132638.894000", "132638.897000", "132638.900000", "132638.903000", "132638.906000", "132638.909000", "132638.912000", "132638.915000", "132638.918000", "132638.921000", "132638.923000", "132638.926000", "132638.929000", "132718.846000", "132718.849000", "132718.852000", "132718.858000", "132718.861000", "132718.864000", "132718.867000", "132718.870000", "132718.873000", "132718.875000", "132718.878000", "132718.881000", "132718.884000", "132718.887000", "132718.890000", "132718.893000", "132718.896000", "132718.898000", "132718.901000", "132718.917000", "132718.920000", "132718.923000", "132718.926000", "132718.932000", "132718.934000", "132718.938000", "132758.845000", "132758.848000", "132758.851000", "132758.854000", "132758.856000", "132758.859000", "132758.862000", "132758.865000", "132758.868000", "132758.871000", "132758.874000", "132758.877000", "132758.879000", "132758.882000", "132758.885000", "132758.888000", "132758.891000", "132758.899000", "132758.902000", "132758.905000", "132758.908000", "132758.911000", "132758.914000", "132758.917000", "132758.920000", "132758.923000", "132758.926000", "132838.846000", "132838.849000", "132838.852000", "132838.855000", "132838.858000", "132838.861000", "132838.871000", "132838.873000", "132838.876000", "132838.879000", "132838.882000", "132838.885000", "132838.888000", "132838.891000", "132838.894000", "132838.897000", "132838.900000", "132838.902000", "132838.905000", "132838.908000", "132838.911000", "132838.914000", "132838.918000", "132838.921000", "132838.924000", "132838.927000", "132838.930000", "132918.846000", "132918.849000", "132918.852000", "132918.855000", "132918.858000", "132918.860000", "132918.863000", "132918.866000", "132918.869000", "132918.872000", "132918.875000", "132918.878000", "132918.880000", "132918.883000", "132918.886000", "132918.889000", "132918.892000", "132918.895000", "132918.898000", "132918.900000", "132918.903000", "132918.906000", "132918.909000", "132918.912000", "132918.915000", "132918.918000", "132918.921000", "132958.846000", "132958.849000", "132958.852000", "132958.855000", "132958.858000", "132958.861000", "132958.863000", "132958.866000", "132958.869000", "132958.872000", "132958.875000", "132958.878000", "132958.880000", "132958.883000", "132958.886000", "132958.889000", "132958.892000", "132958.895000", "132958.898000", "132958.900000", "132958.903000", "132958.906000", "132958.909000", "132958.912000", "132958.915000", "132958.917000", "132958.920000", "133038.846000", "133038.849000", "133038.852000", "133038.855000", "133038.858000", "133038.861000", "133038.863000", "133038.866000", "133038.869000", "133038.872000", "133038.881000", "133038.884000", "133038.887000", "133038.890000", "133038.893000", "133038.896000", "133038.898000", "133038.901000", "133038.904000", "133038.907000", "133038.910000", "133038.913000", "133038.918000", "133038.921000", "133038.924000", "133038.927000", "133038.930000", "133118.846000", "133118.849000", "133118.852000", "133118.855000", "133118.858000", "133118.861000", "133118.864000", "133118.867000", "133118.869000", "133118.872000", "133118.875000", "133118.878000", "133118.881000", "133118.883000", "133118.886000", "133118.901000", "133118.904000", "133118.907000", "133118.910000", "133118.913000", "133118.916000", "133118.918000", "133118.921000", "133118.931000", "133118.934000", "133118.937000", "133158.846000", "133158.857000", "133158.859000", "133158.862000", "133158.865000", "133158.868000", "133158.871000", "133158.874000", "133158.877000", "133158.880000", "133158.882000", "133158.885000", "133158.888000", "133158.891000", "133158.894000", "133158.897000", "133158.899000", "133158.902000", "133158.905000", "133158.908000", "133158.911000", "133158.914000", "133158.917000", "133158.920000", "133158.924000", "133158.927000", "133158.929000", "133238.845000", "133238.848000", "133238.851000", "133238.854000", "133238.857000", "133238.860000", "133238.862000", "133238.865000", "133238.868000", "133238.871000", "133238.874000", "133238.877000", "133238.880000", "133238.882000", "133238.885000", "133238.888000", "133238.891000", "133238.894000", "133238.897000", "133238.900000", "133238.903000", "133238.905000", "133238.908000", "133238.911000", "133238.914000", "133238.917000", "133238.920000", "133318.846000", "133318.849000", "133318.852000", "133318.855000", "133318.858000", "133318.861000", "133318.864000", "133318.866000", "133318.869000", "133318.872000", "133318.875000", "133318.878000", "133318.881000", "133318.884000", "133318.887000", "133318.890000", "133318.892000", "133318.895000", "133318.898000", "133318.901000", "133318.904000", "133318.907000", "133318.910000", "133318.912000", "133318.915000", "133318.918000", "133318.921000", "133358.846000", "133358.849000", "133358.852000", "133358.855000", "133358.858000", "133358.860000", "133358.863000", "133358.866000", "133358.869000", "133358.872000", "133358.875000", "133358.878000", "133358.887000", "133358.890000", "133358.893000", "133358.896000", "133358.899000", "133358.902000", "133358.904000", "133358.907000", "133358.910000", "133358.913000", "133358.916000", "133358.919000", "133358.922000", "133358.925000", "133358.927000", "133438.846000", "133438.849000", "133438.852000", "133438.855000", "133438.858000", "133438.861000", "133438.864000", "133438.866000", "133438.869000", "133438.872000", "133438.875000", "133438.878000", "133438.881000", "133438.895000", "133438.898000", "133438.900000", "133438.903000", "133438.906000", "133438.909000", "133438.912000", "133438.915000", "133438.918000", "133438.921000", "133438.924000", "133438.927000", "133438.930000", "133438.932000", "133518.846000", "133518.849000", "133518.863000", "133518.866000", "133518.869000", "133518.872000", "133518.875000", "133518.878000", "133518.881000", "133518.883000", "133518.886000", "133518.889000", "133518.892000", "133518.895000", "133518.898000", "133518.901000", "133518.904000", "133518.906000", "133518.909000", "133518.912000", "133518.915000", "133518.918000", "133518.921000", "133518.924000", "133518.927000", "133518.930000", "133518.933000", "133526.222000", "133526.225000", "133526.228000", "133526.231000", "133526.234000"],
