{
  "AcquisitionMatrixPE": 104,
  "AcquisitionNumber": 1,
  "AcquisitionTime": "15:54:40.217500",
  "BandwidthPerPixelPhaseEncode": 17.17,
  "BaseResolution": 104,
  "BodyPartExamined": "BRAIN",
  "CoilString": "HC1-7;NC1_2",
  "ConsistencyInfo": "N4_VE11C_LATEST_20160120",
  "ConversionSoftware": "dcm2niix",
  "ConversionSoftwareVersion": "v1.0.20190720  (JP2:OpenJPEG) GCC7.3.0",
  "DerivedVendorReportedEchoSpacing": 0.000560011,
  "DeviceSerialNumber": "167006",
  "DwellTime": 2.1e-06,
  "EchoTime": 0.037,
  "EchoTrainLength": 104,
  "EffectiveEchoSpacing": 0.000560011,
  "FlipAngle": 52,
  "ImageComments": "Unaliased_MB4_PE3_LB",
  "ImageOrientationPatientDICOM": [0.99847, -0.0487714, 0.0260704, 0.0551239, 0.915533, -0.398449],
  "ImageType": [
    "ORIGINAL",
    "PRIMARY",
    "M",
    "MB",
    "ND",
    "MOSAIC"
],
  "ImagingFrequency": 123.259,
  "InPlanePhaseEncodingDirectionDICOM": "COL",
  "InstitutionAddress": "Chemin_Queen-Mary_4565_Montreal_District_CA_H3W_1W5",
  "InstitutionName": "IUGM",
  "InstitutionalDepartmentName": "Department",
  "MRAcquisitionType": "2D",
  "MagneticFieldStrength": 3,
  "Manufacturer": "Siemens",
  "ManufacturersModelName": "Prisma_fit",
  "Modality": "MR",
  "MultibandAccelerationFactor": 4,
  "PartialFourier": 1,
  "PatientPosition": "HFS",
  "PercentPhaseFOV": 100,
  "PhaseEncodingDirection": "j",
  "PhaseEncodingSteps": 104,
  "PhaseResolution": 1,
  "PixelBandwidth": 2290,
  "ProcedureStepDescription": "video_friends",
  "ProtocolName": "func_task-s01e18b",
  "PulseSequenceDetails": "%CustomerSeq%_cmrr_mbep2d_bold",
  "ReceiveCoilActiveElements": "HC1-7;NC1,2",
  "ReceiveCoilName": "HeadNeck_64",
  "ReconMatrixPE": 104,
  "RepetitionTime": 1.49,
  "SAR": 0.0289062,
  "ScanOptions": "FS",
  "ScanningSequence": "EP",
  "SequenceName": "epfid2d1_104",
  "SequenceVariant": "SK_SS",
  "SeriesDescription": "func_task-s01e18b",
  "SeriesNumber": 37,
  "ShimSetting": [637, -7250, -8893, 589, 55, -277, -139, -1],
  "SliceThickness": 2,
  "SliceTiming": [0, 0.785, 0.1, 0.8825, 0.1975, 0.98, 0.295, 1.0775, 0.3925, 1.1775, 0.49, 1.275, 0.59, 1.3725, 0.6875, 0, 0.785, 0.1, 0.8825, 0.1975, 0.98, 0.295, 1.0775, 0.3925, 1.1775, 0.49, 1.275, 0.59, 1.3725, 0.6875, 0, 0.785, 0.1, 0.8825, 0.1975, 0.98, 0.295, 1.0775, 0.3925, 1.1775, 0.49, 1.275, 0.59, 1.3725, 0.6875, 0, 0.785, 0.1, 0.8825, 0.1975, 0.98, 0.295, 1.0775, 0.3925, 1.1775, 0.49, 1.275, 0.59, 1.3725, 0.6875],
  "SoftwareVersions": "syngo_MR_E11",
  "SpacingBetweenSlices": 2,
  "StationName": "MRC35049",
  "TaskName": "friends",
  "TotalReadoutTime": 0.0576811,
  "TxRefAmp": 226.697,
  "WipMemBlock": "ad311036-ca75-4352-9c3b-d956286a0d6f||Sequence: R016 ve11c/master r/e634e98; Dec 19 2017 11:00:25 by eja",
  "dcmmeta_affine": [
    [-1.9969393014907837, 0.11024785786867142, 0.008870836347341537, 96.38423919677734],
    [0.09754286706447601, 1.8310651779174805, -0.798552393913269, -73.9113540649414],
    [0.05214088782668114, 0.7968977093696594, 1.8336398601531982, -91.31690979003906],
    [0.0, 0.0, 0.0, 1.0]
],
  "dcmmeta_reorient_transform": [
    [0.0, -1.0, 0.0, 103.0],
    [1.0, 0.0, 0.0, 0.0],
    [0.0, 0.0, 1.0, 0.0],
    [0.0, 0.0, 0.0, 1.0]
],
  "dcmmeta_shape": [104, 104, 60, 497],
  "dcmmeta_slice_dim": 2,
  "dcmmeta_version": 0.6,
  "global": {
    "const": {
      "AcquisitionMatrix": [104, 0, 0, 104],
      "AngioFlag": "N",
      "BitsAllocated": 16,
      "BitsStored": 16,
      "BodyPartExamined": "BRAIN",
      "Columns": 832,
      "EchoNumbers": 1,
      "EchoTime": 37.0,
      "EchoTrainLength": 104,
      "FlipAngle": 52.0,
      "HighBit": 15,
      "ImageOrientationPatient": [0.99846966870296, -0.0487714330174, 0.02607044306542, 0.05512393078712, 0.91553256000167, -0.3984488471954],
      "ImagePositionPatient": [-874.75590804372, -745.69045418415, 261.85502989852],
      "ImageType": [
        "ORIGINAL",
        "PRIMARY",
        "M",
        "MB",
        "ND",
        "MOSAIC"
],
      "ImagedNucleus": "1H",
      "ImagingFrequency": 123.259179,
      "InPlanePhaseEncodingDirection": "COL",
      "MRAcquisitionType": "2D",
      "MagneticFieldStrength": 3.0,
      "Manufacturer": "SIEMENS",
      "ManufacturerModelName": "Prisma_fit",
      "Modality": "MR",
      "NumberOfAverages": 1.0,
      "NumberOfPhaseEncodingSteps": 104,
      "PercentPhaseFieldOfView": 100.0,
      "PercentSampling": 100.0,
      "PerformedProcedureStepStartTime": "130734.901000",
      "PhotometricInterpretation": "MONOCHROME2",
      "PixelBandwidth": 2290.0,
      "PixelRepresentation": 0,
      "PixelSpacing": [2.0, 2.0],
      "ProtocolName": "func_task-s01e18b",
      "RepetitionTime": 1490.0,
      "Rows": 832,
      "SAR": 0.02890615669135,
      "SamplesPerPixel": 1,
      "ScanOptions": "FS",
      "ScanningSequence": "EP",
      "SequenceName": "epfid2d1_104",
      "SequenceVariant": [
        "SK",
        "SS"
],
      "SeriesDescription": "func_task-s01e18b",
      "SeriesNumber": 37,
      "SeriesTime": "155608.671000",
      "SliceLocation": -53.782618635176,
      "SliceThickness": 2.0,
      "SmallestImagePixelValue": 0,
      "SoftwareVersions": "syngo MR E11",
      "SpacingBetweenSlices": 1.9999999668573,
      "SpecificCharacterSet": "ISO_IR 100",
      "StudyID": "1",
      "StudyTime": "130734.810000",
      "TransmitCoilName": "Body",
      "VariableFlipAngleFlag": "N",
      "WindowCenterWidthExplanation": "Algo1",
      "dBdt": 0.0},
    "slices": {}
  },
  "time": {
    "samples": {
      "AcquisitionNumber": [1, 2, 3, 4, 5, 6, 7, 8, 9, 10, 11, 12, 13, 14, 15, 16, 17, 18, 19, 20, 21, 22, 23, 24, 25, 26, 27, 28, 29, 30, 31, 32, 33, 34, 35, 36, 37, 38, 39, 40, 41, 42, 43, 44, 45, 46, 47, 48, 49, 50, 51, 52, 53, 54, 55, 56, 57, 58, 59, 60, 61, 62, 63, 64, 65, 66, 67, 68, 69, 70, 71, 72, 73, 74, 75, 76, 77, 78, 79, 80, 81, 82, 83, 84, 85, 86, 87, 88, 89, 90, 91, 92, 93, 94, 95, 96, 97, 98, 99, 100, 101, 102, 103, 104, 105, 106, 107, 108, 109, 110, 111, 112, 113, 114, 115, 116, 117, 118, 119, 120, 121, 122, 123, 124, 125, 126, 127, 128, 129, 130, 131, 132, 133, 134, 135, 136, 137, 138, 139, 140, 141, 142, 143, 144, 145, 146, 147, 148, 149, 150, 151, 152, 153, 154, 155, 156, 157, 158, 159, 160, 161, 162, 163, 164, 165, 166, 167, 168, 169, 170, 171, 172, 173, 174, 175, 176, 177, 178, 179, 180, 181, 182, 183, 184, 185, 186, 187, 188, 189, 190, 191, 192, 193, 194, 195, 196, 197, 198, 199, 200, 201, 202, 203, 204, 205, 206, 207, 208, 209, 210, 211, 212, 213, 214, 215, 216, 217, 218, 219, 220, 221, 222, 223, 224, 225, 226, 227, 228, 229, 230, 231, 232, 233, 234, 235, 236, 237, 238, 239, 240, 241, 242, 243, 244, 245, 246, 247, 248, 249, 250, 251, 252, 253, 254, 255, 256, 257, 258, 259, 260, 261, 262, 263, 264, 265, 266, 267, 268, 269, 270, 271, 272, 273, 274, 275, 276, 277, 278, 279, 280, 281, 282, 283, 284, 285, 286, 287, 288, 289, 290, 291, 292, 293, 294, 295, 296, 297, 298, 299, 300, 301, 302, 303, 304, 305, 306, 307, 308, 309, 310, 311, 312, 313, 314, 315, 316, 317, 318, 319, 320, 321, 322, 323, 324, 325, 326, 327, 328, 329, 330, 331, 332, 333, 334, 335, 336, 337, 338, 339, 340, 341, 342, 343, 344, 345, 346, 347, 348, 349, 350, 351, 352, 353, 354, 355, 356, 357, 358, 359, 360, 361, 362, 363, 364, 365, 366, 367, 368, 369, 370, 371, 372, 373, 374, 375, 376, 377, 378, 379, 380, 381, 382, 383, 384, 385, 386, 387, 388, 389, 390, 391, 392, 393, 394, 395, 396, 397, 398, 399, 400, 401, 402, 403, 404, 405, 406, 407, 408, 409, 410, 411, 412, 413, 414, 415, 416, 417, 418, 419, 420, 421, 422, 423, 424, 425, 426, 427, 428, 429, 430, 431, 432, 433, 434, 435, 436, 437, 438, 439, 440, 441, 442, 443, 444, 445, 446, 447, 448, 449, 450, 451, 452, 453, 454, 455, 456, 457, 458, 459, 460, 461, 462, 463, 464, 465, 466, 467, 468, 469, 470, 471, 472, 473, 474, 475, 476, 477, 478, 479, 480, 481, 482, 483, 484, 485, 486, 487, 488, 489, 490, 491, 492, 493, 494, 495, 496, 497],
      "AcquisitionTime": ["155440.217500", "155441.707500", "155443.197500", "155444.687500", "155446.177500", "155447.667500", "155449.157500", "155450.647500", "155452.137500", "155453.627500", "155455.117500", "155456.607500", "155458.097500", "155459.587500", "155501.077500", "155502.567500", "155504.057500", "155505.547500", "155507.037500", "155508.527500", "155510.017500", "155511.507500", "155512.997500", "155514.487500", "155515.977500", "155517.467500", "155518.957500", "155520.447500", "155521.937500", "155523.427500", "155524.917500", "155526.407500", "155527.897500", "155529.387500", "155530.877500", "155532.367500", "155533.857500", "155535.347500", "155536.837500", "155538.327500", "155539.817500", "155541.307500", "155542.797500", "155544.287500", "155545.777500", "155547.267500", "155548.757500", "155550.247500", "155551.737500", "155553.227500", "155554.717500", "155556.207500", "155557.697500", "155559.187500", "155600.677500", "155602.167500", "155603.657500", "155605.147500", "155606.637500", "155608.127500", "155609.617500", "155611.107500", "155612.597500", "155614.087500", "155615.577500", "155617.067500", "155618.557500", "155620.047500", "155621.537500", "155623.027500", "155624.517500", "155626.007500", "155627.497500", "155628.987500", "155630.477500", "155631.967500", "155633.457500", "155634.947500", "155636.437500", "155637.927500", "155639.417500", "155640.907500", "155642.397500", "155643.887500", "155645.377500", "155646.867500", "155648.357500", "155649.847500", "155651.337500", "155652.827500", "155654.317500", "155655.807500", "155657.297500", "155658.787500", "155700.277500", "155701.767500", "155703.257500", "155704.747500", "155706.237500", "155707.727500", "155709.217500", "155710.707500", "155712.197500", "155713.687500", "155715.177500", "155716.667500", "155718.157500", "155719.647500", "155721.137500", "155722.627500", "155724.117500", "155725.607500", "155727.097500", "155728.587500", "155730.077500", "155731.567500", "155733.057500", "155734.547500", "155736.037500", "155737.527500", "155739.017500", "155740.507500", "155741.997500", "155743.487500", "155744.977500", "155746.467500", "155747.957500", "155749.447500", "155750.937500", "155752.427500", "155753.917500", "155755.407500", "155756.897500", "155758.387500", "155759.877500", "155801.367500", "155802.857500", "155804.347500", "155805.837500", "155807.327500", "155808.817500", "155810.307500", "155811.797500", "155813.287500", "155814.777500", "155816.267500", "155817.757500", "155819.247500", "155820.737500", "155822.227500", "155823.717500", "155825.207500", "155826.697500", "155828.187500", "155829.677500", "155831.167500", "155832.657500", "155834.147500", "155835.637500", "155837.127500", "155838.617500", "155840.107500", "155841.597500", "155843.087500", "155844.577500", "155846.067500", "155847.557500", "155849.047500", "155850.537500", "155852.027500", "155853.517500", "155855.007500", "155856.497500", "155857.987500", "155859.477500", "155900.967500", "155902.457500", "155903.947500", "155905.437500", "155906.927500", "155908.417500", "155909.907500", "155911.397500", "155912.887500", "155914.377500", "155915.867500", "155917.357500", "155918.847500", "155920.337500", "155921.827500", "155923.317500", "155924.807500", "155926.297500", "155927.787500", "155929.277500", "155930.767500", "155932.257500", "155933.747500", "155935.237500", "155936.727500", "155938.217500", "155939.707500", "155941.197500", "155942.687500", "155944.177500", "155945.667500", "155947.157500", "155948.647500", "155950.137500", "155951.627500", "155953.117500", "155954.607500", "155956.097500", "155957.587500", "155959.077500", "160000.567500", "160002.057500", "160003.547500", "160005.037500", "160006.527500", "160008.017500", "160009.507500", "160010.997500", "160012.487500", "160013.977500", "160015.467500", "160016.957500", "160018.447500", "160019.937500", "160021.427500", "160022.917500", "160024.407500", "160025.897500", "160027.387500", "160028.877500", "160030.367500", "160031.857500", "160033.347500", "160034.837500", "160036.327500", "160037.817500", "160039.307500", "160040.797500", "160042.287500", "160043.777500", "160045.267500", "160046.757500", "160048.247500", "160049.737500", "160051.227500", "160052.717500", "160054.207500", "160055.697500", "160057.187500", "160058.677500", "160100.167500", "160101.657500", "160103.147500", "160104.637500", "160106.127500", "160107.617500", "160109.107500", "160110.597500", "160112.087500", "160113.577500", "160115.067500", "160116.557500", "160118.047500", "160119.537500", "160121.027500", "160122.517500", "160124.007500", "160125.497500", "160126.987500", "160128.477500", "160129.967500", "160131.457500", "160132.947500", "160134.437500", "160135.927500", "160137.417500", "160138.907500", "160140.397500", "160141.887500", "160143.377500", "160144.867500", "160146.357500", "160147.847500", "160149.337500", "160150.827500", "160152.317500", "160153.807500", "160155.297500", "160156.787500", "160158.277500", "160159.767500", "160201.257500", "160202.747500", "160204.237500", "160205.727500", "160207.217500", "160208.707500", "160210.197500", "160211.687500", "160213.177500", "160214.667500", "160216.157500", "160217.647500", "160219.137500", "160220.627500", "160222.117500", "160223.607500", "160225.097500", "160226.587500", "160228.077500", "160229.567500", "160231.057500", "160232.547500", "160234.037500", "160235.527500", "160237.017500", "160238.507500", "160239.997500", "160241.487500", "160242.977500", "160244.467500", "160245.957500", "160247.447500", "160248.937500", "160250.427500", "160251.917500", "160253.407500", "160254.897500", "160256.387500", "160257.877500", "160259.367500", "160300.857500", "160302.347500", "160303.837500", "160305.327500", "160306.817500", "160308.307500", "160309.797500", "160311.287500", "160312.777500", "160314.267500", "160315.757500", "160317.247500", "160318.737500", "160320.227500", "160321.717500", "160323.207500", "160324.697500", "160326.187500", "160327.677500", "160329.167500", "160330.657500", "160332.147500", "160333.637500", "160335.127500", "160336.617500", "160338.107500", "160339.597500", "160341.087500", "160342.577500", "160344.067500", "160345.557500", "160347.047500", "160348.537500", "160350.027500", "160351.517500", "160353.007500", "160354.497500", "160355.987500", "160357.477500", "160358.967500", "160400.457500", "160401.947500", "160403.437500", "160404.927500", "160406.417500", "160407.907500", "160409.397500", "160410.887500", "160412.377500", "160413.867500", "160415.357500", "160416.847500", "160418.337500", "160419.827500", "160421.317500", "160422.807500", "160424.297500", "160425.787500", "160427.277500", "160428.767500", "160430.257500", "160431.747500", "160433.237500", "160434.727500", "160436.217500", "160437.707500", "160439.197500", "160440.687500", "160442.177500", "160443.667500", "160445.157500", "160446.647500", "160448.137500", "160449.627500", "160451.117500", "160452.607500", "160454.097500", "160455.587500", "160457.077500", "160458.567500", "160500.057500", "160501.547500", "160503.037500", "160504.527500", "160506.017500", "160507.507500", "160508.997500", "160510.487500", "160511.977500", "160513.467500", "160514.957500", "160516.447500", "160517.937500", "160519.427500", "160520.917500", "160522.407500", "160523.897500", "160525.387500", "160526.877500", "160528.367500", "160529.857500", "160531.347500", "160532.837500", "160534.327500", "160535.817500", "160537.307500", "160538.797500", "160540.287500", "160541.777500", "160543.267500", "160544.757500", "160546.247500", "160547.737500", "160549.227500", "160550.717500", "160552.207500", "160553.697500", "160555.187500", "160556.677500", "160558.167500", "160559.657500", "160601.147500", "160602.637500", "160604.127500", "160605.617500", "160607.107500", "160608.597500", "160610.087500", "160611.577500", "160613.067500", "160614.557500", "160616.047500", "160617.537500", "160619.027500", "160620.517500", "160622.007500", "160623.497500", "160624.987500", "160626.477500", "160627.967500", "160629.457500", "160630.947500", "160632.437500", "160633.927500", "160635.417500", "160636.907500", "160638.397500", "160639.887500", "160641.377500", "160642.867500", "160644.357500", "160645.847500", "160647.337500", "160648.827500", "160650.317500", "160651.807500", "160653.297500", "160654.787500", "160656.277500", "160657.767500", "160659.257500"],
      "ContentTime": ["155608.674000", "155608.678000", "155608.686000", "155608.688000", "155608.691000", "155608.694000", "155608.697000", "155608.700000", "155608.703000", "155608.705000", "155608.708000", "155608.711000", "155608.714000", "155608.717000", "155608.720000", "155608.723000", "155608.725000", "155608.728000", "155608.731000", "155608.734000", "155608.737000", "155608.740000", "155608.742000", "155608.745000", "155608.748000", "155608.751000", "155608.754000", "155608.757000", "155608.759000", "155608.764000", "155608.767000", "155608.769000", "155608.772000", "155608.775000", "155608.778000", "155608.783000", "155628.619000", "155628.622000", "155628.625000", "155628.628000", "155628.630000", "155628.633000", "155628.636000", "155628.639000", "155628.642000", "155628.645000", "155628.648000", "155628.650000", "155628.666000", "155628.669000", "155628.672000", "155628.675000", "155628.678000", "155628.680000", "155628.683000", "155628.686000", "155648.618000", "155648.622000", "155648.625000", "155648.628000", "155648.631000", "155648.633000", "155648.636000", "155648.639000", "155648.642000", "155648.645000", "155648.648000", "155648.651000", "155648.653000", "155648.656000", "155648.659000", "155648.662000", "155648.665000", "155648.667000", "155648.670000", "155648.673000", "155708.618000", "155708.621000", "155708.624000", "155708.627000", "155708.630000", "155708.632000", "155708.635000", "155708.638000", "155708.641000", "155708.644000", "155708.647000", "155708.649000", "155708.652000", "155708.655000", "155708.658000", "155708.661000", "155708.664000", "155708.666000", "155708.669000", "155708.672000", "155708.675000", "155748.618000", "155748.621000", "155748.624000", "155748.627000", "155748.629000", "155748.632000", "155748.635000", "155748.638000", "155748.641000", "155748.644000", "155748.646000", "155748.649000", "155748.652000", "155748.656000", "155748.659000", "155748.662000", "155748.665000", "155748.668000", "155748.670000", "155748.673000", "155748.676000", "155748.679000", "155748.682000", "155748.685000", "155748.688000", "155748.690000", "155748.693000", "155748.696000", "155828.618000", "155828.621000", "155828.624000", "155828.626000", "155828.629000", "155828.633000", "155828.636000", "155828.639000", "155828.642000", "155828.645000", "155828.648000", "155828.650000", "155828.653000", "155828.656000", "155828.659000", "155828.662000", "155828.665000", "155828.667000", "155828.670000", "155828.673000", "155828.676000", "155828.679000", "155828.682000", "155828.685000", "155828.687000", "155828.690000", "155828.693000", "155908.618000", "155908.621000", "155908.624000", "155908.627000", "155908.630000", "155908.632000", "155908.635000", "155908.638000", "155908.641000", "155908.644000", "155908.647000", "155908.650000", "155908.652000", "155908.655000", "155908.658000", "155908.661000", "155908.664000", "155908.667000", "155908.670000", "155908.672000", "155908.675000", "155908.678000", "155908.681000", "155908.684000", "155908.687000", "155908.690000", "155908.693000", "155928.618000", "155928.623000", "155928.625000", "155928.629000", "155928.632000", "155928.634000", "155928.637000", "155928.640000", "155928.643000", "155928.646000", "155928.649000", "155928.652000", "155928.654000", "160008.618000", "160008.621000", "160008.624000", "160008.635000", "160008.638000", "160008.641000", "160008.644000", "160008.647000", "160008.650000", "160008.653000", "160008.655000", "160008.658000", "160008.661000", "160008.664000", "160008.667000", "160008.670000", "160008.673000", "160008.676000", "160008.678000", "160008.681000", "160008.684000", "160008.687000", "160008.690000", "160008.693000", "160008.696000", "160008.698000", "160008.701000", "160048.619000", "160048.622000", "160048.625000", "160048.628000", "160048.630000", "160048.633000", "160048.636000", "160048.639000", "160048.642000", "160048.645000", "160048.648000", "160048.650000", "160048.653000", "160048.656000", "160048.659000", "160048.662000", "160048.665000", "160048.668000", "160048.671000", "160048.673000", "160048.676000", "160048.679000", "160048.682000", "160048.685000", "160048.688000", "160048.691000", "160048.693000", "160128.618000", "160128.621000", "160128.624000", "160128.627000", "160128.630000", "160128.633000", "160128.635000", "160128.638000", "160128.641000", "160128.644000", "160128.647000", "160128.650000", "160128.653000", "160128.656000", "160128.659000", "160128.661000", "160128.664000", "160128.667000", "160128.670000", "160128.673000", "160128.676000", "160128.679000", "160128.681000", "160128.684000", "160128.687000", "160128.690000", "160128.693000", "160208.618000", "160208.621000", "160208.624000", "160208.627000", "160208.630000", "160208.632000", "160208.635000", "160208.638000", "160208.641000", "160208.644000", "160208.647000", "160208.650000", "160208.652000", "160208.655000", "160208.658000", "160208.661000", "160208.664000", "160208.667000", "160208.669000", "160208.672000", "160208.675000", "160208.678000", "160208.681000", "160208.684000", "160208.687000", "160208.689000", "160208.692000", "160248.618000", "160248.621000", "160248.624000", "160248.627000", "160248.629000", "160248.632000", "160248.635000", "160248.638000", "160248.641000", "160248.644000", "160248.646000", "160248.649000", "160248.652000", "160248.655000", "160248.658000", "160248.661000", "160248.664000", "160248.666000", "160248.669000", "160248.672000", "160248.675000", "160248.678000", "160248.680000", "160248.683000", "160248.686000", "160248.689000", "160248.692000", "160328.619000", "160328.622000", "160328.625000", "160328.628000", "160328.631000", "160328.633000", "160328.636000", "160328.639000", "160328.642000", "160328.645000", "160328.648000", "160328.650000", "160328.653000", "160328.656000", "160328.659000", "160328.662000", "160328.665000", "160328.668000", "160328.670000", "160328.673000", "160328.676000", "160328.679000", "160328.682000", "160328.684000", "160328.687000", "160328.690000", "160328.693000", "160408.618000", "160408.621000", "160408.624000", "160408.627000", "160408.629000", "160408.632000", "160408.635000", "160408.638000", "160408.641000", "160408.644000", "160408.647000", "160408.650000", "160408.653000", "160408.656000", "160408.658000", "160408.661000", "160408.664000", "160408.667000", "160408.670000", "160408.673000", "160408.676000", "160408.678000", "160408.681000", "160408.684000", "160408.698000", "160408.701000", "160448.618000", "160448.621000", "160448.624000", "160448.627000", "160448.630000", "160448.632000", "160448.635000", "160448.638000", "160448.641000", "160448.644000", "160448.647000", "160448.650000", "160448.653000", "160448.656000", "160448.658000", "160448.661000", "160448.664000", "160448.673000", "160448.676000", "160448.678000", "160448.681000", "160448.684000", "160448.687000", "160448.690000", "160448.693000", "160448.696000", "160448.698000", "160528.619000", "160528.622000", "160528.625000", "160528.628000", "160528.631000", "160528.634000", "160528.637000", "160528.640000", "160528.642000", "160528.645000", "160528.648000", "160528.651000", "160528.654000", "160528.657000", "160528.660000", "160528.662000", "160528.665000", "160528.668000", "160528.671000", "160528.674000", "160528.677000", "160528.679000", "160528.682000", "160528.685000", "160528.688000", "160528.691000", "160528.694000", "160608.618000", "160608.621000", "160608.624000", "160608.627000", "160608.629000", "160608.632000", "160608.635000", "160608.638000", "160608.641000", "160608.644000", "160608.647000", "160608.650000", "160608.652000", "160608.655000", "160608.658000", "160608.661000", "160608.664000", "160608.667000", "160608.670000", "160608.672000", "160608.675000", "160608.678000", "160608.681000", "160608.684000", "160608.687000", "160608.690000", "160608.692000", "160648.618000", "160648.621000", "160648.624000", "160648.627000", "160648.630000", "160648.633000", "160648.635000", "160648.638000", "160648.641000", "160648.644000", "160648.647000", "160648.650000", "160648.653000", "160648.656000", "160648.658000", "160648.661000", "160648.664000", "160648.667000", "160648.670000", "160648.672000", "160648.675000", "160648.678000", "160648.681000", "160648.684000", "160648.687000", "160648.690000", "160648.693000", "160701.648000", "160701.651000", "160701.654000", "160701.657000", "160701.660000", "160701.662000", "160701.665000", "160701.668000", "160701.671000"],
