{
  "AcquisitionMatrixPE": 104,
  "AcquisitionNumber": 1,
  "AcquisitionTime": "15:02:28.627500",
  "BandwidthPerPixelPhaseEncode": 17.17,
  "BaseResolution": 104,
  "BodyPartExamined": "BRAIN",
  "CoilString": "HC1-7;NC1_2",
  "ConsistencyInfo": "N4_VE11C_LATEST_20160120",
  "ConversionSoftware": "dcm2niix",
  "ConversionSoftwareVersion": "v1.0.20190720  (JP2:OpenJPEG) GCC7.3.0",
  "DerivedVendorReportedEchoSpacing": 0.000560011,
  "DeviceSerialNumber": "167006",
  "DwellTime": 2.1e-06,
  "EchoTime": 0.037,
  "EchoTrainLength": 104,
  "EffectiveEchoSpacing": 0.000560011,
  "FlipAngle": 52,
  "ImageComments": "Unaliased_MB4_PE3_LB",
  "ImageOrientationPatientDICOM": [0.99847, -0.0487714, 0.0260704, 0.0551239, 0.915533, -0.398449],
  "ImageType": [
    "ORIGINAL",
    "PRIMARY",
    "M",
    "MB",
    "ND",
    "MOSAIC"
],
  "ImagingFrequency": 123.259,
  "InPlanePhaseEncodingDirectionDICOM": "COL",
  "InstitutionAddress": "Chemin_Queen-Mary_4565_Montreal_District_CA_H3W_1W5",
  "InstitutionName": "IUGM",
  "InstitutionalDepartmentName": "Department",
  "MRAcquisitionType": "2D",
  "MagneticFieldStrength": 3,
  "Manufacturer": "Siemens",
  "ManufacturersModelName": "Prisma_fit",
  "Modality": "MR",
  "MultibandAccelerationFactor": 4,
  "PartialFourier": 1,
  "PatientPosition": "HFS",
  "PercentPhaseFOV": 100,
  "PhaseEncodingDirection": "j",
  "PhaseEncodingSteps": 104,
  "PhaseResolution": 1,
  "PixelBandwidth": 2290,
  "ProcedureStepDescription": "video_friends",
  "ProtocolName": "func_task-friends-s01e16b",
  "PulseSequenceDetails": "%CustomerSeq%_cmrr_mbep2d_bold",
  "ReceiveCoilActiveElements": "HC1-7;NC1,2",
  "ReceiveCoilName": "HeadNeck_64",
  "ReconMatrixPE": 104,
  "RepetitionTime": 1.49,
  "SAR": 0.0289028,
  "ScanOptions": "FS",
  "ScanningSequence": "EP",
  "SequenceName": "epfid2d1_104",
  "SequenceVariant": "SK_SS",
  "SeriesDescription": "func_task-friends-s01e16b",
  "SeriesNumber": 29,
  "ShimSetting": [637, -7250, -8893, 589, 55, -277, -139, -1],
  "SliceThickness": 2,
  "SliceTiming": [0, 0.7825, 0.0975, 0.8825, 0.195, 0.98, 0.2925, 1.0775, 0.3925, 1.175, 0.49, 1.2725, 0.5875, 1.3725, 0.685, 0, 0.7825, 0.0975, 0.8825, 0.195, 0.98, 0.2925, 1.0775, 0.3925, 1.175, 0.49, 1.2725, 0.5875, 1.3725, 0.685, 0, 0.7825, 0.0975, 0.8825, 0.195, 0.98, 0.2925, 1.0775, 0.3925, 1.175, 0.49, 1.2725, 0.5875, 1.3725, 0.685, 0, 0.7825, 0.0975, 0.8825, 0.195, 0.98, 0.2925, 1.0775, 0.3925, 1.175, 0.49, 1.2725, 0.5875, 1.3725, 0.685],
  "SoftwareVersions": "syngo_MR_E11",
  "SpacingBetweenSlices": 2,
  "StationName": "MRC35049",
  "TaskName": "friends",
  "TotalReadoutTime": 0.0576811,
  "TxRefAmp": 226.697,
  "WipMemBlock": "80ae2c7a-9d01-4fc7-b5a3-aecacd937105||Sequence: R016 ve11c/master r/e634e98; Dec 19 2017 11:00:25 by eja",
  "dcmmeta_affine": [
    [-1.9969393014907837, 0.11024785786867142, 0.008870836347341537, 96.38423919677734],
    [0.09754286706447601, 1.8310651779174805, -0.798552393913269, -73.9113540649414],
    [0.05214088782668114, 0.7968977093696594, 1.8336398601531982, -91.31690979003906],
    [0.0, 0.0, 0.0, 1.0]
],
  "dcmmeta_reorient_transform": [
    [0.0, -1.0, 0.0, 103.0],
    [1.0, 0.0, 0.0, 0.0],
    [0.0, 0.0, 1.0, 0.0],
    [0.0, 0.0, 0.0, 1.0]
],
  "dcmmeta_shape": [104, 104, 60, 483],
  "dcmmeta_slice_dim": 2,
  "dcmmeta_version": 0.6,
  "global": {
    "const": {
      "AcquisitionMatrix": [104, 0, 0, 104],
      "AngioFlag": "N",
      "BitsAllocated": 16,
      "BitsStored": 16,
      "BodyPartExamined": "BRAIN",
      "Columns": 832,
      "EchoNumbers": 1,
      "EchoTime": 37.0,
      "EchoTrainLength": 104,
      "FlipAngle": 52.0,
      "HighBit": 15,
      "ImageOrientationPatient": [0.99846966870296, -0.0487714330174, 0.02607044306542, 0.05512393078712, 0.91553256000167, -0.3984488471954],
      "ImagePositionPatient": [-874.75590804372, -745.69045418415, 261.85502989852],
      "ImageType": [
        "ORIGINAL",
        "PRIMARY",
        "M",
        "MB",
        "ND",
        "MOSAIC"
],
      "ImagedNucleus": "1H",
      "ImagingFrequency": 123.259163,
      "InPlanePhaseEncodingDirection": "COL",
      "MRAcquisitionType": "2D",
      "MagneticFieldStrength": 3.0,
      "Manufacturer": "SIEMENS",
      "ManufacturerModelName": "Prisma_fit",
      "Modality": "MR",
      "NumberOfAverages": 1.0,
      "NumberOfPhaseEncodingSteps": 104,
      "PercentPhaseFieldOfView": 100.0,
      "PercentSampling": 100.0,
      "PerformedProcedureStepStartTime": "130734.901000",
      "PhotometricInterpretation": "MONOCHROME2",
      "PixelBandwidth": 2290.0,
      "PixelRepresentation": 0,
      "PixelSpacing": [2.0, 2.0],
      "ProtocolName": "func_task-friends-s01e16b",
      "RepetitionTime": 1490.0,
      "Rows": 832,
      "SAR": 0.02890282223237,
      "SamplesPerPixel": 1,
      "ScanOptions": "FS",
      "ScanningSequence": "EP",
      "SequenceName": "epfid2d1_104",
      "SequenceVariant": [
        "SK",
        "SS"
],
      "SeriesDescription": "func_task-friends-s01e16b",
      "SeriesNumber": 29,
      "SeriesTime": "150348.724000",
      "SliceLocation": -53.782618635176,
      "SliceThickness": 2.0,
      "SmallestImagePixelValue": 0,
      "SoftwareVersions": "syngo MR E11",
      "SpacingBetweenSlices": 1.9999999668573,
      "SpecificCharacterSet": "ISO_IR 100",
      "StudyID": "1",
      "StudyTime": "130734.810000",
      "TransmitCoilName": "Body",
      "VariableFlipAngleFlag": "N",
      "WindowCenterWidthExplanation": "Algo1",
      "dBdt": 0.0},
    "slices": {}
  },
  "time": {
    "samples": {
      "AcquisitionNumber": [1, 2, 3, 4, 5, 6, 7, 8, 9, 10, 11, 12, 13, 14, 15, 16, 17, 18, 19, 20, 21, 22, 23, 24, 25, 26, 27, 28, 29, 30, 31, 32, 33, 34, 35, 36, 37, 38, 39, 40, 41, 42, 43, 44, 45, 46, 47, 48, 49, 50, 51, 52, 53, 54, 55, 56, 57, 58, 59, 60, 61, 62, 63, 64, 65, 66, 67, 68, 69, 70, 71, 72, 73, 74, 75, 76, 77, 78, 79, 80, 81, 82, 83, 84, 85, 86, 87, 88, 89, 90, 91, 92, 93, 94, 95, 96, 97, 98, 99, 100, 101, 102, 103, 104, 105, 106, 107, 108, 109, 110, 111, 112, 113, 114, 115, 116, 117, 118, 119, 120, 121, 122, 123, 124, 125, 126, 127, 128, 129, 130, 131, 132, 133, 134, 135, 136, 137, 138, 139, 140, 141, 142, 143, 144, 145, 146, 147, 148, 149, 150, 151, 152, 153, 154, 155, 156, 157, 158, 159, 160, 161, 162, 163, 164, 165, 166, 167, 168, 169, 170, 171, 172, 173, 174, 175, 176, 177, 178, 179, 180, 181, 182, 183, 184, 185, 186, 187, 188, 189, 190, 191, 192, 193, 194, 195, 196, 197, 198, 199, 200, 201, 202, 203, 204, 205, 206, 207, 208, 209, 210, 211, 212, 213, 214, 215, 216, 217, 218, 219, 220, 221, 222, 223, 224, 225, 226, 227, 228, 229, 230, 231, 232, 233, 234, 235, 236, 237, 238, 239, 240, 241, 242, 243, 244, 245, 246, 247, 248, 249, 250, 251, 252, 253, 254, 255, 256, 257, 258, 259, 260, 261, 262, 263, 264, 265, 266, 267, 268, 269, 270, 271, 272, 273, 274, 275, 276, 277, 278, 279, 280, 281, 282, 283, 284, 285, 286, 287, 288, 289, 290, 291, 292, 293, 294, 295, 296, 297, 298, 299, 300, 301, 302, 303, 304, 305, 306, 307, 308, 309, 310, 311, 312, 313, 314, 315, 316, 317, 318, 319, 320, 321, 322, 323, 324, 325, 326, 327, 328, 329, 330, 331, 332, 333, 334, 335, 336, 337, 338, 339, 340, 341, 342, 343, 344, 345, 346, 347, 348, 349, 350, 351, 352, 353, 354, 355, 356, 357, 358, 359, 360, 361, 362, 363, 364, 365, 366, 367, 368, 369, 370, 371, 372, 373, 374, 375, 376, 377, 378, 379, 380, 381, 382, 383, 384, 385, 386, 387, 388, 389, 390, 391, 392, 393, 394, 395, 396, 397, 398, 399, 400, 401, 402, 403, 404, 405, 406, 407, 408, 409, 410, 411, 412, 413, 414, 415, 416, 417, 418, 419, 420, 421, 422, 423, 424, 425, 426, 427, 428, 429, 430, 431, 432, 433, 434, 435, 436, 437, 438, 439, 440, 441, 442, 443, 444, 445, 446, 447, 448, 449, 450, 451, 452, 453, 454, 455, 456, 457, 458, 459, 460, 461, 462, 463, 464, 465, 466, 467, 468, 469, 470, 471, 472, 473, 474, 475, 476, 477, 478, 479, 480, 481, 482, 483],
      "AcquisitionTime": ["150228.627500", "150230.117500", "150231.607500", "150233.097500", "150234.587500", "150236.077500", "150237.567500", "150239.057500", "150240.547500", "150242.037500", "150243.527500", "150245.017500", "150246.507500", "150247.997500", "150249.487500", "150250.977500", "150252.467500", "150253.957500", "150255.447500", "150256.937500", "150258.427500", "150259.917500", "150301.407500", "150302.897500", "150304.387500", "150305.877500", "150307.367500", "150308.857500", "150310.347500", "150311.837500", "150313.327500", "150314.817500", "150316.307500", "150317.797500", "150319.287500", "150320.777500", "150322.267500", "150323.757500", "150325.247500", "150326.737500", "150328.227500", "150329.717500", "150331.207500", "150332.697500", "150334.187500", "150335.677500", "150337.167500", "150338.657500", "150340.147500", "150341.637500", "150343.127500", "150344.617500", "150346.107500", "150347.597500", "150349.087500", "150350.577500", "150352.067500", "150353.557500", "150355.047500", "150356.537500", "150358.027500", "150359.517500", "150401.007500", "150402.497500", "150403.987500", "150405.477500", "150406.967500", "150408.457500", "150409.947500", "150411.437500", "150412.927500", "150414.417500", "150415.907500", "150417.397500", "150418.887500", "150420.377500", "150421.867500", "150423.357500", "150424.847500", "150426.337500", "150427.827500", "150429.317500", "150430.807500", "150432.297500", "150433.787500", "150435.277500", "150436.767500", "150438.257500", "150439.747500", "150441.237500", "150442.727500", "150444.217500", "150445.707500", "150447.197500", "150448.687500", "150450.177500", "150451.667500", "150453.157500", "150454.647500", "150456.137500", "150457.627500", "150459.117500", "150500.607500", "150502.097500", "150503.587500", "150505.077500", "150506.567500", "150508.057500", "150509.547500", "150511.037500", "150512.527500", "150514.017500", "150515.507500", "150516.997500", "150518.487500", "150519.977500", "150521.467500", "150522.957500", "150524.447500", "150525.937500", "150527.427500", "150528.917500", "150530.407500", "150531.897500", "150533.387500", "150534.877500", "150536.367500", "150537.857500", "150539.347500", "150540.837500", "150542.327500", "150543.817500", "150545.307500", "150546.797500", "150548.287500", "150549.777500", "150551.267500", "150552.757500", "150554.247500", "150555.737500", "150557.227500", "150558.717500", "150600.207500", "150601.697500", "150603.187500", "150604.677500", "150606.167500", "150607.657500", "150609.147500", "150610.637500", "150612.127500", "150613.617500", "150615.107500", "150616.597500", "150618.087500", "150619.577500", "150621.067500", "150622.557500", "150624.047500", "150625.537500", "150627.027500", "150628.517500", "150630.007500", "150631.497500", "150632.987500", "150634.477500", "150635.967500", "150637.457500", "150638.947500", "150640.437500", "150641.927500", "150643.417500", "150644.907500", "150646.397500", "150647.887500", "150649.377500", "150650.867500", "150652.357500", "150653.847500", "150655.337500", "150656.827500", "150658.317500", "150659.807500", "150701.297500", "150702.787500", "150704.277500", "150705.767500", "150707.257500", "150708.747500", "150710.237500", "150711.727500", "150713.217500", "150714.707500", "150716.197500", "150717.687500", "150719.177500", "150720.667500", "150722.157500", "150723.647500", "150725.137500", "150726.627500", "150728.117500", "150729.607500", "150731.097500", "150732.587500", "150734.077500", "150735.567500", "150737.057500", "150738.547500", "150740.037500", "150741.527500", "150743.017500", "150744.507500", "150745.997500", "150747.487500", "150748.977500", "150750.467500", "150751.957500", "150753.447500", "150754.937500", "150756.427500", "150757.917500", "150759.407500", "150800.897500", "150802.387500", "150803.877500", "150805.367500", "150806.857500", "150808.347500", "150809.837500", "150811.327500", "150812.817500", "150814.307500", "150815.797500", "150817.287500", "150818.777500", "150820.267500", "150821.757500", "150823.247500", "150824.737500", "150826.227500", "150827.717500", "150829.207500", "150830.697500", "150832.187500", "150833.677500", "150835.167500", "150836.657500", "150838.147500", "150839.637500", "150841.127500", "150842.617500", "150844.107500", "150845.597500", "150847.087500", "150848.577500", "150850.067500", "150851.557500", "150853.047500", "150854.537500", "150856.027500", "150857.517500", "150859.007500", "150900.497500", "150901.987500", "150903.477500", "150904.967500", "150906.457500", "150907.947500", "150909.437500", "150910.927500", "150912.417500", "150913.907500", "150915.397500", "150916.887500", "150918.377500", "150919.867500", "150921.357500", "150922.847500", "150924.337500", "150925.827500", "150927.317500", "150928.807500", "150930.297500", "150931.787500", "150933.277500", "150934.767500", "150936.257500", "150937.747500", "150939.237500", "150940.727500", "150942.217500", "150943.707500", "150945.197500", "150946.687500", "150948.177500", "150949.667500", "150951.157500", "150952.647500", "150954.137500", "150955.627500", "150957.117500", "150958.607500", "151000.097500", "151001.587500", "151003.077500", "151004.567500", "151006.057500", "151007.547500", "151009.037500", "151010.527500", "151012.017500", "151013.507500", "151014.997500", "151016.487500", "151017.977500", "151019.467500", "151020.957500", "151022.447500", "151023.937500", "151025.427500", "151026.917500", "151028.407500", "151029.897500", "151031.387500", "151032.877500", "151034.367500", "151035.857500", "151037.347500", "151038.837500", "151040.327500", "151041.817500", "151043.307500", "151044.797500", "151046.287500", "151047.777500", "151049.267500", "151050.757500", "151052.247500", "151053.737500", "151055.227500", "151056.717500", "151058.207500", "151059.697500", "151101.187500", "151102.677500", "151104.167500", "151105.657500", "151107.147500", "151108.637500", "151110.127500", "151111.617500", "151113.107500", "151114.597500", "151116.087500", "151117.577500", "151119.067500", "151120.557500", "151122.047500", "151123.537500", "151125.027500", "151126.517500", "151128.007500", "151129.497500", "151130.987500", "151132.477500", "151133.967500", "151135.457500", "151136.947500", "151138.437500", "151139.927500", "151141.417500", "151142.907500", "151144.397500", "151145.887500", "151147.377500", "151148.867500", "151150.357500", "151151.847500", "151153.337500", "151154.827500", "151156.317500", "151157.807500", "151159.297500", "151200.787500", "151202.277500", "151203.767500", "151205.257500", "151206.747500", "151208.237500", "151209.727500", "151211.217500", "151212.707500", "151214.197500", "151215.687500", "151217.177500", "151218.667500", "151220.157500", "151221.647500", "151223.137500", "151224.627500", "151226.117500", "151227.607500", "151229.097500", "151230.587500", "151232.077500", "151233.567500", "151235.057500", "151236.547500", "151238.037500", "151239.527500", "151241.017500", "151242.507500", "151243.997500", "151245.487500", "151246.977500", "151248.467500", "151249.957500", "151251.447500", "151252.937500", "151254.427500", "151255.917500", "151257.407500", "151258.897500", "151300.387500", "151301.877500", "151303.367500", "151304.857500", "151306.347500", "151307.837500", "151309.327500", "151310.817500", "151312.307500", "151313.797500", "151315.287500", "151316.777500", "151318.267500", "151319.757500", "151321.247500", "151322.737500", "151324.227500", "151325.717500", "151327.207500", "151328.697500", "151330.187500", "151331.677500", "151333.167500", "151334.657500", "151336.147500", "151337.637500", "151339.127500", "151340.617500", "151342.107500", "151343.597500", "151345.087500", "151346.577500", "151348.067500", "151349.557500", "151351.047500", "151352.537500", "151354.027500", "151355.517500", "151357.007500", "151358.497500", "151359.987500", "151401.477500", "151402.967500", "151404.457500", "151405.947500", "151407.437500", "151408.927500", "151410.417500", "151411.907500", "151413.397500", "151414.887500", "151416.377500", "151417.867500", "151419.357500", "151420.847500", "151422.337500", "151423.827500", "151425.317500", "151426.807500"],
      "ContentTime": ["150348.726000", "150348.730000", "150348.733000", "150348.745000", "150348.748000", "150348.751000", "150348.753000", "150348.756000", "150348.759000", "150348.762000", "150348.765000", "150348.768000", "150348.771000", "150348.773000", "150348.776000", "150348.779000", "150348.782000", "150348.785000", "150348.788000", "150348.797000", "150348.800000", "150348.803000", "150348.806000", "150348.809000", "150348.811000", "150348.814000", "150408.688000", "150408.691000", "150408.694000", "150408.697000", "150408.700000", "150408.703000", "150408.705000", "150408.708000", "150408.711000", "150408.714000", "150408.717000", "150408.720000", "150408.723000", "150408.725000", "150408.738000", "150408.741000", "150408.744000", "150408.747000", "150408.749000", "150408.752000", "150428.688000", "150428.691000", "150428.694000", "150428.697000", "150428.699000", "150428.702000", "150428.705000", "150428.708000", "150428.711000", "150428.714000", "150428.716000", "150428.719000", "150428.722000", "150428.725000", "150428.728000", "150428.730000", "150428.733000", "150428.736000", "150428.750000", "150428.753000", "150428.756000", "150448.688000", "150448.691000", "150448.694000", "150448.697000", "150448.699000", "150448.702000", "150448.705000", "150448.708000", "150448.711000", "150448.713000", "150448.716000", "150448.719000", "150448.722000", "150448.725000", "150448.728000", "150448.731000", "150448.733000", "150448.736000", "150448.739000", "150448.742000", "150528.689000", "150528.692000", "150528.695000", "150528.698000", "150528.701000", "150528.703000", "150528.706000", "150528.709000", "150528.712000", "150528.715000", "150528.718000", "150528.720000", "150528.723000", "150528.726000", "150528.729000", "150528.732000", "150528.735000", "150528.738000", "150528.741000", "150528.743000", "150528.746000", "150528.749000", "150528.752000", "150528.755000", "150528.758000", "150528.760000", "150528.763000", "150528.766000", "150528.769000", "150528.772000", "150528.775000", "150528.778000", "150528.781000", "150608.688000", "150608.691000", "150608.694000", "150608.697000", "150608.699000", "150608.702000", "150608.705000", "150608.708000", "150608.711000", "150608.714000", "150608.717000", "150608.720000", "150608.723000", "150608.726000", "150608.729000", "150608.731000", "150608.734000", "150608.737000", "150608.740000", "150608.743000", "150608.746000", "150608.748000", "150608.751000", "150608.754000", "150608.757000", "150608.760000", "150608.763000", "150648.688000", "150648.691000", "150648.694000", "150648.703000", "150648.706000", "150648.709000", "150648.712000", "150648.715000", "150648.718000", "150648.720000", "150648.723000", "150648.726000", "150648.729000", "150648.732000", "150648.735000", "150648.738000", "150648.741000", "150648.743000", "150648.746000", "150648.749000", "150648.752000", "150648.755000", "150648.758000", "150648.761000", "150648.763000", "150648.766000", "150648.769000", "150728.688000", "150728.691000", "150728.694000", "150728.697000", "150728.700000", "150728.702000", "150728.705000", "150728.708000", "150728.711000", "150728.714000", "150728.717000", "150728.720000", "150728.723000", "150728.726000", "150728.729000", "150728.731000", "150728.734000", "150728.737000", "150728.740000", "150728.743000", "150728.746000", "150728.749000", "150728.752000", "150728.754000", "150728.757000", "150728.760000", "150808.688000", "150808.691000", "150808.694000", "150808.697000", "150808.700000", "150808.702000", "150808.705000", "150808.708000", "150808.711000", "150808.714000", "150808.717000", "150808.719000", "150808.722000", "150808.725000", "150808.728000", "150808.731000", "150808.734000", "150808.737000", "150808.739000", "150808.742000", "150808.745000", "150808.748000", "150808.751000", "150808.754000", "150808.757000", "150808.760000", "150808.763000", "150848.688000", "150848.691000", "150848.694000", "150848.697000", "150848.700000", "150848.703000", "150848.705000", "150848.708000", "150848.711000", "150848.714000", "150848.717000", "150848.720000", "150848.723000", "150848.725000", "150848.728000", "150848.731000", "150848.734000", "150848.737000", "150848.740000", "150848.742000", "150848.745000", "150848.748000", "150848.751000", "150848.754000", "150848.757000", "150848.760000", "150848.763000", "150928.688000", "150928.691000", "150928.694000", "150928.697000", "150928.700000", "150928.703000", "150928.723000", "150928.726000", "150928.729000", "150928.732000", "150928.734000", "150928.737000", "150928.740000", "150928.743000", "150928.746000", "150928.749000", "150928.752000", "150928.754000", "150928.757000", "150928.760000", "150928.763000", "150928.766000", "150928.769000", "150928.772000", "150928.774000", "150928.777000", "150928.780000", "150948.688000", "150948.691000", "150948.694000", "150948.697000", "150948.699000", "150948.702000", "150948.705000", "150948.708000", "150948.712000", "150948.715000", "150948.718000", "150948.721000", "150948.724000", "151028.688000", "151028.691000", "151028.694000", "151028.697000", "151028.700000", "151028.703000", "151028.706000", "151028.708000", "151028.711000", "151028.714000", "151028.717000", "151028.720000", "151028.723000", "151028.726000", "151028.728000", "151028.731000", "151028.734000", "151028.737000", "151028.740000", "151028.743000", "151028.745000", "151028.748000", "151028.751000", "151028.754000", "151028.757000", "151028.760000", "151028.762000", "151108.688000", "151108.691000", "151108.694000", "151108.697000", "151108.700000", "151108.702000", "151108.705000", "151108.708000", "151108.711000", "151108.714000", "151108.717000", "151108.720000", "151108.722000", "151108.725000", "151108.728000", "151108.731000", "151108.734000", "151108.737000", "151108.740000", "151108.743000", "151108.746000", "151108.749000", "151108.752000", "151108.755000", "151108.757000", "151108.760000", "151108.763000", "151148.688000", "151148.691000", "151148.694000", "151148.697000", "151148.700000", "151148.703000", "151148.705000", "151148.708000", "151148.711000", "151148.714000", "151148.717000", "151148.719000", "151148.722000", "151148.725000", "151148.728000", "151148.731000", "151148.734000", "151148.737000", "151148.740000", "151148.742000", "151148.745000", "151148.748000", "151148.751000", "151148.754000", "151148.757000", "151148.759000", "151148.762000", "151228.689000", "151228.692000", "151228.695000", "151228.698000", "151228.701000", "151228.704000", "151228.706000", "151228.709000", "151228.712000", "151228.715000", "151228.718000", "151228.721000", "151228.723000", "151228.726000", "151228.729000", "151228.732000", "151228.735000", "151228.738000", "151228.741000", "151228.744000", "151228.746000", "151228.749000", "151228.752000", "151228.755000", "151228.758000", "151228.761000", "151228.768000", "151308.688000", "151308.691000", "151308.694000", "151308.697000", "151308.700000", "151308.703000", "151308.705000", "151308.708000", "151308.711000", "151308.714000", "151308.717000", "151308.720000", "151308.723000", "151308.725000", "151308.728000", "151308.731000", "151308.734000", "151308.737000", "151308.740000", "151308.742000", "151308.745000", "151308.748000", "151308.751000", "151308.754000", "151308.757000", "151308.759000", "151308.762000", "151348.688000", "151348.691000", "151348.704000", "151348.707000", "151348.710000", "151348.713000", "151348.716000", "151348.719000", "151348.722000", "151348.725000", "151348.728000", "151348.732000", "151348.734000", "151348.737000", "151348.740000", "151348.743000", "151348.746000", "151348.749000", "151348.752000", "151348.755000", "151348.758000", "151348.761000", "151348.763000", "151348.766000", "151348.769000", "151348.772000", "151428.689000", "151428.692000", "151428.695000", "151428.698000", "151428.701000", "151428.704000", "151428.707000", "151428.710000", "151428.712000", "151428.715000", "151428.718000", "151428.721000", "151428.724000", "151428.727000", "151428.729000", "151428.732000", "151428.735000", "151428.738000", "151428.741000", "151428.744000", "151428.747000", "151428.750000", "151428.752000", "151428.755000", "151428.758000", "151428.761000", "151428.764000", "151429.011000"],
