{
  "AcquisitionMatrixPE": 104,
  "AcquisitionNumber": 1,
  "AcquisitionTime": "14:49:51.272500",
  "BandwidthPerPixelPhaseEncode": 17.17,
  "BaseResolution": 104,
  "BodyPartExamined": "BRAIN",
  "CoilString": "HC1-7;NC1_2",
  "ConsistencyInfo": "N4_VE11C_LATEST_20160120",
  "ConversionSoftware": "dcm2niix",
  "ConversionSoftwareVersion": "v1.0.20190720  (JP2:OpenJPEG) GCC7.3.0",
  "DerivedVendorReportedEchoSpacing": 0.000560011,
  "DeviceSerialNumber": "167006",
  "DwellTime": 2.1e-06,
  "EchoTime": 0.037,
  "EchoTrainLength": 104,
  "EffectiveEchoSpacing": 0.000560011,
  "FlipAngle": 52,
  "ImageComments": "Unaliased_MB4_PE3_LB",
  "ImageOrientationPatientDICOM": [0.99847, -0.0487714, 0.0260704, 0.0551239, 0.915533, -0.398449],
  "ImageType": [
    "ORIGINAL",
    "PRIMARY",
    "M",
    "MB",
    "ND",
    "MOSAIC"
],
  "ImagingFrequency": 123.259,
  "InPlanePhaseEncodingDirectionDICOM": "COL",
  "InstitutionAddress": "Chemin_Queen-Mary_4565_Montreal_District_CA_H3W_1W5",
  "InstitutionName": "IUGM",
  "InstitutionalDepartmentName": "Department",
  "MRAcquisitionType": "2D",
  "MagneticFieldStrength": 3,
  "Manufacturer": "Siemens",
  "ManufacturersModelName": "Prisma_fit",
  "Modality": "MR",
  "MultibandAccelerationFactor": 4,
  "PartialFourier": 1,
  "PatientPosition": "HFS",
  "PercentPhaseFOV": 100,
  "PhaseEncodingDirection": "j",
  "PhaseEncodingSteps": 104,
  "PhaseResolution": 1,
  "PixelBandwidth": 2290,
  "ProcedureStepDescription": "video_friends",
  "ProtocolName": "func_task-friends-s01e16a",
  "PulseSequenceDetails": "%CustomerSeq%_cmrr_mbep2d_bold",
  "ReceiveCoilActiveElements": "HC1-7;NC1,2",
  "ReceiveCoilName": "HeadNeck_64",
  "ReconMatrixPE": 104,
  "RepetitionTime": 1.49,
  "SAR": 0.0289028,
  "ScanOptions": "FS",
  "ScanningSequence": "EP",
  "SequenceName": "epfid2d1_104",
  "SequenceVariant": "SK_SS",
  "SeriesDescription": "func_task-friends-s01e16a",
  "SeriesNumber": 27,
  "ShimSetting": [637, -7250, -8893, 589, 55, -277, -139, -1],
  "SliceThickness": 2,
  "SliceTiming": [0, 0.785, 0.0975, 0.8825, 0.195, 0.98, 0.295, 1.0775, 0.3925, 1.175, 0.49, 1.275, 0.5875, 1.3725, 0.685, 0, 0.785, 0.0975, 0.8825, 0.195, 0.98, 0.295, 1.0775, 0.3925, 1.175, 0.49, 1.275, 0.5875, 1.3725, 0.685, 0, 0.785, 0.0975, 0.8825, 0.195, 0.98, 0.295, 1.0775, 0.3925, 1.175, 0.49, 1.275, 0.5875, 1.3725, 0.685, 0, 0.785, 0.0975, 0.8825, 0.195, 0.98, 0.295, 1.0775, 0.3925, 1.175, 0.49, 1.275, 0.5875, 1.3725, 0.685],
  "SoftwareVersions": "syngo_MR_E11",
  "SpacingBetweenSlices": 2,
  "StationName": "MRC35049",
  "TaskName": "friends",
  "TotalReadoutTime": 0.0576811,
  "TxRefAmp": 226.697,
  "WipMemBlock": "d0060f17-9e82-4549-a96c-023412a0b4b2||Sequence: R016 ve11c/master r/e634e98; Dec 19 2017 11:00:25 by eja",
  "dcmmeta_affine": [
    [-1.9969393014907837, 0.11024785786867142, 0.008870836347341537, 96.38423919677734],
    [0.09754286706447601, 1.8310651779174805, -0.798552393913269, -73.9113540649414],
    [0.05214088782668114, 0.7968977093696594, 1.8336398601531982, -91.31690979003906],
    [0.0, 0.0, 0.0, 1.0]
],
  "dcmmeta_reorient_transform": [
    [0.0, -1.0, 0.0, 103.0],
    [1.0, 0.0, 0.0, 0.0],
    [0.0, 0.0, 1.0, 0.0],
    [0.0, 0.0, 0.0, 1.0]
],
  "dcmmeta_shape": [104, 104, 60, 483],
  "dcmmeta_slice_dim": 2,
  "dcmmeta_version": 0.6,
  "global": {
    "const": {
      "AcquisitionMatrix": [104, 0, 0, 104],
      "AngioFlag": "N",
      "BitsAllocated": 16,
      "BitsStored": 16,
      "BodyPartExamined": "BRAIN",
      "Columns": 832,
      "EchoNumbers": 1,
      "EchoTime": 37.0,
      "EchoTrainLength": 104,
      "FlipAngle": 52.0,
      "HighBit": 15,
      "ImageOrientationPatient": [0.99846966870296, -0.0487714330174, 0.02607044306542, 0.05512393078712, 0.91553256000167, -0.3984488471954],
      "ImagePositionPatient": [-874.75590804372, -745.69045418415, 261.85502989852],
      "ImageType": [
        "ORIGINAL",
        "PRIMARY",
        "M",
        "MB",
        "ND",
        "MOSAIC"
],
      "ImagedNucleus": "1H",
      "ImagingFrequency": 123.259156,
      "InPlanePhaseEncodingDirection": "COL",
      "MRAcquisitionType": "2D",
      "MagneticFieldStrength": 3.0,
      "Manufacturer": "SIEMENS",
      "ManufacturerModelName": "Prisma_fit",
      "Modality": "MR",
      "NumberOfAverages": 1.0,
      "NumberOfPhaseEncodingSteps": 104,
      "PercentPhaseFieldOfView": 100.0,
      "PercentSampling": 100.0,
      "PerformedProcedureStepStartTime": "130734.901000",
      "PhotometricInterpretation": "MONOCHROME2",
      "PixelBandwidth": 2290.0,
      "PixelRepresentation": 0,
      "PixelSpacing": [2.0, 2.0],
      "ProtocolName": "func_task-friends-s01e16a",
      "RepetitionTime": 1490.0,
      "Rows": 832,
      "SAR": 0.02890282223237,
      "SamplesPerPixel": 1,
      "ScanOptions": "FS",
      "ScanningSequence": "EP",
      "SequenceName": "epfid2d1_104",
      "SequenceVariant": [
        "SK",
        "SS"
],
      "SeriesDescription": "func_task-friends-s01e16a",
      "SeriesNumber": 27,
      "SeriesTime": "145119.056000",
      "SliceLocation": -53.782618635176,
      "SliceThickness": 2.0,
      "SmallestImagePixelValue": 0,
      "SoftwareVersions": "syngo MR E11",
      "SpacingBetweenSlices": 1.9999999668573,
      "SpecificCharacterSet": "ISO_IR 100",
      "StudyID": "1",
      "StudyTime": "130734.810000",
      "TransmitCoilName": "Body",
      "VariableFlipAngleFlag": "N",
      "WindowCenterWidthExplanation": "Algo1",
      "dBdt": 0.0},
    "slices": {}
  },
  "time": {
    "samples": {
      "AcquisitionNumber": [1, 2, 3, 4, 5, 6, 7, 8, 9, 10, 11, 12, 13, 14, 15, 16, 17, 18, 19, 20, 21, 22, 23, 24, 25, 26, 27, 28, 29, 30, 31, 32, 33, 34, 35, 36, 37, 38, 39, 40, 41, 42, 43, 44, 45, 46, 47, 48, 49, 50, 51, 52, 53, 54, 55, 56, 57, 58, 59, 60, 61, 62, 63, 64, 65, 66, 67, 68, 69, 70, 71, 72, 73, 74, 75, 76, 77, 78, 79, 80, 81, 82, 83, 84, 85, 86, 87, 88, 89, 90, 91, 92, 93, 94, 95, 96, 97, 98, 99, 100, 101, 102, 103, 104, 105, 106, 107, 108, 109, 110, 111, 112, 113, 114, 115, 116, 117, 118, 119, 120, 121, 122, 123, 124, 125, 126, 127, 128, 129, 130, 131, 132, 133, 134, 135, 136, 137, 138, 139, 140, 141, 142, 143, 144, 145, 146, 147, 148, 149, 150, 151, 152, 153, 154, 155, 156, 157, 158, 159, 160, 161, 162, 163, 164, 165, 166, 167, 168, 169, 170, 171, 172, 173, 174, 175, 176, 177, 178, 179, 180, 181, 182, 183, 184, 185, 186, 187, 188, 189, 190, 191, 192, 193, 194, 195, 196, 197, 198, 199, 200, 201, 202, 203, 204, 205, 206, 207, 208, 209, 210, 211, 212, 213, 214, 215, 216, 217, 218, 219, 220, 221, 222, 223, 224, 225, 226, 227, 228, 229, 230, 231, 232, 233, 234, 235, 236, 237, 238, 239, 240, 241, 242, 243, 244, 245, 246, 247, 248, 249, 250, 251, 252, 253, 254, 255, 256, 257, 258, 259, 260, 261, 262, 263, 264, 265, 266, 267, 268, 269, 270, 271, 272, 273, 274, 275, 276, 277, 278, 279, 280, 281, 282, 283, 284, 285, 286, 287, 288, 289, 290, 291, 292, 293, 294, 295, 296, 297, 298, 299, 300, 301, 302, 303, 304, 305, 306, 307, 308, 309, 310, 311, 312, 313, 314, 315, 316, 317, 318, 319, 320, 321, 322, 323, 324, 325, 326, 327, 328, 329, 330, 331, 332, 333, 334, 335, 336, 337, 338, 339, 340, 341, 342, 343, 344, 345, 346, 347, 348, 349, 350, 351, 352, 353, 354, 355, 356, 357, 358, 359, 360, 361, 362, 363, 364, 365, 366, 367, 368, 369, 370, 371, 372, 373, 374, 375, 376, 377, 378, 379, 380, 381, 382, 383, 384, 385, 386, 387, 388, 389, 390, 391, 392, 393, 394, 395, 396, 397, 398, 399, 400, 401, 402, 403, 404, 405, 406, 407, 408, 409, 410, 411, 412, 413, 414, 415, 416, 417, 418, 419, 420, 421, 422, 423, 424, 425, 426, 427, 428, 429, 430, 431, 432, 433, 434, 435, 436, 437, 438, 439, 440, 441, 442, 443, 444, 445, 446, 447, 448, 449, 450, 451, 452, 453, 454, 455, 456, 457, 458, 459, 460, 461, 462, 463, 464, 465, 466, 467, 468, 469, 470, 471, 472, 473, 474, 475, 476, 477, 478, 479, 480, 481, 482, 483],
      "AcquisitionTime": ["144951.272500", "144952.762500", "144954.252500", "144955.742500", "144957.232500", "144958.722500", "145000.212500", "145001.702500", "145003.192500", "145004.682500", "145006.172500", "145007.662500", "145009.152500", "145010.642500", "145012.132500", "145013.622500", "145015.112500", "145016.602500", "145018.092500", "145019.582500", "145021.072500", "145022.562500", "145024.052500", "145025.542500", "145027.032500", "145028.522500", "145030.012500", "145031.502500", "145032.992500", "145034.482500", "145035.972500", "145037.462500", "145038.952500", "145040.442500", "145041.932500", "145043.422500", "145044.912500", "145046.402500", "145047.892500", "145049.382500", "145050.872500", "145052.362500", "145053.852500", "145055.342500", "145056.832500", "145058.322500", "145059.812500", "145101.302500", "145102.792500", "145104.282500", "145105.772500", "145107.262500", "145108.752500", "145110.242500", "145111.732500", "145113.222500", "145114.712500", "145116.202500", "145117.692500", "145119.182500", "145120.672500", "145122.162500", "145123.652500", "145125.142500", "145126.632500", "145128.122500", "145129.612500", "145131.102500", "145132.592500", "145134.082500", "145135.572500", "145137.062500", "145138.552500", "145140.042500", "145141.532500", "145143.022500", "145144.512500", "145146.002500", "145147.492500", "145148.982500", "145150.472500", "145151.962500", "145153.452500", "145154.942500", "145156.432500", "145157.922500", "145159.412500", "145200.902500", "145202.392500", "145203.882500", "145205.372500", "145206.862500", "145208.352500", "145209.842500", "145211.332500", "145212.822500", "145214.312500", "145215.802500", "145217.292500", "145218.782500", "145220.272500", "145221.762500", "145223.252500", "145224.742500", "145226.232500", "145227.722500", "145229.212500", "145230.702500", "145232.192500", "145233.682500", "145235.172500", "145236.662500", "145238.152500", "145239.642500", "145241.132500", "145242.622500", "145244.112500", "145245.602500", "145247.092500", "145248.582500", "145250.072500", "145251.562500", "145253.052500", "145254.542500", "145256.032500", "145257.522500", "145259.012500", "145300.502500", "145301.992500", "145303.482500", "145304.972500", "145306.462500", "145307.952500", "145309.442500", "145310.932500", "145312.422500", "145313.912500", "145315.402500", "145316.892500", "145318.382500", "145319.872500", "145321.362500", "145322.852500", "145324.342500", "145325.832500", "145327.322500", "145328.812500", "145330.302500", "145331.792500", "145333.282500", "145334.772500", "145336.262500", "145337.752500", "145339.242500", "145340.732500", "145342.222500", "145343.712500", "145345.202500", "145346.692500", "145348.182500", "145349.672500", "145351.162500", "145352.652500", "145354.142500", "145355.632500", "145357.122500", "145358.612500", "145400.102500", "145401.592500", "145403.082500", "145404.572500", "145406.062500", "145407.552500", "145409.042500", "145410.532500", "145412.022500", "145413.512500", "145415.002500", "145416.492500", "145417.982500", "145419.472500", "145420.962500", "145422.452500", "145423.942500", "145425.432500", "145426.922500", "145428.412500", "145429.902500", "145431.392500", "145432.882500", "145434.372500", "145435.862500", "145437.352500", "145438.842500", "145440.332500", "145441.822500", "145443.312500", "145444.802500", "145446.292500", "145447.782500", "145449.272500", "145450.762500", "145452.252500", "145453.742500", "145455.232500", "145456.722500", "145458.212500", "145459.702500", "145501.192500", "145502.682500", "145504.172500", "145505.662500", "145507.152500", "145508.642500", "145510.132500", "145511.622500", "145513.112500", "145514.602500", "145516.092500", "145517.582500", "145519.072500", "145520.562500", "145522.052500", "145523.542500", "145525.032500", "145526.522500", "145528.012500", "145529.502500", "145530.992500", "145532.482500", "145533.972500", "145535.462500", "145536.952500", "145538.442500", "145539.932500", "145541.422500", "145542.912500", "145544.402500", "145545.892500", "145547.382500", "145548.872500", "145550.362500", "145551.852500", "145553.342500", "145554.832500", "145556.322500", "145557.812500", "145559.302500", "145600.792500", "145602.282500", "145603.772500", "145605.262500", "145606.752500", "145608.242500", "145609.732500", "145611.222500", "145612.712500", "145614.202500", "145615.692500", "145617.182500", "145618.672500", "145620.162500", "145621.652500", "145623.142500", "145624.632500", "145626.122500", "145627.612500", "145629.102500", "145630.592500", "145632.082500", "145633.572500", "145635.062500", "145636.552500", "145638.042500", "145639.532500", "145641.022500", "145642.512500", "145644.002500", "145645.492500", "145646.982500", "145648.472500", "145649.962500", "145651.452500", "145652.942500", "145654.432500", "145655.922500", "145657.412500", "145658.902500", "145700.392500", "145701.882500", "145703.372500", "145704.862500", "145706.352500", "145707.842500", "145709.332500", "145710.822500", "145712.312500", "145713.802500", "145715.292500", "145716.782500", "145718.272500", "145719.762500", "145721.252500", "145722.742500", "145724.232500", "145725.722500", "145727.212500", "145728.702500", "145730.192500", "145731.682500", "145733.172500", "145734.662500", "145736.152500", "145737.642500", "145739.132500", "145740.622500", "145742.112500", "145743.602500", "145745.092500", "145746.582500", "145748.072500", "145749.562500", "145751.052500", "145752.542500", "145754.032500", "145755.522500", "145757.012500", "145758.502500", "145759.992500", "145801.482500", "145802.972500", "145804.462500", "145805.952500", "145807.442500", "145808.932500", "145810.422500", "145811.912500", "145813.402500", "145814.892500", "145816.382500", "145817.872500", "145819.362500", "145820.852500", "145822.342500", "145823.832500", "145825.322500", "145826.812500", "145828.302500", "145829.792500", "145831.282500", "145832.772500", "145834.262500", "145835.752500", "145837.242500", "145838.732500", "145840.222500", "145841.712500", "145843.202500", "145844.692500", "145846.182500", "145847.672500", "145849.162500", "145850.652500", "145852.142500", "145853.632500", "145855.122500", "145856.612500", "145858.102500", "145859.592500", "145901.082500", "145902.572500", "145904.062500", "145905.552500", "145907.042500", "145908.532500", "145910.022500", "145911.512500", "145913.002500", "145914.492500", "145915.982500", "145917.472500", "145918.962500", "145920.452500", "145921.942500", "145923.432500", "145924.922500", "145926.412500", "145927.902500", "145929.392500", "145930.882500", "145932.372500", "145933.862500", "145935.352500", "145936.842500", "145938.332500", "145939.822500", "145941.312500", "145942.802500", "145944.292500", "145945.782500", "145947.272500", "145948.762500", "145950.252500", "145951.742500", "145953.232500", "145954.722500", "145956.212500", "145957.702500", "145959.192500", "150000.682500", "150002.172500", "150003.662500", "150005.152500", "150006.642500", "150008.132500", "150009.622500", "150011.112500", "150012.602500", "150014.092500", "150015.582500", "150017.072500", "150018.562500", "150020.052500", "150021.542500", "150023.032500", "150024.522500", "150026.012500", "150027.502500", "150028.992500", "150030.482500", "150031.972500", "150033.462500", "150034.952500", "150036.442500", "150037.932500", "150039.422500", "150040.912500", "150042.402500", "150043.892500", "150045.382500", "150046.872500", "150048.362500", "150049.852500", "150051.342500", "150052.832500", "150054.322500", "150055.812500", "150057.302500", "150058.792500", "150100.282500", "150101.772500", "150103.262500", "150104.752500", "150106.242500", "150107.732500", "150109.222500", "150110.712500", "150112.202500", "150113.692500", "150115.182500", "150116.672500", "150118.162500", "150119.652500", "150121.142500", "150122.632500", "150124.122500", "150125.612500", "150127.102500", "150128.592500", "150130.082500", "150131.572500", "150133.062500", "150134.552500", "150136.042500", "150137.532500", "150139.022500", "150140.512500", "150142.002500", "150143.492500", "150144.982500", "150146.472500", "150147.962500", "150149.452500"],
      "ContentTime": ["145119.059000", "145119.062000", "145119.065000", "145119.068000", "145119.073000", "145119.076000", "145119.079000", "145119.082000", "145119.085000", "145119.087000", "145119.090000", "145119.093000", "145119.096000", "145119.099000", "145119.102000", "145119.104000", "145119.107000", "145119.110000", "145119.113000", "145119.116000", "145119.119000", "145119.126000", "145119.128000", "145119.131000", "145119.134000", "145119.137000", "145119.140000", "145119.143000", "145119.146000", "145119.148000", "145119.151000", "145119.154000", "145119.157000", "145119.160000", "145119.163000", "145139.021000", "145139.024000", "145139.027000", "145139.029000", "145139.032000", "145139.035000", "145139.038000", "145139.041000", "145139.044000", "145139.046000", "145139.049000", "145139.052000", "145139.055000", "145139.058000", "145139.061000", "145139.063000", "145139.066000", "145139.069000", "145139.072000", "145139.079000", "145159.021000", "145159.024000", "145159.027000", "145159.030000", "145159.032000", "145159.035000", "145159.038000", "145159.041000", "145159.044000", "145159.047000", "145159.049000", "145159.052000", "145159.055000", "145159.058000", "145159.061000", "145159.064000", "145159.066000", "145159.069000", "145159.072000", "145159.075000", "145219.020000", "145219.023000", "145219.026000", "145219.029000", "145219.032000", "145219.040000", "145219.043000", "145219.046000", "145219.049000", "145219.052000", "145219.054000", "145219.057000", "145219.060000", "145219.063000", "145219.066000", "145219.069000", "145219.071000", "145219.074000", "145219.077000", "145219.080000", "145219.083000", "145259.021000", "145259.029000", "145259.032000", "145259.035000", "145259.038000", "145259.041000", "145259.044000", "145259.046000", "145259.049000", "145259.052000", "145259.055000", "145259.058000", "145259.061000", "145259.063000", "145259.066000", "145259.069000", "145259.072000", "145259.075000", "145259.078000", "145259.080000", "145259.083000", "145259.086000", "145259.089000", "145259.092000", "145259.095000", "145259.098000", "145259.100000", "145259.103000", "145259.106000", "145339.021000", "145339.024000", "145339.027000", "145339.030000", "145339.033000", "145339.035000", "145339.038000", "145339.041000", "145339.044000", "145339.047000", "145339.050000", "145339.053000", "145339.055000", "145339.058000", "145339.061000", "145339.064000", "145339.067000", "145339.070000", "145339.072000", "145339.075000", "145339.078000", "145339.081000", "145339.085000", "145339.088000", "145339.091000", "145339.093000", "145339.096000", "145419.021000", "145419.024000", "145419.027000", "145419.030000", "145419.033000", "145419.035000", "145419.038000", "145419.041000", "145419.044000", "145419.047000", "145419.050000", "145419.052000", "145419.055000", "145419.058000", "145419.061000", "145419.064000", "145419.067000", "145419.070000", "145419.077000", "145419.080000", "145419.083000", "145419.086000", "145419.089000", "145419.091000", "145419.094000", "145419.097000", "145419.100000", "145459.021000", "145459.024000", "145459.027000", "145459.030000", "145459.033000", "145459.035000", "145459.038000", "145459.041000", "145459.044000", "145459.047000", "145459.050000", "145459.053000", "145459.055000", "145459.058000", "145459.061000", "145459.064000", "145459.079000", "145459.082000", "145459.085000", "145459.087000", "145459.090000", "145459.093000", "145459.096000", "145459.099000", "145459.102000", "145459.104000", "145459.107000", "145539.021000", "145539.024000", "145539.027000", "145539.030000", "145539.033000", "145539.040000", "145539.043000", "145539.046000", "145539.048000", "145539.051000", "145539.054000", "145539.057000", "145539.060000", "145539.063000", "145539.065000", "145539.069000", "145539.072000", "145539.075000", "145539.078000", "145539.081000", "145539.084000", "145539.087000", "145539.090000", "145539.092000", "145539.095000", "145539.098000", "145619.021000", "145619.024000", "145619.027000", "145619.030000", "145619.033000", "145619.035000", "145619.038000", "145619.041000", "145619.044000", "145619.047000", "145619.050000", "145619.053000", "145619.056000", "145619.058000", "145619.061000", "145619.064000", "145619.067000", "145619.070000", "145619.073000", "145619.076000", "145619.078000", "145619.081000", "145619.084000", "145619.087000", "145619.090000", "145619.093000", "145619.096000", "145659.020000", "145659.023000", "145659.026000", "145659.029000", "145659.032000", "145659.034000", "145659.037000", "145659.040000", "145659.043000", "145659.046000", "145659.049000", "145659.052000", "145659.055000", "145659.057000", "145659.060000", "145659.063000", "145659.066000", "145659.069000", "145659.072000", "145659.075000", "145659.077000", "145659.080000", "145659.083000", "145659.086000", "145659.089000", "145659.092000", "145659.095000", "145739.021000", "145739.024000", "145739.027000", "145739.030000", "145739.033000", "145739.035000", "145739.038000", "145739.041000", "145739.044000", "145739.047000", "145739.050000", "145739.053000", "145739.055000", "145739.058000", "145739.061000", "145739.064000", "145739.067000", "145739.070000", "145739.073000", "145739.076000", "145739.078000", "145739.081000", "145739.084000", "145739.087000", "145739.090000", "145739.093000", "145739.096000", "145819.021000", "145819.024000", "145819.027000", "145819.030000", "145819.033000", "145819.035000", "145819.038000", "145819.041000", "145819.044000", "145819.047000", "145819.050000", "145819.052000", "145819.055000", "145819.058000", "145819.061000", "145819.064000", "145819.067000", "145819.070000", "145819.073000", "145819.075000", "145819.078000", "145819.081000", "145819.084000", "145819.087000", "145819.090000", "145819.093000", "145819.095000", "145859.020000", "145859.023000", "145859.026000", "145859.029000", "145859.031000", "145859.034000", "145859.037000", "145859.040000", "145859.043000", "145859.046000", "145859.049000", "145859.052000", "145859.055000", "145859.057000", "145859.060000", "145859.063000", "145859.066000", "145859.069000", "145859.072000", "145859.074000", "145859.077000", "145859.080000", "145859.083000", "145859.086000", "145859.089000", "145859.092000", "145859.095000", "145939.021000", "145939.024000", "145939.027000", "145939.030000", "145939.033000", "145939.036000", "145939.039000", "145939.041000", "145939.044000", "145939.047000", "145939.050000", "145939.062000", "145939.065000", "145939.067000", "145939.070000", "145939.073000", "145939.076000", "145939.079000", "145939.082000", "145939.085000", "145939.089000", "145939.092000", "145939.095000", "145939.097000", "145939.100000", "145939.103000", "150019.021000", "150019.024000", "150019.027000", "150019.030000", "150019.033000", "150019.035000", "150019.038000", "150019.041000", "150019.044000", "150019.047000", "150019.050000", "150019.053000", "150019.056000", "150019.058000", "150019.061000", "150019.064000", "150019.067000", "150019.070000", "150019.073000", "150019.076000", "150019.078000", "150019.081000", "150019.084000", "150019.087000", "150019.090000", "150019.093000", "150019.096000", "150059.021000", "150059.024000", "150059.027000", "150059.030000", "150059.033000", "150059.036000", "150059.038000", "150059.041000", "150059.044000", "150059.047000", "150059.050000", "150059.053000", "150059.056000", "150059.059000", "150059.061000", "150059.064000", "150059.067000", "150059.070000", "150059.073000", "150059.076000", "150059.079000", "150059.082000", "150059.084000", "150059.087000", "150059.090000", "150059.093000", "150059.096000", "150139.020000", "150139.023000", "150139.026000", "150139.029000", "150139.032000", "150139.035000", "150139.038000", "150139.041000", "150139.043000", "150139.046000", "150139.049000", "150139.052000", "150139.055000", "150139.058000", "150139.069000", "150139.072000", "150139.075000", "150139.078000", "150139.081000", "150139.084000", "150139.086000", "150139.089000", "150139.092000", "150139.095000", "150139.098000", "150139.101000", "150139.104000", "150151.751000", "150151.755000", "150151.758000", "150151.761000", "150151.764000", "150151.767000", "150151.770000", "150151.773000", "150151.776000"],
