{
  "AcquisitionMatrixPE": 104,
  "AcquisitionNumber": 1,
  "AcquisitionTime": "13:53:15.922500",
  "BandwidthPerPixelPhaseEncode": 17.17,
  "BaseResolution": 104,
  "BodyPartExamined": "BRAIN",
  "CoilString": "HC1-7;NC1_2",
  "ConsistencyInfo": "N4_VE11C_LATEST_20160120",
  "ConversionSoftware": "dcm2niix",
  "ConversionSoftwareVersion": "v1.0.20190720  (JP2:OpenJPEG) GCC7.3.0",
  "DerivedVendorReportedEchoSpacing": 0.000560011,
  "DeviceSerialNumber": "167006",
  "DwellTime": 2.1e-06,
  "EchoTime": 0.037,
  "EchoTrainLength": 104,
  "EffectiveEchoSpacing": 0.000560011,
  "FlipAngle": 52,
  "ImageComments": "Unaliased_MB4_PE3_LB",
  "ImageOrientationPatientDICOM": [0.998002, -0.0610088, 0.0164037, 0.0626141, 0.920668, -0.385292],
  "ImageType": [
    "ORIGINAL",
    "PRIMARY",
    "M",
    "MB",
    "ND",
    "MOSAIC"
],
  "ImagingFrequency": 123.259,
  "InPlanePhaseEncodingDirectionDICOM": "COL",
  "InstitutionAddress": "Chemin_Queen-Mary_4565_Montreal_District_CA_H3W_1W5",
  "InstitutionName": "IUGM",
  "InstitutionalDepartmentName": "Department",
  "MRAcquisitionType": "2D",
  "MagneticFieldStrength": 3,
  "Manufacturer": "Siemens",
  "ManufacturersModelName": "Prisma_fit",
  "Modality": "MR",
  "MultibandAccelerationFactor": 4,
  "PartialFourier": 1,
  "PatientPosition": "HFS",
  "PercentPhaseFOV": 100,
  "PhaseEncodingDirection": "j",
  "PhaseEncodingSteps": 104,
  "PhaseResolution": 1,
  "PixelBandwidth": 2290,
  "ProcedureStepDescription": "video_friends",
  "ProtocolName": "func_task-s01e16a",
  "PulseSequenceDetails": "%CustomerSeq%_cmrr_mbep2d_bold",
  "ReceiveCoilActiveElements": "HC1-7;NC1,2",
  "ReceiveCoilName": "HeadNeck_64",
  "ReconMatrixPE": 104,
  "RepetitionTime": 1.49,
  "SAR": 0.0269275,
  "ScanOptions": "FS",
  "ScanningSequence": "EP",
  "SequenceName": "epfid2d1_104",
  "SequenceVariant": "SK_SS",
  "SeriesDescription": "func_task-s01e16a",
  "SeriesNumber": 13,
  "ShimSetting": [635, -7256, -8824, 592, 37, -219, -90, -6],
  "SliceThickness": 2,
  "SliceTiming": [0, 0.785, 0.0975, 0.8825, 0.195, 0.98, 0.295, 1.0775, 0.3925, 1.175, 0.49, 1.275, 0.5875, 1.3725, 0.685, 0, 0.785, 0.0975, 0.8825, 0.195, 0.98, 0.295, 1.0775, 0.3925, 1.175, 0.49, 1.275, 0.5875, 1.3725, 0.685, 0, 0.785, 0.0975, 0.8825, 0.195, 0.98, 0.295, 1.0775, 0.3925, 1.175, 0.49, 1.275, 0.5875, 1.3725, 0.685, 0, 0.785, 0.0975, 0.8825, 0.195, 0.98, 0.295, 1.0775, 0.3925, 1.175, 0.49, 1.275, 0.5875, 1.3725, 0.685],
  "SoftwareVersions": "syngo_MR_E11",
  "SpacingBetweenSlices": 2,
  "StationName": "MRC35049",
  "TaskName": "friends",
  "TotalReadoutTime": 0.0576811,
  "TxRefAmp": 217.362,
  "WipMemBlock": "0bc91c9d-ba9e-4e6b-9f9d-3b798dbfbc4e||Sequence: R016 ve11c/master r/e634e98; Dec 19 2017 11:00:25 by eja",
  "dcmmeta_affine": [
    [-1.9960048198699951, 0.12522822618484497, -0.0168076753616333, 95.8895034790039],
    [0.12201754003763199, 1.8413358926773071, -0.7710991501808167, -76.16920471191406],
    [0.032807398587465286, 0.770584225654602, 1.8452976942062378, -68.419921875],
    [0.0, 0.0, 0.0, 1.0]
],
  "dcmmeta_reorient_transform": [
    [0.0, -1.0, 0.0, 103.0],
    [1.0, 0.0, 0.0, 0.0],
    [0.0, 0.0, 1.0, 0.0],
    [0.0, 0.0, 0.0, 1.0]
],
  "dcmmeta_shape": [104, 104, 60, 206],
  "dcmmeta_slice_dim": 2,
  "dcmmeta_version": 0.6,
  "global": {
    "const": {
      "AcquisitionMatrix": [104, 0, 0, 104],
      "AngioFlag": "N",
      "BitsAllocated": 16,
      "BitsStored": 16,
      "BodyPartExamined": "BRAIN",
      "Columns": 832,
      "EchoNumbers": 1,
      "EchoTime": 37.0,
      "EchoTrainLength": 104,
      "FlipAngle": 52.0,
      "HighBit": 15,
      "ImageOrientationPatient": [0.99800242912303, -0.0610087705841, 0.01640370008112, 0.06261411163836, 0.92066794029514, -0.3852921187053],
      "ImagePositionPatient": [-880.9168547119, -739.32026861609, 279.50102359405],
      "ImageType": [
        "ORIGINAL",
        "PRIMARY",
        "M",
        "MB",
        "ND",
        "MOSAIC"
],
      "ImagedNucleus": "1H",
      "ImagingFrequency": 123.259117,
      "InPlanePhaseEncodingDirection": "COL",
      "MRAcquisitionType": "2D",
      "MagneticFieldStrength": 3.0,
      "Manufacturer": "SIEMENS",
      "ManufacturerModelName": "Prisma_fit",
      "Modality": "MR",
      "NumberOfAverages": 1.0,
      "NumberOfPhaseEncodingSteps": 104,
      "PercentPhaseFieldOfView": 100.0,
      "PercentSampling": 100.0,
      "PerformedProcedureStepStartTime": "130734.901000",
      "PhotometricInterpretation": "MONOCHROME2",
      "PixelBandwidth": 2290.0,
      "PixelRepresentation": 0,
      "PixelSpacing": [2.0, 2.0],
      "ProtocolName": "func_task-s01e16a",
      "RepetitionTime": 1490.0,
      "Rows": 832,
      "SAR": 0.02692750703871,
      "SamplesPerPixel": 1,
      "ScanOptions": "FS",
      "ScanningSequence": "EP",
      "SequenceName": "epfid2d1_104",
      "SequenceVariant": [
        "SK",
        "SS"
],
      "SeriesDescription": "func_task-s01e16a",
      "SeriesNumber": 13,
      "SeriesTime": "135439.055000",
      "SliceLocation": -34.566398310141,
      "SliceThickness": 2.0,
      "SmallestImagePixelValue": 0,
      "SoftwareVersions": "syngo MR E11",
      "SpacingBetweenSlices": 2.0000000490977,
      "SpecificCharacterSet": "ISO_IR 100",
      "StudyID": "1",
      "StudyTime": "130734.810000",
      "TransmitCoilName": "Body",
      "VariableFlipAngleFlag": "N",
      "WindowCenterWidthExplanation": "Algo1",
      "dBdt": 0.0},
    "slices": {}
  },
  "time": {
    "samples": {
      "AcquisitionNumber": [1, 2, 3, 4, 5, 6, 7, 8, 9, 10, 11, 12, 13, 14, 15, 16, 17, 18, 19, 20, 21, 22, 23, 24, 25, 26, 27, 28, 29, 30, 31, 32, 33, 34, 35, 36, 37, 38, 39, 40, 41, 42, 43, 44, 45, 46, 47, 48, 49, 50, 51, 52, 53, 54, 55, 56, 57, 58, 59, 60, 61, 62, 63, 64, 65, 66, 67, 68, 69, 70, 71, 72, 73, 74, 75, 76, 77, 78, 79, 80, 81, 82, 83, 84, 85, 86, 87, 88, 89, 90, 91, 92, 93, 94, 95, 96, 97, 98, 99, 100, 101, 102, 103, 104, 105, 106, 107, 108, 109, 110, 111, 112, 113, 114, 115, 116, 117, 118, 119, 120, 121, 122, 123, 124, 125, 126, 127, 128, 129, 130, 131, 132, 133, 134, 135, 136, 137, 138, 139, 140, 141, 142, 143, 144, 145, 146, 147, 148, 149, 150, 151, 152, 153, 154, 155, 156, 157, 158, 159, 160, 161, 162, 163, 164, 165, 166, 167, 168, 169, 170, 171, 172, 173, 174, 175, 176, 177, 178, 179, 180, 181, 182, 183, 184, 185, 186, 187, 188, 189, 190, 191, 192, 193, 194, 195, 196, 197, 198, 199, 200, 201, 202, 203, 204, 205, 206],
      "AcquisitionTime": ["135315.922500", "135317.412500", "135318.902500", "135320.392500", "135321.882500", "135323.372500", "135324.862500", "135326.352500", "135327.842500", "135329.332500", "135330.822500", "135332.312500", "135333.802500", "135335.292500", "135336.782500", "135338.272500", "135339.762500", "135341.252500", "135342.742500", "135344.232500", "135345.722500", "135347.212500", "135348.702500", "135350.192500", "135351.682500", "135353.172500", "135354.662500", "135356.152500", "135357.642500", "135359.132500", "135400.622500", "135402.112500", "135403.602500", "135405.092500", "135406.582500", "135408.072500", "135409.562500", "135411.052500", "135412.542500", "135414.032500", "135415.522500", "135417.012500", "135418.502500", "135419.992500", "135421.482500", "135422.972500", "135424.462500", "135425.952500", "135427.442500", "135428.932500", "135430.422500", "135431.912500", "135433.402500", "135434.892500", "135436.382500", "135437.872500", "135439.362500", "135440.852500", "135442.342500", "135443.832500", "135445.322500", "135446.812500", "135448.302500", "135449.792500", "135451.282500", "135452.772500", "135454.262500", "135455.752500", "135457.242500", "135458.732500", "135500.222500", "135501.712500", "135503.202500", "135504.692500", "135506.182500", "135507.672500", "135509.162500", "135510.652500", "135512.142500", "135513.632500", "135515.122500", "135516.612500", "135518.102500", "135519.592500", "135521.082500", "135522.572500", "135524.062500", "135525.552500", "135527.042500", "135528.532500", "135530.022500", "135531.512500", "135533.002500", "135534.492500", "135535.982500", "135537.472500", "135538.962500", "135540.452500", "135541.942500", "135543.432500", "135544.922500", "135546.412500", "135547.902500", "135549.392500", "135550.882500", "135552.372500", "135553.862500", "135555.352500", "135556.842500", "135558.332500", "135559.822500", "135601.312500", "135602.802500", "135604.292500", "135605.782500", "135607.272500", "135608.762500", "135610.252500", "135611.742500", "135613.232500", "135614.722500", "135616.212500", "135617.702500", "135619.192500", "135620.682500", "135622.172500", "135623.662500", "135625.152500", "135626.642500", "135628.132500", "135629.622500", "135631.112500", "135632.602500", "135634.092500", "135635.582500", "135637.072500", "135638.562500", "135640.052500", "135641.542500", "135643.032500", "135644.522500", "135646.012500", "135647.502500", "135648.992500", "135650.482500", "135651.972500", "135653.462500", "135654.952500", "135656.442500", "135657.932500", "135659.422500", "135700.912500", "135702.402500", "135703.892500", "135705.382500", "135706.872500", "135708.362500", "135709.852500", "135711.342500", "135712.832500", "135714.322500", "135715.812500", "135717.302500", "135718.792500", "135720.282500", "135721.772500", "135723.262500", "135724.752500", "135726.242500", "135727.732500", "135729.222500", "135730.712500", "135732.202500", "135733.692500", "135735.182500", "135736.672500", "135738.162500", "135739.652500", "135741.142500", "135742.632500", "135744.122500", "135745.612500", "135747.102500", "135748.592500", "135750.082500", "135751.572500", "135753.062500", "135754.552500", "135756.042500", "135757.532500", "135759.022500", "135800.512500", "135802.002500", "135803.492500", "135804.982500", "135806.472500", "135807.962500", "135809.452500", "135810.942500", "135812.432500", "135813.922500", "135815.412500", "135816.902500", "135818.392500", "135819.882500", "135821.372500"],
      "ContentTime": ["135439.058000", "135439.067000", "135439.070000", "135439.076000", "135439.078000", "135439.081000", "135439.084000", "135439.087000", "135439.090000", "135439.093000", "135439.095000", "135439.098000", "135439.101000", "135439.104000", "135439.107000", "135439.109000", "135439.112000", "135439.115000", "135439.118000", "135439.121000", "135439.124000", "135439.127000", "135439.129000", "135439.133000", "135439.136000", "135439.149000", "135439.152000", "135439.154000", "135439.157000", "135459.021000", "135459.024000", "135459.027000", "135459.029000", "135459.032000", "135459.035000", "135459.038000", "135459.041000", "135459.043000", "135459.046000", "135459.049000", "135459.052000", "135459.055000", "135459.058000", "135459.060000", "135459.063000", "135459.066000", "135459.069000", "135459.072000", "135459.074000", "135519.021000", "135519.024000", "135519.027000", "135519.029000", "135519.032000", "135519.035000", "135519.038000", "135519.041000", "135519.044000", "135519.046000", "135519.049000", "135519.052000", "135519.055000", "135519.058000", "135519.060000", "135519.063000", "135519.066000", "135519.069000", "135519.072000", "135519.075000", "135539.021000", "135539.024000", "135539.027000", "135539.029000", "135539.032000", "135539.035000", "135539.038000", "135539.041000", "135539.043000", "135539.046000", "135539.049000", "135539.052000", "135539.055000", "135539.057000", "135539.060000", "135539.063000", "135539.066000", "135539.069000", "135539.071000", "135539.074000", "135619.021000", "135619.024000", "135619.027000", "135619.030000", "135619.032000", "135619.035000", "135619.038000", "135619.041000", "135619.044000", "135619.046000", "135619.049000", "135619.052000", "135619.055000", "135619.058000", "135619.061000", "135619.063000", "135619.066000", "135619.069000", "135619.072000", "135619.075000", "135619.078000", "135619.080000", "135619.083000", "135619.086000", "135619.089000", "135619.092000", "135619.095000", "135619.097000", "135619.100000", "135619.103000", "135619.106000", "135619.109000", "135619.112000", "135659.021000", "135659.024000", "135659.027000", "135659.029000", "135659.032000", "135659.035000", "135659.038000", "135659.041000", "135659.044000", "135659.047000", "135659.049000", "135659.052000", "135659.055000", "135659.058000", "135659.061000", "135659.063000", "135659.066000", "135659.069000", "135659.072000", "135659.075000", "135659.078000", "135659.080000", "135659.083000", "135659.086000", "135659.089000", "135659.092000", "135659.095000", "135739.021000", "135739.024000", "135739.027000", "135739.030000", "135739.032000", "135739.035000", "135739.038000", "135739.041000", "135739.044000", "135739.047000", "135739.058000", "135739.061000", "135739.064000", "135739.067000", "135739.070000", "135739.073000", "135739.075000", "135739.078000", "135739.081000", "135739.084000", "135739.086000", "135739.089000", "135739.092000", "135739.095000", "135739.098000", "135739.101000", "135739.104000", "135819.021000", "135819.024000", "135819.027000", "135819.030000", "135819.032000", "135819.035000", "135819.038000", "135819.041000", "135819.044000", "135819.046000", "135819.049000", "135819.052000", "135819.055000", "135819.058000", "135819.061000", "135819.064000", "135819.067000", "135819.069000", "135819.072000", "135819.075000", "135819.078000", "135819.081000", "135819.084000", "135819.086000", "135819.089000", "135819.092000", "135824.317000", "135824.321000", "135824.323000", "135824.326000"],
      "InstanceCreationTime": ["135439.058000", "135439.067000", "135439.070000", "135439.076000", "135439.078000", "135439.081000", "135439.084000", "135439.087000", "135439.090000", "135439.093000", "135439.095000", "135439.098000", "135439.101000", "135439.104000", "135439.107000", "135439.109000", "135439.112000", "135439.115000", "135439.118000", "135439.121000", "135439.124000", "135439.127000", "135439.129000", "135439.133000", "135439.136000", "135439.149000", "135439.152000", "135439.154000", "135439.157000", "135459.021000", "135459.024000", "135459.027000", "135459.029000", "135459.032000", "135459.035000", "135459.038000", "135459.041000", "135459.043000", "135459.046000", "135459.049000", "135459.052000", "135459.055000", "135459.058000", "135459.060000", "135459.063000", "135459.066000", "135459.069000", "135459.072000", "135459.074000", "135519.021000", "135519.024000", "135519.027000", "135519.029000", "135519.032000", "135519.035000", "135519.038000", "135519.041000", "135519.044000", "135519.046000", "135519.049000", "135519.052000", "135519.055000", "135519.058000", "135519.060000", "135519.063000", "135519.066000", "135519.069000", "135519.072000", "135519.075000", "135539.021000", "135539.024000", "135539.027000", "135539.029000", "135539.032000", "135539.035000", "135539.038000", "135539.041000", "135539.043000", "135539.046000", "135539.049000", "135539.052000", "135539.055000", "135539.057000", "135539.060000", "135539.063000", "135539.066000", "135539.069000", "135539.071000", "135539.074000", "135619.021000", "135619.024000", "135619.027000", "135619.030000", "135619.032000", "135619.035000", "135619.038000", "135619.041000", "135619.044000", "135619.046000", "135619.049000", "135619.052000", "135619.055000", "135619.058000", "135619.061000", "135619.063000", "135619.066000", "135619.069000", "135619.072000", "135619.075000", "135619.078000", "135619.080000", "135619.083000", "135619.086000", "135619.089000", "135619.092000", "135619.095000", "135619.097000", "135619.100000", "135619.103000", "135619.106000", "135619.109000", "135619.112000", "135659.021000", "135659.024000", "135659.027000", "135659.029000", "135659.032000", "135659.035000", "135659.038000", "135659.041000", "135659.044000", "135659.047000", "135659.049000", "135659.052000", "135659.055000", "135659.058000", "135659.061000", "135659.063000", "135659.066000", "135659.069000", "135659.072000", "135659.075000", "135659.078000", "135659.080000", "135659.083000", "135659.086000", "135659.089000", "135659.092000", "135659.095000", "135739.021000", "135739.024000", "135739.027000", "135739.030000", "135739.032000", "135739.035000", "135739.038000", "135739.041000", "135739.044000", "135739.047000", "135739.058000", "135739.061000", "135739.064000", "135739.067000", "135739.070000", "135739.073000", "135739.075000", "135739.078000", "135739.081000", "135739.084000", "135739.086000", "135739.089000", "135739.092000", "135739.095000", "135739.098000", "135739.101000", "135739.104000", "135819.021000", "135819.024000", "135819.027000", "135819.030000", "135819.032000", "135819.035000", "135819.038000", "135819.041000", "135819.044000", "135819.046000", "135819.049000", "135819.052000", "135819.055000", "135819.058000", "135819.061000", "135819.064000", "135819.067000", "135819.069000", "135819.072000", "135819.075000", "135819.078000", "135819.081000", "135819.084000", "135819.086000", "135819.089000", "135819.092000", "135824.317000", "135824.321000", "135824.323000", "135824.326000"],
      "InstanceNumber": [1, 2, 3, 4, 5, 6, 7, 8, 9, 10, 11, 12, 13, 14, 15, 16, 17, 18, 19, 20, 21, 22, 23, 24, 25, 26, 27, 28, 29, 30, 31, 32, 33, 34, 35, 36, 37, 38, 39, 40, 41, 42, 43, 44, 45, 46, 47, 48, 49, 50, 51, 52, 53, 54, 55, 56, 57, 58, 59, 60, 61, 62, 63, 64, 65, 66, 67, 68, 69, 70, 71, 72, 73, 74, 75, 76, 77, 78, 79, 80, 81, 82, 83, 84, 85, 86, 87, 88, 89, 90, 91, 92, 93, 94, 95, 96, 97, 98, 99, 100, 101, 102, 103, 104, 105, 106, 107, 108, 109, 110, 111, 112, 113, 114, 115, 116, 117, 118, 119, 120, 121, 122, 123, 124, 125, 126, 127, 128, 129, 130, 131, 132, 133, 134, 135, 136, 137, 138, 139, 140, 141, 142, 143, 144, 145, 146, 147, 148, 149, 150, 151, 152, 153, 154, 155, 156, 157, 158, 159, 160, 161, 162, 163, 164, 165, 166, 167, 168, 169, 170, 171, 172, 173, 174, 175, 176, 177, 178, 179, 180, 181, 182, 183, 184, 185, 186, 187, 188, 189, 190, 191, 192, 193, 194, 195, 196, 197, 198, 199, 200, 201, 202, 203, 204, 205, 206],
      "LargestImagePixelValue": [47175, 45892, 45277, 44075, 43869, 43997, 44167, 43622, 43474, 44020, 44177, 43822, 43545, 43290, 43590, 43415, 43795, 43664, 43939, 43580, 44006, 43839, 43662, 44062, 43585, 43524, 43774, 43768, 43990, 43352, 43677, 44075, 43874, 43775, 43750, 43892, 43829, 43869, 43559, 43675, 43513, 43652, 43060, 41970, 42075, 43009, 42048, 43426, 43461, 42367, 42750, 42769, 43296, 43973, 43669, 44000, 43486, 43347, 43927, 43773, 43802, 43540, 43602, 43401, 42923, 43559, 43506, 43447, 43599, 43658, 43734, 44008, 43926, 43917, 43787, 43788, 43420, 42389, 41589, 41920, 42099, 42115, 42455, 42662, 42524, 42814, 42781, 42780, 42939, 42853, 43408, 42987, 43090, 42937, 42967, 42968, 43084, 43041, 43169, 42919, 42952, 43555, 43222, 43482, 43448, 43062, 42738, 43050, 42893, 42920, 43370, 42905, 43473, 43194, 42975, 42958, 42887, 43008, 42975, 42980, 42712, 42637, 43427, 42765, 43316, 43306, 42988, 43576, 42862, 42762, 43052, 42826, 43248, 42920, 42831, 43149, 42684, 42734, 42840, 42656, 43473, 43303, 42910, 42331, 42949, 42523, 42555, 42871, 42434, 43128, 43044, 42628, 43004, 42673, 42473, 42496, 42850, 42848, 42397, 42962, 43096, 42239, 42685, 42673, 42649, 42726, 42549, 42965, 43172, 42983, 43195, 42703, 42743, 42904, 42316, 42353, 43498, 43217, 42515, 42689, 42830, 43052, 42890, 43057, 42717, 42659, 42734, 42904, 42566, 43187, 43175, 42957, 43366, 43132, 42306, 43054, 43235, 42811, 42597, 42972, 42670, 42572, 43291, 43907, 43245, 41446],
      "WindowCenter": [10314.0, 10266.0, 10255.0, 10241.0, 10225.0, 10248.0, 10247.0, 10233.0, 10223.0, 10228.0, 10227.0, 10238.0, 10231.0, 10225.0, 10222.0, 10222.0, 10228.0, 10222.0, 10222.0, 10222.0, 10219.0, 10214.0, 10199.0, 10211.0, 10213.0, 10212.0, 10220.0, 10218.0, 10219.0, 10213.0, 10213.0, 10218.0, 10215.0, 10204.0, 10203.0, 10203.0, 10204.0, 10217.0, 10211.0, 10213.0, 10225.0, 10225.0, 10239.0, 10226.0, 10201.0, 10194.0, 10182.0, 10206.0, 10205.0, 10189.0, 10186.0, 10182.0, 10191.0, 10205.0, 10220.0, 10206.0, 10189.0, 10197.0, 10203.0, 10212.0, 10212.0, 10208.0, 10215.0, 10231.0, 10229.0, 10224.0, 10214.0, 10214.0, 10222.0, 10231.0, 10223.0, 10226.0, 10215.0, 10215.0, 10213.0, 10205.0, 10222.0, 10210.0, 10174.0, 10226.0, 10203.0, 10180.0, 10170.0, 10180.0, 10182.0, 10201.0, 10199.0, 10182.0, 10175.0, 10188.0, 10195.0, 10193.0, 10181.0, 10173.0, 10184.0, 10189.0, 10191.0, 10191.0, 10205.0, 10208.0, 10217.0, 10221.0, 10223.0, 10227.0, 10222.0, 10208.0, 10200.0, 10197.0, 10198.0, 10205.0, 10203.0, 10208.0, 10211.0, 10220.0, 10217.0, 10208.0, 10206.0, 10198.0, 10204.0, 10204.0, 10206.0, 10206.0, 10211.0, 10206.0, 10198.0, 10192.0, 10187.0, 10201.0, 10207.0, 10208.0, 10199.0, 10183.0, 10181.0, 10194.0, 10198.0, 10213.0, 10208.0, 10198.0, 10197.0, 10190.0, 10204.0, 10204.0, 10199.0, 10194.0, 10198.0, 10208.0, 10207.0, 10216.0, 10202.0, 10200.0, 10198.0, 10191.0, 10198.0, 10214.0, 10222.0, 10218.0, 10209.0, 10208.0, 10201.0, 10198.0, 10204.0, 10185.0, 10191.0, 10193.0, 10191.0, 10199.0, 10199.0, 10202.0, 10206.0, 10207.0, 10215.0, 10187.0, 10177.0, 10187.0, 10184.0, 10182.0, 10201.0, 10215.0, 10214.0, 10208.0, 10205.0, 10206.0, 10203.0, 10204.0, 10200.0, 10200.0, 10209.0, 10200.0, 10191.0, 10213.0, 10213.0, 10205.0, 10203.0, 10196.0, 10198.0, 10235.0, 10223.0, 10199.0, 10189.0, 10197.0, 10199.0, 10204.0, 10207.0, 10243.0, 10265.0, 10268.0],
      "WindowWidth": [22255.0, 22107.0, 22062.0, 22017.0, 21972.0, 22016.0, 22011.0, 21980.0, 21959.0, 21964.0, 21965.0, 21990.0, 21976.0, 21964.0, 21959.0, 21955.0, 21966.0, 21956.0, 21955.0, 21957.0, 21949.0, 21940.0, 21908.0, 21933.0, 21937.0, 21935.0, 21952.0, 21947.0, 21946.0, 21937.0, 21935.0, 21947.0, 21944.0, 21918.0, 21914.0, 21916.0, 21916.0, 21945.0, 21933.0, 21937.0, 21968.0, 21971.0, 22001.0, 21978.0, 21920.0, 21899.0, 21879.0, 21925.0, 21921.0, 21891.0, 21879.0, 21868.0, 21892.0, 21918.0, 21953.0, 21919.0, 21882.0, 21897.0, 21911.0, 21932.0, 21935.0, 21929.0, 21947.0, 21981.0, 21980.0, 21966.0, 21941.0, 21940.0, 21957.0, 21979.0, 21959.0, 21962.0, 21940.0, 21939.0, 21936.0, 21919.0, 21964.0, 21934.0, 21865.0, 21972.0, 21922.0, 21868.0, 21844.0, 21861.0, 21866.0, 21910.0, 21904.0, 21865.0, 21851.0, 21876.0, 21892.0, 21892.0, 21861.0, 21844.0, 21869.0, 21884.0, 21888.0, 21889.0, 21915.0, 21924.0, 21945.0, 21955.0, 21961.0, 21966.0, 21955.0, 21925.0, 21908.0, 21899.0, 21902.0, 21917.0, 21911.0, 21925.0, 21928.0, 21949.0, 21944.0, 21925.0, 21915.0, 21901.0, 21914.0, 21912.0, 21920.0, 21919.0, 21930.0, 21919.0, 21901.0, 21888.0, 21873.0, 21905.0, 21924.0, 21926.0, 21905.0, 21870.0, 21861.0, 21892.0, 21902.0, 21935.0, 21923.0, 21900.0, 21898.0, 21885.0, 21912.0, 21911.0, 21903.0, 21894.0, 21902.0, 21926.0, 21922.0, 21942.0, 21914.0, 21905.0, 21901.0, 21887.0, 21902.0, 21934.0, 21953.0, 21948.0, 21927.0, 21923.0, 21909.0, 21901.0, 21913.0, 21874.0, 21887.0, 21892.0, 21886.0, 21906.0, 21906.0, 21918.0, 21920.0, 21921.0, 21938.0, 21880.0, 21855.0, 21873.0, 21871.0, 21864.0, 21905.0, 21935.0, 21937.0, 21925.0, 21914.0, 21916.0, 21909.0, 21911.0, 21907.0, 21908.0, 21928.0, 21907.0, 21884.0, 21933.0, 21933.0, 21914.0, 21912.0, 21896.0, 21905.0, 21985.0, 21960.0, 21908.0, 21881.0, 21900.0, 21907.0, 21914.0, 21926.0, 22011.0, 22065.0, 22076.0]
    },
    "slices": {}
  }
}