{
  "AcquisitionMatrixPE": 104,
  "AcquisitionNumber": 1,
  "AcquisitionTime": "16:29:40.697500",
  "BandwidthPerPixelPhaseEncode": 17.17,
  "BaseResolution": 104,
  "BodyPartExamined": "BRAIN",
  "CoilCombinationMethod": "Sum of Squares",
  "ConsistencyInfo": "N4_VE11C_LATEST_20160120",
  "ConversionSoftware": "dcm2niix",
  "ConversionSoftwareVersion": "v1.0.20230411",
  "DerivedVendorReportedEchoSpacing": 0.000560011,
  "DeviceSerialNumber": "167006",
  "DwellTime": 2.1e-06,
  "EchoTime": 0.037,
  "EchoTrainLength": 104,
  "EffectiveEchoSpacing": 0.000560011,
  "FlipAngle": 52,
  "HeudiconvVersion": "0.5.3.post861+ge7d3c7f",
  "ImageComments": "Unaliased MB4/PE3/LB",
  "ImageOrientationPatientDICOM": [0.999699, 0.000359577, 0.0245273, 0.0132613, 0.833257, -0.552727],
  "ImageOrientationText": "Tra>Cor(-33.6)>Sag(1.2)",
  "ImageType": [
    "ORIGINAL",
    "PRIMARY",
    "M",
    "MB",
    "ND",
    "MOSAIC"
],
  "ImagingFrequency": 123.249784,
  "InPlanePhaseEncodingDirectionDICOM": "COL",
  "InstitutionAddress": "Chemin Queen-Mary 4565,Montreal,District,CA,H3W 1W5",
  "InstitutionName": "IUGM",
  "InstitutionalDepartmentName": "Department",
  "MRAcquisitionType": "2D",
  "MagneticFieldStrength": 3,
  "Manufacturer": "Siemens",
  "ManufacturersModelName": "Prisma_fit",
  "MatrixCoilMode": "SENSE",
  "Modality": "MR",
  "MultibandAccelerationFactor": 4,
  "NonlinearGradientCorrection": false,
  "PartialFourier": 1,
  "PatientPosition": "HFS",
  "PercentPhaseFOV": 100,
  "PercentSampling": 100,
  "PhaseEncodingDirection": "j",
  "PhaseEncodingSteps": 104,
  "PhaseResolution": 1,
  "PixelBandwidth": 2290,
  "ProcedureStepDescription": "video^friends",
  "ProtocolName": "func_task-friends-s07e08b",
  "PulseSequenceDetails": "%CustomerSeq%\\cmrr_mbep2d_bold",
  "ReceiveCoilActiveElements": "HC1-7;NC1,2",
  "ReceiveCoilName": "HeadNeck_64",
  "ReconMatrixPE": 104,
  "RepetitionTime": 1.49,
  "SAR": 0.0672652,
  "ScanOptions": "FS",
  "ScanningSequence": "EP",
  "SequenceName": "epfid2d1_104",
  "SequenceVariant": "SK\\SS",
  "SeriesDescription": "func_task-friends-s07e08b",
  "SeriesNumber": 10,
  "ShimSetting": [603, -7200, -8864, 291, 33, -213, -162, 92],
  "SliceThickness": 2,
  "SliceTiming": [0, 0.7825, 0.0975, 0.88, 0.195, 0.98, 0.2925, 1.0775, 0.39, 1.175, 0.49, 1.2725, 0.5875, 1.37, 0.685, 0, 0.7825, 0.0975, 0.88, 0.195, 0.98, 0.2925, 1.0775, 0.39, 1.175, 0.49, 1.2725, 0.5875, 1.37, 0.685, 0, 0.7825, 0.0975, 0.88, 0.195, 0.98, 0.2925, 1.0775, 0.39, 1.175, 0.49, 1.2725, 0.5875, 1.37, 0.685, 0, 0.7825, 0.0975, 0.88, 0.195, 0.98, 0.2925, 1.0775, 0.39, 1.175, 0.49, 1.2725, 0.5875, 1.37, 0.685],
  "SoftwareVersions": "syngo MR E11",
  "SpacingBetweenSlices": 2,
  "StationName": "MRC35049",
  "TaskName": "s07e08b",
  "TotalReadoutTime": 0.0576811,
  "TxRefAmp": 300.68,
  "WipMemBlock": "4d738469-f645-48a8-82aa-ed508b3ac74c||Sequence: R017 ve11c/master r/75a17815+; Jun 28 2022 16:32:11 by eja",
  "dcmmeta_affine": [
    [-1.9993982315063477, 0.02652258798480034, 0.04127265885472298, 100.89850616455078],
    [-0.0007191542536020279, 1.6665139198303223, -1.1057716608047485, -54.934547424316406],
    [0.049054693430662155, 1.1054537296295166, 1.666002869606018, -102.5760726928711],
    [0.0, 0.0, 0.0, 1.0]
],
  "dcmmeta_reorient_transform": [
    [0.0, -1.0, 0.0, 103.0],
    [1.0, 0.0, 0.0, 0.0],
    [0.0, 0.0, 1.0, 0.0],
    [0.0, 0.0, 0.0, 1.0]
],
  "dcmmeta_shape": [104, 104, 60, 509],
  "dcmmeta_slice_dim": 2,
  "dcmmeta_version": 0.6,
  "global": {
    "const": {
      "AcquisitionMatrix": [104, 0, 0, 104],
      "AngioFlag": "N",
      "BitsAllocated": 16,
      "BitsStored": 16,
      "BodyPartExamined": "BRAIN",
      "Columns": 832,
      "EchoNumbers": 1,
      "EchoTime": 37.0,
      "EchoTrainLength": 104,
      "FlipAngle": 52.0,
      "HighBit": 15,
      "ImageOrientationPatient": [0.99969909470736, 0.00035957713877, 0.02452734689213, 0.01326129443546, 0.83325693652904, -0.5527268907844],
      "ImagePositionPatient": [-841.06549933037, -723.58920304349, 395.81493723585],
      "ImageType": [
        "ORIGINAL",
        "PRIMARY",
        "M",
        "MB",
        "ND",
        "MOSAIC"
],
      "ImagedNucleus": "1H",
      "ImagingFrequency": 123.249784,
      "InPlanePhaseEncodingDirection": "COL",
      "MRAcquisitionType": "2D",
      "MagneticFieldStrength": 3.0,
      "Manufacturer": "SIEMENS",
      "ManufacturerModelName": "Prisma_fit",
      "Modality": "MR",
      "NumberOfAverages": 1.0,
      "NumberOfPhaseEncodingSteps": 104,
      "PercentPhaseFieldOfView": 100.0,
      "PercentSampling": 100.0,
      "PerformedProcedureStepStartTime": "162412.694000",
      "PhotometricInterpretation": "MONOCHROME2",
      "PixelBandwidth": 2290.0,
      "PixelRepresentation": 0,
      "PixelSpacing": [2.0, 2.0],
      "ProtocolName": "func_task-friends-s07e08b",
      "RepetitionTime": 1490.0,
      "Rows": 832,
      "SAR": 0.06726518575371,
      "SamplesPerPixel": 1,
      "ScanOptions": "FS",
      "ScanningSequence": "EP",
      "SequenceName": "epfid2d1_104",
      "SequenceVariant": [
        "SK",
        "SS"
],
      "SeriesDescription": "func_task-friends-s07e08b",
      "SeriesNumber": 10,
      "SeriesTime": "163057.743000",
      "SliceLocation": -52.991305491767,
      "SliceThickness": 2.0,
      "SmallestImagePixelValue": 0,
      "SoftwareVersions": "syngo MR E11",
      "SpacingBetweenSlices": 1.999999953021,
      "SpecificCharacterSet": "ISO_IR 100",
      "StudyID": "1",
      "StudyTime": "162412.614000",
      "TransmitCoilName": "Body",
      "VariableFlipAngleFlag": "N",
      "WindowCenterWidthExplanation": "Algo1",
      "dBdt": 0.0},
    "slices": {}
  },
  "time": {
    "samples": {
      "AcquisitionNumber": [1, 2, 3, 4, 5, 6, 7, 8, 9, 10, 11, 12, 13, 14, 15, 16, 17, 18, 19, 20, 21, 22, 23, 24, 25, 26, 27, 28, 29, 30, 31, 32, 33, 34, 35, 36, 37, 38, 39, 40, 41, 42, 43, 44, 45, 46, 47, 48, 49, 50, 51, 52, 53, 54, 55, 56, 57, 58, 59, 60, 61, 62, 63, 64, 65, 66, 67, 68, 69, 70, 71, 72, 73, 74, 75, 76, 77, 78, 79, 80, 81, 82, 83, 84, 85, 86, 87, 88, 89, 90, 91, 92, 93, 94, 95, 96, 97, 98, 99, 100, 101, 102, 103, 104, 105, 106, 107, 108, 109, 110, 111, 112, 113, 114, 115, 116, 117, 118, 119, 120, 121, 122, 123, 124, 125, 126, 127, 128, 129, 130, 131, 132, 133, 134, 135, 136, 137, 138, 139, 140, 141, 142, 143, 144, 145, 146, 147, 148, 149, 150, 151, 152, 153, 154, 155, 156, 157, 158, 159, 160, 161, 162, 163, 164, 165, 166, 167, 168, 169, 170, 171, 172, 173, 174, 175, 176, 177, 178, 179, 180, 181, 182, 183, 184, 185, 186, 187, 188, 189, 190, 191, 192, 193, 194, 195, 196, 197, 198, 199, 200, 201, 202, 203, 204, 205, 206, 207, 208, 209, 210, 211, 212, 213, 214, 215, 216, 217, 218, 219, 220, 221, 222, 223, 224, 225, 226, 227, 228, 229, 230, 231, 232, 233, 234, 235, 236, 237, 238, 239, 240, 241, 242, 243, 244, 245, 246, 247, 248, 249, 250, 251, 252, 253, 254, 255, 256, 257, 258, 259, 260, 261, 262, 263, 264, 265, 266, 267, 268, 269, 270, 271, 272, 273, 274, 275, 276, 277, 278, 279, 280, 281, 282, 283, 284, 285, 286, 287, 288, 289, 290, 291, 292, 293, 294, 295, 296, 297, 298, 299, 300, 301, 302, 303, 304, 305, 306, 307, 308, 309, 310, 311, 312, 313, 314, 315, 316, 317, 318, 319, 320, 321, 322, 323, 324, 325, 326, 327, 328, 329, 330, 331, 332, 333, 334, 335, 336, 337, 338, 339, 340, 341, 342, 343, 344, 345, 346, 347, 348, 349, 350, 351, 352, 353, 354, 355, 356, 357, 358, 359, 360, 361, 362, 363, 364, 365, 366, 367, 368, 369, 370, 371, 372, 373, 374, 375, 376, 377, 378, 379, 380, 381, 382, 383, 384, 385, 386, 387, 388, 389, 390, 391, 392, 393, 394, 395, 396, 397, 398, 399, 400, 401, 402, 403, 404, 405, 406, 407, 408, 409, 410, 411, 412, 413, 414, 415, 416, 417, 418, 419, 420, 421, 422, 423, 424, 425, 426, 427, 428, 429, 430, 431, 432, 433, 434, 435, 436, 437, 438, 439, 440, 441, 442, 443, 444, 445, 446, 447, 448, 449, 450, 451, 452, 453, 454, 455, 456, 457, 458, 459, 460, 461, 462, 463, 464, 465, 466, 467, 468, 469, 470, 471, 472, 473, 474, 475, 476, 477, 478, 479, 480, 481, 482, 483, 484, 485, 486, 487, 488, 489, 490, 491, 492, 493, 494, 495, 496, 497, 498, 499, 500, 501, 502, 503, 504, 505, 506, 507, 508, 509],
      "AcquisitionTime": ["162940.697500", "162942.187500", "162943.677500", "162945.167500", "162946.657500", "162948.147500", "162949.637500", "162951.127500", "162952.617500", "162954.107500", "162955.597500", "162957.087500", "162958.577500", "163000.067500", "163001.557500", "163003.047500", "163004.537500", "163006.027500", "163007.517500", "163009.007500", "163010.497500", "163011.987500", "163013.477500", "163014.967500", "163016.457500", "163017.947500", "163019.437500", "163020.927500", "163022.417500", "163023.907500", "163025.397500", "163026.887500", "163028.377500", "163029.867500", "163031.357500", "163032.847500", "163034.337500", "163035.827500", "163037.317500", "163038.807500", "163040.297500", "163041.787500", "163043.277500", "163044.767500", "163046.257500", "163047.747500", "163049.237500", "163050.727500", "163052.217500", "163053.707500", "163055.197500", "163056.687500", "163058.177500", "163059.667500", "163101.157500", "163102.647500", "163104.137500", "163105.627500", "163107.117500", "163108.607500", "163110.097500", "163111.587500", "163113.077500", "163114.567500", "163116.057500", "163117.547500", "163119.037500", "163120.527500", "163122.017500", "163123.507500", "163124.997500", "163126.487500", "163127.977500", "163129.467500", "163130.957500", "163132.447500", "163133.937500", "163135.427500", "163136.917500", "163138.407500", "163139.897500", "163141.387500", "163142.877500", "163144.367500", "163145.857500", "163147.347500", "163148.837500", "163150.327500", "163151.817500", "163153.307500", "163154.797500", "163156.287500", "163157.777500", "163159.267500", "163200.757500", "163202.247500", "163203.737500", "163205.227500", "163206.717500", "163208.207500", "163209.697500", "163211.187500", "163212.677500", "163214.167500", "163215.657500", "163217.147500", "163218.637500", "163220.127500", "163221.617500", "163223.107500", "163224.597500", "163226.087500", "163227.577500", "163229.067500", "163230.557500", "163232.047500", "163233.537500", "163235.027500", "163236.517500", "163238.007500", "163239.497500", "163240.987500", "163242.477500", "163243.967500", "163245.457500", "163246.947500", "163248.437500", "163249.927500", "163251.417500", "163252.907500", "163254.397500", "163255.887500", "163257.377500", "163258.867500", "163300.357500", "163301.847500", "163303.337500", "163304.827500", "163306.317500", "163307.807500", "163309.297500", "163310.787500", "163312.277500", "163313.767500", "163315.257500", "163316.747500", "163318.237500", "163319.727500", "163321.217500", "163322.707500", "163324.197500", "163325.687500", "163327.177500", "163328.667500", "163330.157500", "163331.647500", "163333.137500", "163334.627500", "163336.117500", "163337.607500", "163339.097500", "163340.587500", "163342.077500", "163343.567500", "163345.057500", "163346.547500", "163348.037500", "163349.527500", "163351.017500", "163352.507500", "163353.997500", "163355.487500", "163356.977500", "163358.467500", "163359.957500", "163401.447500", "163402.937500", "163404.427500", "163405.917500", "163407.407500", "163408.897500", "163410.387500", "163411.877500", "163413.367500", "163414.857500", "163416.347500", "163417.837500", "163419.327500", "163420.817500", "163422.307500", "163423.797500", "163425.287500", "163426.777500", "163428.267500", "163429.757500", "163431.247500", "163432.737500", "163434.227500", "163435.717500", "163437.207500", "163438.697500", "163440.187500", "163441.677500", "163443.167500", "163444.657500", "163446.147500", "163447.637500", "163449.127500", "163450.617500", "163452.107500", "163453.597500", "163455.087500", "163456.577500", "163458.067500", "163459.557500", "163501.047500", "163502.537500", "163504.027500", "163505.517500", "163507.007500", "163508.497500", "163509.987500", "163511.477500", "163512.967500", "163514.457500", "163515.947500", "163517.437500", "163518.927500", "163520.417500", "163521.907500", "163523.397500", "163524.887500", "163526.377500", "163527.867500", "163529.357500", "163530.847500", "163532.337500", "163533.827500", "163535.317500", "163536.807500", "163538.297500", "163539.787500", "163541.277500", "163542.767500", "163544.257500", "163545.747500", "163547.237500", "163548.727500", "163550.217500", "163551.707500", "163553.197500", "163554.687500", "163556.177500", "163557.667500", "163559.157500", "163600.647500", "163602.137500", "163603.627500", "163605.117500", "163606.607500", "163608.097500", "163609.587500", "163611.077500", "163612.567500", "163614.057500", "163615.547500", "163617.037500", "163618.527500", "163620.017500", "163621.507500", "163622.997500", "163624.487500", "163625.977500", "163627.467500", "163628.957500", "163630.447500", "163631.937500", "163633.427500", "163634.917500", "163636.407500", "163637.897500", "163639.387500", "163640.877500", "163642.367500", "163643.857500", "163645.347500", "163646.837500", "163648.327500", "163649.817500", "163651.307500", "163652.797500", "163654.287500", "163655.777500", "163657.267500", "163658.757500", "163700.247500", "163701.737500", "163703.227500", "163704.717500", "163706.207500", "163707.697500", "163709.187500", "163710.677500", "163712.167500", "163713.657500", "163715.147500", "163716.637500", "163718.127500", "163719.617500", "163721.107500", "163722.597500", "163724.087500", "163725.577500", "163727.067500", "163728.557500", "163730.047500", "163731.537500", "163733.027500", "163734.517500", "163736.007500", "163737.497500", "163738.987500", "163740.477500", "163741.967500", "163743.457500", "163744.947500", "163746.437500", "163747.927500", "163749.417500", "163750.907500", "163752.397500", "163753.887500", "163755.377500", "163756.867500", "163758.357500", "163759.847500", "163801.337500", "163802.827500", "163804.317500", "163805.807500", "163807.297500", "163808.787500", "163810.277500", "163811.767500", "163813.257500", "163814.747500", "163816.237500", "163817.727500", "163819.217500", "163820.707500", "163822.197500", "163823.687500", "163825.177500", "163826.667500", "163828.157500", "163829.647500", "163831.137500", "163832.627500", "163834.117500", "163835.607500", "163837.097500", "163838.587500", "163840.077500", "163841.567500", "163843.057500", "163844.547500", "163846.037500", "163847.527500", "163849.017500", "163850.507500", "163851.997500", "163853.487500", "163854.977500", "163856.467500", "163857.957500", "163859.447500", "163900.937500", "163902.427500", "163903.917500", "163905.407500", "163906.897500", "163908.387500", "163909.877500", "163911.367500", "163912.857500", "163914.347500", "163915.837500", "163917.327500", "163918.817500", "163920.307500", "163921.797500", "163923.287500", "163924.777500", "163926.267500", "163927.757500", "163929.247500", "163930.737500", "163932.227500", "163933.717500", "163935.207500", "163936.697500", "163938.187500", "163939.677500", "163941.167500", "163942.657500", "163944.147500", "163945.637500", "163947.127500", "163948.617500", "163950.107500", "163951.597500", "163953.087500", "163954.577500", "163956.067500", "163957.557500", "163959.047500", "164000.537500", "164002.027500", "164003.517500", "164005.007500", "164006.497500", "164007.987500", "164009.477500", "164010.967500", "164012.457500", "164013.947500", "164015.437500", "164016.927500", "164018.417500", "164019.907500", "164021.397500", "164022.887500", "164024.377500", "164025.867500", "164027.357500", "164028.847500", "164030.337500", "164031.827500", "164033.317500", "164034.807500", "164036.297500", "164037.787500", "164039.277500", "164040.767500", "164042.257500", "164043.747500", "164045.237500", "164046.727500", "164048.217500", "164049.707500", "164051.197500", "164052.687500", "164054.177500", "164055.667500", "164057.157500", "164058.647500", "164100.137500", "164101.627500", "164103.117500", "164104.607500", "164106.097500", "164107.587500", "164109.077500", "164110.567500", "164112.057500", "164113.547500", "164115.037500", "164116.527500", "164118.017500", "164119.507500", "164120.997500", "164122.487500", "164123.977500", "164125.467500", "164126.957500", "164128.447500", "164129.937500", "164131.427500", "164132.917500", "164134.407500", "164135.897500", "164137.387500", "164138.877500", "164140.367500", "164141.857500", "164143.347500", "164144.837500", "164146.327500", "164147.817500", "164149.307500", "164150.797500", "164152.287500", "164153.777500", "164155.267500", "164156.757500", "164158.247500", "164159.737500", "164201.227500", "164202.717500", "164204.207500", "164205.697500", "164207.187500", "164208.677500", "164210.167500", "164211.657500", "164213.147500", "164214.637500", "164216.127500", "164217.617500"],
      "ContentTime": ["163057.746000", "163057.750000", "163057.769000", "163057.772000", "163057.775000", "163057.778000", "163057.781000", "163057.784000", "163057.787000", "163057.790000", "163057.792000", "163057.795000", "163057.798000", "163057.801000", "163057.804000", "163057.807000", "163057.810000", "163057.813000", "163057.815000", "163057.818000", "163057.821000", "163057.824000", "163057.827000", "163057.830000", "163057.833000", "163057.835000", "163057.838000", "163057.841000", "163057.844000", "163057.847000", "163117.698000", "163117.701000", "163117.704000", "163117.707000", "163117.710000", "163117.713000", "163117.715000", "163117.718000", "163117.721000", "163117.724000", "163117.727000", "163117.730000", "163117.733000", "163117.736000", "163117.738000", "163117.741000", "163117.744000", "163117.747000", "163117.750000", "163117.753000", "163137.698000", "163137.701000", "163137.704000", "163137.707000", "163137.709000", "163137.712000", "163137.715000", "163137.718000", "163137.721000", "163137.724000", "163137.727000", "163137.730000", "163137.733000", "163137.735000", "163137.738000", "163137.741000", "163137.744000", "163137.747000", "163137.750000", "163137.753000", "163157.697000", "163157.700000", "163157.703000", "163157.715000", "163157.718000", "163157.721000", "163157.724000", "163157.727000", "163157.730000", "163157.733000", "163157.735000", "163157.738000", "163157.741000", "163157.744000", "163157.747000", "163157.750000", "163157.753000", "163157.755000", "163157.758000", "163157.766000", "163237.697000", "163237.700000", "163237.703000", "163237.706000", "163237.709000", "163237.711000", "163237.714000", "163237.717000", "163237.720000", "163237.723000", "163237.726000", "163237.729000", "163237.732000", "163237.734000", "163237.737000", "163237.740000", "163237.743000", "163237.746000", "163237.749000", "163237.752000", "163237.754000", "163237.757000", "163237.760000", "163237.763000", "163237.766000", "163237.769000", "163237.772000", "163237.774000", "163317.698000", "163317.701000", "163317.704000", "163317.707000", "163317.710000", "163317.713000", "163317.715000", "163317.718000", "163317.721000", "163317.724000", "163317.727000", "163317.730000", "163317.733000", "163317.736000", "163317.739000", "163317.742000", "163317.745000", "163317.748000", "163317.751000", "163317.754000", "163317.756000", "163317.759000", "163317.762000", "163317.765000", "163317.768000", "163317.771000", "163317.774000", "163357.698000", "163357.701000", "163357.704000", "163357.707000", "163357.710000", "163357.713000", "163357.716000", "163357.718000", "163357.721000", "163357.724000", "163357.727000", "163357.730000", "163357.733000", "163357.736000", "163357.739000", "163357.742000", "163357.744000", "163357.747000", "163357.750000", "163357.753000", "163357.756000", "163357.759000", "163357.762000", "163357.764000", "163357.767000", "163357.770000", "163357.773000", "163437.697000", "163437.700000", "163437.703000", "163437.706000", "163437.709000", "163437.712000", "163437.715000", "163437.718000", "163437.720000", "163437.723000", "163437.726000", "163437.729000", "163437.732000", "163437.735000", "163437.738000", "163437.741000", "163437.744000", "163437.746000", "163437.749000", "163437.752000", "163437.755000", "163437.758000", "163437.761000", "163437.764000", "163437.767000", "163437.771000", "163517.697000", "163517.700000", "163517.703000", "163517.706000", "163517.709000", "163517.712000", "163517.715000", "163517.717000", "163517.720000", "163517.723000", "163517.726000", "163517.729000", "163517.732000", "163517.735000", "163517.738000", "163517.741000", "163517.744000", "163517.746000", "163517.749000", "163517.752000", "163517.755000", "163517.760000", "163517.763000", "163517.766000", "163517.769000", "163517.772000", "163517.775000", "163557.698000", "163557.701000", "163557.704000", "163557.707000", "163557.720000", "163557.723000", "163557.726000", "163557.729000", "163557.732000", "163557.735000", "163557.738000", "163557.741000", "163557.744000", "163557.747000", "163557.750000", "163557.752000", "163557.756000", "163557.758000", "163557.761000", "163557.764000", "163557.767000", "163557.770000", "163557.773000", "163557.776000", "163557.779000", "163557.782000", "163557.784000", "163637.697000", "163637.700000", "163637.703000", "163637.713000", "163637.716000", "163637.719000", "163637.721000", "163637.725000", "163637.728000", "163637.731000", "163637.733000", "163637.737000", "163637.739000", "163637.742000", "163637.745000", "163637.748000", "163637.751000", "163637.754000", "163637.757000", "163637.760000", "163637.763000", "163637.766000", "163637.769000", "163637.772000", "163637.775000", "163637.778000", "163637.780000", "163717.697000", "163717.700000", "163717.703000", "163717.706000", "163717.709000", "163717.712000", "163717.715000", "163717.717000", "163717.720000", "163717.723000", "163717.726000", "163717.729000", "163717.732000", "163717.735000", "163717.738000", "163717.741000", "163717.744000", "163717.747000", "163717.749000", "163717.752000", "163717.755000", "163717.758000", "163717.761000", "163717.764000", "163717.767000", "163717.770000", "163717.773000", "163757.698000", "163757.701000", "163757.704000", "163757.707000", "163757.710000", "163757.713000", "163757.715000", "163757.718000", "163757.721000", "163757.724000", "163757.727000", "163757.730000", "163757.733000", "163757.736000", "163757.740000", "163757.743000", "163757.746000", "163757.749000", "163757.752000", "163757.755000", "163757.758000", "163757.761000", "163757.764000", "163757.766000", "163757.769000", "163757.772000", "163757.775000", "163837.698000", "163837.701000", "163837.704000", "163837.707000", "163837.710000", "163837.712000", "163837.715000", "163837.718000", "163837.721000", "163837.724000", "163837.727000", "163837.730000", "163837.733000", "163837.736000", "163837.739000", "163837.741000", "163837.744000", "163837.747000", "163837.750000", "163837.753000", "163837.756000", "163837.759000", "163837.762000", "163837.764000", "163837.767000", "163837.770000", "163837.773000", "163917.697000", "163917.700000", "163917.703000", "163917.706000", "163917.709000", "163917.712000", "163917.715000", "163917.718000", "163917.720000", "163917.723000", "163917.726000", "163917.729000", "163917.732000", "163917.735000", "163917.738000", "163917.741000", "163917.743000", "163917.746000", "163917.761000", "163917.764000", "163917.767000", "163917.770000", "163917.773000", "163917.775000", "163917.778000", "163917.781000", "163957.697000", "163957.700000", "163957.703000", "163957.706000", "163957.709000", "163957.712000", "163957.715000", "163957.717000", "163957.720000", "163957.723000", "163957.726000", "163957.729000", "163957.732000", "163957.735000", "163957.738000", "163957.741000", "163957.743000", "163957.746000", "163957.749000", "163957.752000", "163957.755000", "163957.758000", "163957.761000", "163957.764000", "163957.767000", "163957.770000", "163957.773000", "164037.698000", "164037.701000", "164037.704000", "164037.707000", "164037.710000", "164037.713000", "164037.716000", "164037.719000", "164037.721000", "164037.724000", "164037.727000", "164037.730000", "164037.733000", "164037.736000", "164037.739000", "164037.742000", "164037.745000", "164037.747000", "164037.750000", "164037.753000", "164037.756000", "164037.759000", "164037.762000", "164037.765000", "164037.768000", "164037.771000", "164037.774000", "164117.697000", "164117.700000", "164117.703000", "164117.706000", "164117.709000", "164117.712000", "164117.714000", "164117.717000", "164117.720000", "164117.723000", "164117.726000", "164117.729000", "164117.732000", "164117.735000", "164117.738000", "164117.740000", "164117.743000", "164117.746000", "164117.749000", "164117.752000", "164117.755000", "164117.758000", "164117.761000", "164117.764000", "164117.766000", "164117.769000", "164117.772000", "164157.697000", "164157.700000", "164157.703000", "164157.706000", "164157.709000", "164157.712000", "164157.714000", "164157.717000", "164157.720000", "164157.723000", "164157.726000", "164157.729000", "164157.732000", "164157.735000", "164157.738000", "164157.741000", "164157.744000", "164157.747000", "164157.750000", "164157.753000", "164157.756000", "164157.759000", "164157.761000", "164157.764000", "164157.767000", "164157.770000", "164157.773000", "164219.719000", "164219.722000", "164219.725000", "164219.728000", "164219.731000", "164219.734000", "164219.737000", "164219.740000", "164219.743000", "164219.745000", "164219.748000", "164219.751000", "164219.754000", "164219.757000", "164219.760000"],
