{
  "AcquisitionMatrixPE": 104,
  "AcquisitionNumber": 1,
  "AcquisitionTime": "10:13:36.275000",
  "BandwidthPerPixelPhaseEncode": 17.17,
  "BaseResolution": 104,
  "BodyPartExamined": "BRAIN",
  "CoilString": "HC1-7;NC1_2",
  "ConsistencyInfo": "N4_VE11C_LATEST_20160120",
  "ConversionSoftware": "dcm2niix",
  "ConversionSoftwareVersion": "v1.0.20190902",
  "DerivedVendorReportedEchoSpacing": 0.000560011,
  "DeviceSerialNumber": "167006",
  "DwellTime": 2.1e-06,
  "EchoTime": 0.037,
  "EchoTrainLength": 104,
  "EffectiveEchoSpacing": 0.000560011,
  "FlipAngle": 52,
  "ImageComments": "Unaliased_MB4_PE3_LB",
  "ImageOrientationPatientDICOM": [0.999783, 0.0196989, -0.0068486, -0.0204188, 0.857722, -0.513707],
  "ImageType": [
    "ORIGINAL",
    "PRIMARY",
    "M",
    "MB",
    "ND",
    "MOSAIC"
],
  "ImagingFrequency": 123.259,
  "InPlanePhaseEncodingDirectionDICOM": "COL",
  "InstitutionAddress": "Chemin_Queen-Mary_4565_Montreal_District_CA_H3W_1W5",
  "InstitutionName": "IUGM",
  "InstitutionalDepartmentName": "Department",
  "MRAcquisitionType": "2D",
  "MagneticFieldStrength": 3,
  "Manufacturer": "Siemens",
  "ManufacturersModelName": "Prisma_fit",
  "Modality": "MR",
  "MultibandAccelerationFactor": 4,
  "PartialFourier": 1,
  "PatientPosition": "HFS",
  "PercentPhaseFOV": 100,
  "PhaseEncodingDirection": "j",
  "PhaseEncodingSteps": 104,
  "PhaseResolution": 1,
  "PixelBandwidth": 2290,
  "ProcedureStepDescription": "video_friends",
  "ProtocolName": "func_task-friends-s04e06b",
  "PulseSequenceDetails": "%CustomerSeq%_cmrr_mbep2d_bold",
  "ReceiveCoilActiveElements": "HC1-7;NC1,2",
  "ReceiveCoilName": "HeadNeck_64",
  "ReconMatrixPE": 104,
  "RepetitionTime": 1.49,
  "SAR": 0.0368897,
  "ScanOptions": "FS",
  "ScanningSequence": "EP",
  "SequenceName": "epfid2d1_104",
  "SequenceVariant": "SK_SS",
  "SeriesDescription": "func_task-friends-s04e06b",
  "SeriesNumber": 15,
  "ShimSetting": [622, -7204, -8852, 391, -11, -182, -30, -17],
  "SliceThickness": 2,
  "SliceTiming": [0, 0.7825, 0.0975, 0.8825, 0.195, 0.98, 0.2925, 1.0775, 0.3925, 1.175, 0.49, 1.2725, 0.5875, 1.3725, 0.685, 0, 0.7825, 0.0975, 0.8825, 0.195, 0.98, 0.2925, 1.0775, 0.3925, 1.175, 0.49, 1.2725, 0.5875, 1.3725, 0.685, 0, 0.7825, 0.0975, 0.8825, 0.195, 0.98, 0.2925, 1.0775, 0.3925, 1.175, 0.49, 1.2725, 0.5875, 1.3725, 0.685, 0, 0.7825, 0.0975, 0.8825, 0.195, 0.98, 0.2925, 1.0775, 0.3925, 1.175, 0.49, 1.2725, 0.5875, 1.3725, 0.685],
  "SoftwareVersions": "syngo_MR_E11",
  "SpacingBetweenSlices": 2,
  "StationName": "MRC35049",
  "TaskName": "s04e06b",
  "TotalReadoutTime": 0.0576811,
  "TxRefAmp": 252.334,
  "WipMemBlock": "1fa4e516-c9f3-4234-9ba1-4a396d83acea||Sequence: R016 ve11c/master r/e634e98; Dec 19 2017 11:00:25 by eja",
  "dcmmeta_affine": [
    [-1.9995650053024292, -0.040837567299604416, 0.008490518666803837, 105.11747741699219],
    [-0.039397746324539185, 1.7154449224472046, -1.0274709463119507, -56.87438201904297],
    [-0.01369719672948122, 1.0274146795272827, 1.7158763408660889, -92.99913787841797],
    [0.0, 0.0, 0.0, 1.0]
],
  "dcmmeta_reorient_transform": [
    [0.0, -1.0, 0.0, 103.0],
    [1.0, 0.0, 0.0, 0.0],
    [0.0, 0.0, 1.0, 0.0],
    [0.0, 0.0, 0.0, 1.0]
],
  "dcmmeta_shape": [104, 104, 60, 465],
  "dcmmeta_slice_dim": 2,
  "dcmmeta_version": 0.6,
  "global": {
    "const": {
      "AcquisitionMatrix": [104, 0, 0, 104],
      "AngioFlag": "N",
      "BitsAllocated": 16,
      "BitsStored": 16,
      "BodyPartExamined": "BRAIN",
      "Columns": 832,
      "EchoNumbers": 1,
      "EchoTime": 37.0,
      "EchoTrainLength": 104,
      "FlipAngle": 52.0,
      "HighBit": 15,
      "ImageOrientationPatient": [0.99978250188087, 0.01969887395197, -0.0068485982399, -0.0204187831315, 0.85772247409589, -0.5137073395682],
      "ImagePositionPatient": [-813.88799181472, -758.57918826954, 391.78930020509],
      "ImageType": [
        "ORIGINAL",
        "PRIMARY",
        "M",
        "MB",
        "ND",
        "MOSAIC"
],
      "ImagedNucleus": "1H",
      "ImagingFrequency": 123.25904,
      "InPlanePhaseEncodingDirection": "COL",
      "MRAcquisitionType": "2D",
      "MagneticFieldStrength": 3.0,
      "Manufacturer": "SIEMENS",
      "ManufacturerModelName": "Prisma_fit",
      "Modality": "MR",
      "NumberOfAverages": 1.0,
      "NumberOfPhaseEncodingSteps": 104,
      "PercentPhaseFieldOfView": 100.0,
      "PercentSampling": 100.0,
      "PerformedProcedureStepStartTime": "092706.051000",
      "PhotometricInterpretation": "MONOCHROME2",
      "PixelBandwidth": 2290.0,
      "PixelRepresentation": 0,
      "PixelSpacing": [2.0, 2.0],
      "ProtocolName": "func_task-friends-s04e06b",
      "RepetitionTime": 1490.0,
      "Rows": 832,
      "SAR": 0.03688969098622,
      "SamplesPerPixel": 1,
      "ScanOptions": "FS",
      "ScanningSequence": "EP",
      "SequenceName": "epfid2d1_104",
      "SequenceVariant": [
        "SK",
        "SS"
],
      "SeriesDescription": "func_task-friends-s04e06b",
      "SeriesNumber": 15,
      "SeriesTime": "101504.294000",
      "SliceLocation": -50.122867664238,
      "SliceThickness": 2.0,
      "SmallestImagePixelValue": 0,
      "SoftwareVersions": "syngo MR E11",
      "SpacingBetweenSlices": 2.0000000057922,
      "SpecificCharacterSet": "ISO_IR 100",
      "StudyID": "1",
      "StudyTime": "092705.963000",
      "TransmitCoilName": "Body",
      "VariableFlipAngleFlag": "N",
      "WindowCenterWidthExplanation": "Algo1",
      "dBdt": 0.0},
    "slices": {}
  },
  "time": {
    "samples": {
      "AcquisitionNumber": [1, 2, 3, 4, 5, 6, 7, 8, 9, 10, 11, 12, 13, 14, 15, 16, 17, 18, 19, 20, 21, 22, 23, 24, 25, 26, 27, 28, 29, 30, 31, 32, 33, 34, 35, 36, 37, 38, 39, 40, 41, 42, 43, 44, 45, 46, 47, 48, 49, 50, 51, 52, 53, 54, 55, 56, 57, 58, 59, 60, 61, 62, 63, 64, 65, 66, 67, 68, 69, 70, 71, 72, 73, 74, 75, 76, 77, 78, 79, 80, 81, 82, 83, 84, 85, 86, 87, 88, 89, 90, 91, 92, 93, 94, 95, 96, 97, 98, 99, 100, 101, 102, 103, 104, 105, 106, 107, 108, 109, 110, 111, 112, 113, 114, 115, 116, 117, 118, 119, 120, 121, 122, 123, 124, 125, 126, 127, 128, 129, 130, 131, 132, 133, 134, 135, 136, 137, 138, 139, 140, 141, 142, 143, 144, 145, 146, 147, 148, 149, 150, 151, 152, 153, 154, 155, 156, 157, 158, 159, 160, 161, 162, 163, 164, 165, 166, 167, 168, 169, 170, 171, 172, 173, 174, 175, 176, 177, 178, 179, 180, 181, 182, 183, 184, 185, 186, 187, 188, 189, 190, 191, 192, 193, 194, 195, 196, 197, 198, 199, 200, 201, 202, 203, 204, 205, 206, 207, 208, 209, 210, 211, 212, 213, 214, 215, 216, 217, 218, 219, 220, 221, 222, 223, 224, 225, 226, 227, 228, 229, 230, 231, 232, 233, 234, 235, 236, 237, 238, 239, 240, 241, 242, 243, 244, 245, 246, 247, 248, 249, 250, 251, 252, 253, 254, 255, 256, 257, 258, 259, 260, 261, 262, 263, 264, 265, 266, 267, 268, 269, 270, 271, 272, 273, 274, 275, 276, 277, 278, 279, 280, 281, 282, 283, 284, 285, 286, 287, 288, 289, 290, 291, 292, 293, 294, 295, 296, 297, 298, 299, 300, 301, 302, 303, 304, 305, 306, 307, 308, 309, 310, 311, 312, 313, 314, 315, 316, 317, 318, 319, 320, 321, 322, 323, 324, 325, 326, 327, 328, 329, 330, 331, 332, 333, 334, 335, 336, 337, 338, 339, 340, 341, 342, 343, 344, 345, 346, 347, 348, 349, 350, 351, 352, 353, 354, 355, 356, 357, 358, 359, 360, 361, 362, 363, 364, 365, 366, 367, 368, 369, 370, 371, 372, 373, 374, 375, 376, 377, 378, 379, 380, 381, 382, 383, 384, 385, 386, 387, 388, 389, 390, 391, 392, 393, 394, 395, 396, 397, 398, 399, 400, 401, 402, 403, 404, 405, 406, 407, 408, 409, 410, 411, 412, 413, 414, 415, 416, 417, 418, 419, 420, 421, 422, 423, 424, 425, 426, 427, 428, 429, 430, 431, 432, 433, 434, 435, 436, 437, 438, 439, 440, 441, 442, 443, 444, 445, 446, 447, 448, 449, 450, 451, 452, 453, 454, 455, 456, 457, 458, 459, 460, 461, 462, 463, 464, 465],
      "AcquisitionTime": ["101336.275000", "101337.765000", "101339.255000", "101340.745000", "101342.235000", "101343.725000", "101345.215000", "101346.705000", "101348.195000", "101349.685000", "101351.175000", "101352.665000", "101354.155000", "101355.645000", "101357.135000", "101358.625000", "101400.115000", "101401.605000", "101403.095000", "101404.585000", "101406.075000", "101407.565000", "101409.055000", "101410.545000", "101412.035000", "101413.525000", "101415.015000", "101416.505000", "101417.995000", "101419.485000", "101420.975000", "101422.465000", "101423.955000", "101425.445000", "101426.935000", "101428.425000", "101429.915000", "101431.405000", "101432.895000", "101434.385000", "101435.875000", "101437.365000", "101438.855000", "101440.345000", "101441.835000", "101443.325000", "101444.815000", "101446.305000", "101447.795000", "101449.285000", "101450.775000", "101452.265000", "101453.755000", "101455.245000", "101456.735000", "101458.225000", "101459.715000", "101501.205000", "101502.695000", "101504.185000", "101505.675000", "101507.165000", "101508.655000", "101510.145000", "101511.635000", "101513.125000", "101514.615000", "101516.105000", "101517.595000", "101519.085000", "101520.575000", "101522.065000", "101523.555000", "101525.045000", "101526.535000", "101528.025000", "101529.515000", "101531.005000", "101532.495000", "101533.985000", "101535.475000", "101536.965000", "101538.455000", "101539.945000", "101541.435000", "101542.925000", "101544.415000", "101545.905000", "101547.395000", "101548.885000", "101550.375000", "101551.865000", "101553.355000", "101554.845000", "101556.335000", "101557.825000", "101559.315000", "101600.805000", "101602.295000", "101603.785000", "101605.275000", "101606.765000", "101608.255000", "101609.745000", "101611.235000", "101612.725000", "101614.215000", "101615.705000", "101617.195000", "101618.685000", "101620.175000", "101621.665000", "101623.155000", "101624.645000", "101626.135000", "101627.625000", "101629.115000", "101630.605000", "101632.095000", "101633.585000", "101635.075000", "101636.565000", "101638.055000", "101639.545000", "101641.035000", "101642.525000", "101644.015000", "101645.505000", "101646.995000", "101648.485000", "101649.975000", "101651.465000", "101652.955000", "101654.445000", "101655.935000", "101657.425000", "101658.915000", "101700.405000", "101701.895000", "101703.385000", "101704.875000", "101706.365000", "101707.855000", "101709.345000", "101710.835000", "101712.325000", "101713.815000", "101715.305000", "101716.795000", "101718.285000", "101719.775000", "101721.265000", "101722.755000", "101724.245000", "101725.735000", "101727.225000", "101728.715000", "101730.205000", "101731.695000", "101733.185000", "101734.675000", "101736.165000", "101737.655000", "101739.145000", "101740.635000", "101742.125000", "101743.615000", "101745.105000", "101746.595000", "101748.085000", "101749.575000", "101751.065000", "101752.555000", "101754.045000", "101755.535000", "101757.025000", "101758.515000", "101800.005000", "101801.495000", "101802.985000", "101804.475000", "101805.965000", "101807.455000", "101808.945000", "101810.435000", "101811.925000", "101813.415000", "101814.905000", "101816.395000", "101817.885000", "101819.375000", "101820.865000", "101822.355000", "101823.845000", "101825.335000", "101826.825000", "101828.315000", "101829.805000", "101831.295000", "101832.785000", "101834.275000", "101835.765000", "101837.255000", "101838.745000", "101840.235000", "101841.725000", "101843.215000", "101844.705000", "101846.195000", "101847.685000", "101849.175000", "101850.665000", "101852.155000", "101853.645000", "101855.135000", "101856.625000", "101858.115000", "101859.605000", "101901.095000", "101902.585000", "101904.075000", "101905.565000", "101907.055000", "101908.545000", "101910.035000", "101911.525000", "101913.015000", "101914.505000", "101915.995000", "101917.485000", "101918.975000", "101920.465000", "101921.955000", "101923.445000", "101924.935000", "101926.425000", "101927.915000", "101929.405000", "101930.895000", "101932.385000", "101933.875000", "101935.365000", "101936.855000", "101938.345000", "101939.835000", "101941.325000", "101942.815000", "101944.305000", "101945.795000", "101947.285000", "101948.775000", "101950.265000", "101951.755000", "101953.245000", "101954.735000", "101956.225000", "101957.715000", "101959.205000", "102000.695000", "102002.185000", "102003.675000", "102005.165000", "102006.655000", "102008.145000", "102009.635000", "102011.125000", "102012.615000", "102014.105000", "102015.595000", "102017.085000", "102018.575000", "102020.065000", "102021.555000", "102023.045000", "102024.535000", "102026.025000", "102027.515000", "102029.005000", "102030.495000", "102031.985000", "102033.475000", "102034.965000", "102036.455000", "102037.945000", "102039.435000", "102040.925000", "102042.415000", "102043.905000", "102045.395000", "102046.885000", "102048.375000", "102049.865000", "102051.355000", "102052.845000", "102054.335000", "102055.825000", "102057.315000", "102058.805000", "102100.295000", "102101.785000", "102103.275000", "102104.765000", "102106.255000", "102107.745000", "102109.235000", "102110.725000", "102112.215000", "102113.705000", "102115.195000", "102116.685000", "102118.175000", "102119.665000", "102121.155000", "102122.645000", "102124.135000", "102125.625000", "102127.115000", "102128.605000", "102130.095000", "102131.585000", "102133.075000", "102134.565000", "102136.055000", "102137.545000", "102139.035000", "102140.525000", "102142.015000", "102143.505000", "102144.995000", "102146.485000", "102147.975000", "102149.465000", "102150.955000", "102152.445000", "102153.935000", "102155.425000", "102156.915000", "102158.405000", "102159.895000", "102201.385000", "102202.875000", "102204.365000", "102205.855000", "102207.345000", "102208.835000", "102210.325000", "102211.815000", "102213.305000", "102214.795000", "102216.285000", "102217.775000", "102219.265000", "102220.755000", "102222.245000", "102223.735000", "102225.225000", "102226.715000", "102228.205000", "102229.695000", "102231.185000", "102232.675000", "102234.165000", "102235.655000", "102237.145000", "102238.635000", "102240.125000", "102241.615000", "102243.105000", "102244.595000", "102246.085000", "102247.575000", "102249.065000", "102250.555000", "102252.045000", "102253.535000", "102255.025000", "102256.515000", "102258.005000", "102259.495000", "102300.985000", "102302.475000", "102303.965000", "102305.455000", "102306.945000", "102308.435000", "102309.925000", "102311.415000", "102312.905000", "102314.395000", "102315.885000", "102317.375000", "102318.865000", "102320.355000", "102321.845000", "102323.335000", "102324.825000", "102326.315000", "102327.805000", "102329.295000", "102330.785000", "102332.275000", "102333.765000", "102335.255000", "102336.745000", "102338.235000", "102339.725000", "102341.215000", "102342.705000", "102344.195000", "102345.685000", "102347.175000", "102348.665000", "102350.155000", "102351.645000", "102353.135000", "102354.625000", "102356.115000", "102357.605000", "102359.095000", "102400.585000", "102402.075000", "102403.565000", "102405.055000", "102406.545000", "102408.035000", "102409.525000", "102411.015000", "102412.505000", "102413.995000", "102415.485000", "102416.975000", "102418.465000", "102419.955000", "102421.445000", "102422.935000", "102424.425000", "102425.915000", "102427.405000", "102428.895000", "102430.385000", "102431.875000", "102433.365000", "102434.855000", "102436.345000", "102437.835000", "102439.325000", "102440.815000", "102442.305000", "102443.795000", "102445.285000", "102446.775000", "102448.265000", "102449.755000", "102451.245000", "102452.735000", "102454.225000", "102455.715000", "102457.205000", "102458.695000", "102500.185000", "102501.675000", "102503.165000", "102504.655000", "102506.145000", "102507.635000"],
      "ContentTime": ["101504.297000", "101504.300000", "101504.303000", "101504.306000", "101504.310000", "101504.313000", "101504.316000", "101504.319000", "101504.322000", "101504.325000", "101504.328000", "101504.331000", "101504.333000", "101504.336000", "101504.339000", "101504.342000", "101504.345000", "101504.348000", "101504.353000", "101504.356000", "101504.359000", "101504.362000", "101504.364000", "101504.367000", "101504.371000", "101504.375000", "101504.377000", "101504.380000", "101504.383000", "101504.386000", "101504.389000", "101504.392000", "101504.395000", "101504.398000", "101504.400000", "101524.253000", "101524.256000", "101524.258000", "101524.261000", "101524.264000", "101524.267000", "101524.270000", "101524.273000", "101524.276000", "101524.279000", "101524.282000", "101524.285000", "101524.293000", "101524.296000", "101524.299000", "101524.302000", "101524.305000", "101524.308000", "101524.311000", "101524.314000", "101544.253000", "101544.256000", "101544.258000", "101544.268000", "101544.270000", "101544.273000", "101544.276000", "101544.279000", "101544.282000", "101544.285000", "101544.288000", "101544.291000", "101544.294000", "101544.297000", "101544.299000", "101544.302000", "101544.305000", "101544.308000", "101544.311000", "101544.314000", "101604.253000", "101604.256000", "101604.259000", "101604.262000", "101604.264000", "101604.267000", "101604.270000", "101604.273000", "101604.276000", "101604.279000", "101604.282000", "101604.285000", "101604.288000", "101604.290000", "101604.293000", "101604.296000", "101604.299000", "101604.302000", "101604.305000", "101604.308000", "101644.253000", "101644.257000", "101644.262000", "101644.266000", "101644.269000", "101644.272000", "101644.275000", "101644.278000", "101644.281000", "101644.284000", "101644.287000", "101644.290000", "101644.293000", "101644.296000", "101644.299000", "101644.301000", "101644.304000", "101644.307000", "101644.310000", "101644.313000", "101644.316000", "101644.319000", "101644.322000", "101644.325000", "101644.328000", "101644.331000", "101644.334000", "101644.337000", "101644.339000", "101644.342000", "101724.253000", "101724.256000", "101724.259000", "101724.262000", "101724.265000", "101724.267000", "101724.270000", "101724.273000", "101724.276000", "101724.279000", "101724.282000", "101724.285000", "101724.288000", "101724.291000", "101724.293000", "101724.296000", "101724.299000", "101724.302000", "101724.305000", "101724.308000", "101724.311000", "101724.314000", "101724.317000", "101724.320000", "101724.322000", "101724.325000", "101724.328000", "101804.253000", "101804.256000", "101804.259000", "101804.262000", "101804.265000", "101804.267000", "101804.270000", "101804.273000", "101804.276000", "101804.279000", "101804.282000", "101804.285000", "101804.288000", "101804.291000", "101804.295000", "101804.304000", "101804.306000", "101804.309000", "101804.312000", "101804.315000", "101804.318000", "101804.321000", "101804.324000", "101804.326000", "101804.329000", "101804.332000", "101804.335000", "101844.253000", "101844.256000", "101844.259000", "101844.262000", "101844.264000", "101844.267000", "101844.270000", "101844.273000", "101844.276000", "101844.279000", "101844.282000", "101844.285000", "101844.288000", "101844.291000", "101844.293000", "101844.296000", "101844.309000", "101844.312000", "101844.315000", "101844.317000", "101844.320000", "101844.323000", "101844.326000", "101844.329000", "101844.332000", "101844.335000", "101844.337000", "101924.253000", "101924.256000", "101924.259000", "101924.262000", "101924.265000", "101924.267000", "101924.270000", "101924.273000", "101924.276000", "101924.279000", "101924.282000", "101924.285000", "101924.288000", "101924.291000", "101924.293000", "101924.296000", "101924.299000", "101924.302000", "101924.305000", "101924.308000", "101924.311000", "101924.314000", "101924.317000", "101924.320000", "101924.323000", "101924.326000", "101924.329000", "102004.253000", "102004.256000", "102004.259000", "102004.262000", "102004.265000", "102004.268000", "102004.271000", "102004.274000", "102004.277000", "102004.280000", "102004.283000", "102004.286000", "102004.288000", "102004.291000", "102004.294000", "102004.297000", "102004.300000", "102004.303000", "102004.306000", "102004.309000", "102004.311000", "102004.314000", "102004.325000", "102004.328000", "102004.331000", "102004.334000", "102004.337000", "102044.253000", "102044.256000", "102044.259000", "102044.262000", "102044.265000", "102044.267000", "102044.271000", "102044.273000", "102044.276000", "102044.279000", "102044.282000", "102044.285000", "102044.288000", "102044.291000", "102044.294000", "102044.297000", "102044.299000", "102044.302000", "102044.305000", "102044.308000", "102044.311000", "102044.314000", "102044.317000", "102044.320000", "102044.323000", "102044.326000", "102044.329000", "102124.254000", "102124.257000", "102124.260000", "102124.263000", "102124.266000", "102124.269000", "102124.272000", "102124.275000", "102124.278000", "102124.281000", "102124.283000", "102124.286000", "102124.289000", "102124.292000", "102124.295000", "102124.298000", "102124.301000", "102124.304000", "102124.307000", "102124.311000", "102124.314000", "102124.317000", "102124.320000", "102124.323000", "102124.326000", "102124.329000", "102204.253000", "102204.256000", "102204.259000", "102204.262000", "102204.264000", "102204.267000", "102204.270000", "102204.273000", "102204.276000", "102204.279000", "102204.282000", "102204.285000", "102204.288000", "102204.290000", "102204.293000", "102204.296000", "102204.299000", "102204.302000", "102204.305000", "102204.308000", "102204.311000", "102204.313000", "102204.316000", "102204.319000", "102204.322000", "102204.325000", "102204.328000", "102244.253000", "102244.256000", "102244.259000", "102244.262000", "102244.265000", "102244.267000", "102244.270000", "102244.273000", "102244.276000", "102244.279000", "102244.290000", "102244.293000", "102244.307000", "102244.309000", "102244.312000", "102244.315000", "102244.318000", "102244.321000", "102244.324000", "102244.327000", "102244.330000", "102244.332000", "102244.335000", "102244.338000", "102244.341000", "102244.344000", "102244.347000", "102324.253000", "102324.256000", "102324.259000", "102324.262000", "102324.265000", "102324.268000", "102324.270000", "102324.273000", "102324.276000", "102324.279000", "102324.282000", "102324.285000", "102324.288000", "102324.291000", "102324.294000", "102324.297000", "102324.299000", "102324.302000", "102324.305000", "102324.308000", "102324.311000", "102324.314000", "102324.317000", "102324.319000", "102324.322000", "102324.325000", "102324.328000", "102404.253000", "102404.256000", "102404.259000", "102404.262000", "102404.265000", "102404.268000", "102404.271000", "102404.274000", "102404.277000", "102404.280000", "102404.282000", "102404.285000", "102404.288000", "102404.291000", "102404.294000", "102404.297000", "102404.300000", "102404.303000", "102404.306000", "102404.308000", "102404.311000", "102404.314000", "102404.317000", "102404.320000", "102404.323000", "102404.326000", "102404.329000", "102444.253000", "102444.256000", "102444.259000", "102444.262000", "102444.265000", "102444.268000", "102444.270000", "102444.274000", "102444.276000", "102444.279000", "102444.282000", "102444.285000", "102444.288000", "102444.291000", "102444.294000", "102444.297000", "102444.300000", "102444.302000", "102444.305000", "102444.308000", "102444.311000", "102444.314000", "102444.317000", "102444.320000", "102444.323000", "102444.326000", "102444.329000", "102509.436000", "102509.439000", "102509.451000", "102509.454000", "102509.457000", "102509.460000", "102509.463000", "102509.466000", "102509.469000", "102509.472000", "102509.475000", "102509.478000", "102509.480000", "102509.483000", "102509.486000", "102509.489000", "102509.492000"],
