{
  "AcquisitionMatrixPE": 104,
  "AcquisitionNumber": 1,
  "AcquisitionTime": "10:01:28.207500",
  "BandwidthPerPixelPhaseEncode": 17.17,
  "BaseResolution": 104,
  "BodyPartExamined": "BRAIN",
  "CoilString": "HC1-7;NC1_2",
  "ConsistencyInfo": "N4_VE11C_LATEST_20160120",
  "ConversionSoftware": "dcm2niix",
  "ConversionSoftwareVersion": "v1.0.20190902",
  "DerivedVendorReportedEchoSpacing": 0.000560011,
  "DeviceSerialNumber": "167006",
  "DwellTime": 2.1e-06,
  "EchoTime": 0.037,
  "EchoTrainLength": 104,
  "EffectiveEchoSpacing": 0.000560011,
  "FlipAngle": 52,
  "ImageComments": "Unaliased_MB4_PE3_LB",
  "ImageOrientationPatientDICOM": [0.999783, 0.0196989, -0.0068486, -0.0204188, 0.857722, -0.513707],
  "ImageType": [
    "ORIGINAL",
    "PRIMARY",
    "M",
    "MB",
    "ND",
    "MOSAIC"
],
  "ImagingFrequency": 123.259,
  "InPlanePhaseEncodingDirectionDICOM": "COL",
  "InstitutionAddress": "Chemin_Queen-Mary_4565_Montreal_District_CA_H3W_1W5",
  "InstitutionName": "IUGM",
  "InstitutionalDepartmentName": "Department",
  "MRAcquisitionType": "2D",
  "MagneticFieldStrength": 3,
  "Manufacturer": "Siemens",
  "ManufacturersModelName": "Prisma_fit",
  "Modality": "MR",
  "MultibandAccelerationFactor": 4,
  "PartialFourier": 1,
  "PatientPosition": "HFS",
  "PercentPhaseFOV": 100,
  "PhaseEncodingDirection": "j",
  "PhaseEncodingSteps": 104,
  "PhaseResolution": 1,
  "PixelBandwidth": 2290,
  "ProcedureStepDescription": "video_friends",
  "ProtocolName": "func_task-friends-s04e06a",
  "PulseSequenceDetails": "%CustomerSeq%_cmrr_mbep2d_bold",
  "ReceiveCoilActiveElements": "HC1-7;NC1,2",
  "ReceiveCoilName": "HeadNeck_64",
  "ReconMatrixPE": 104,
  "RepetitionTime": 1.49,
  "SAR": 0.0368897,
  "ScanOptions": "FS",
  "ScanningSequence": "EP",
  "SequenceName": "epfid2d1_104",
  "SequenceVariant": "SK_SS",
  "SeriesDescription": "func_task-friends-s04e06a",
  "SeriesNumber": 13,
  "ShimSetting": [622, -7204, -8852, 391, -11, -182, -30, -17],
  "SliceThickness": 2,
  "SliceTiming": [0, 0.785, 0.0975, 0.8825, 0.1975, 0.98, 0.295, 1.0775, 0.3925, 1.175, 0.49, 1.275, 0.5875, 1.3725, 0.685, 0, 0.785, 0.0975, 0.8825, 0.1975, 0.98, 0.295, 1.0775, 0.3925, 1.175, 0.49, 1.275, 0.5875, 1.3725, 0.685, 0, 0.785, 0.0975, 0.8825, 0.1975, 0.98, 0.295, 1.0775, 0.3925, 1.175, 0.49, 1.275, 0.5875, 1.3725, 0.685, 0, 0.785, 0.0975, 0.8825, 0.1975, 0.98, 0.295, 1.0775, 0.3925, 1.175, 0.49, 1.275, 0.5875, 1.3725, 0.685],
  "SoftwareVersions": "syngo_MR_E11",
  "SpacingBetweenSlices": 2,
  "StationName": "MRC35049",
  "TaskName": "s04e06a",
  "TotalReadoutTime": 0.0576811,
  "TxRefAmp": 252.334,
  "WipMemBlock": "8f127dbc-cafa-4fb2-8a53-899c2ac64a57||Sequence: R016 ve11c/master r/e634e98; Dec 19 2017 11:00:25 by eja",
  "dcmmeta_affine": [
    [-1.9995650053024292, -0.040837567299604416, 0.008490518666803837, 105.11747741699219],
    [-0.039397746324539185, 1.7154449224472046, -1.0274709463119507, -56.87438201904297],
    [-0.01369719672948122, 1.0274146795272827, 1.7158763408660889, -92.99913787841797],
    [0.0, 0.0, 0.0, 1.0]
],
  "dcmmeta_reorient_transform": [
    [0.0, -1.0, 0.0, 103.0],
    [1.0, 0.0, 0.0, 0.0],
    [0.0, 0.0, 1.0, 0.0],
    [0.0, 0.0, 0.0, 1.0]
],
  "dcmmeta_shape": [104, 104, 60, 465],
  "dcmmeta_slice_dim": 2,
  "dcmmeta_version": 0.6,
  "global": {
    "const": {
      "AcquisitionMatrix": [104, 0, 0, 104],
      "AngioFlag": "N",
      "BitsAllocated": 16,
      "BitsStored": 16,
      "BodyPartExamined": "BRAIN",
      "Columns": 832,
      "EchoNumbers": 1,
      "EchoTime": 37.0,
      "EchoTrainLength": 104,
      "FlipAngle": 52.0,
      "HighBit": 15,
      "ImageOrientationPatient": [0.99978250188087, 0.01969887395197, -0.0068485982399, -0.0204187831315, 0.85772247409589, -0.5137073395682],
      "ImagePositionPatient": [-813.88799181472, -758.57918826954, 391.78930020509],
      "ImageType": [
        "ORIGINAL",
        "PRIMARY",
        "M",
        "MB",
        "ND",
        "MOSAIC"
],
      "ImagedNucleus": "1H",
      "ImagingFrequency": 123.259038,
      "InPlanePhaseEncodingDirection": "COL",
      "MRAcquisitionType": "2D",
      "MagneticFieldStrength": 3.0,
      "Manufacturer": "SIEMENS",
      "ManufacturerModelName": "Prisma_fit",
      "Modality": "MR",
      "NumberOfAverages": 1.0,
      "NumberOfPhaseEncodingSteps": 104,
      "PercentPhaseFieldOfView": 100.0,
      "PercentSampling": 100.0,
      "PerformedProcedureStepStartTime": "092706.051000",
      "PhotometricInterpretation": "MONOCHROME2",
      "PixelBandwidth": 2290.0,
      "PixelRepresentation": 0,
      "PixelSpacing": [2.0, 2.0],
      "ProtocolName": "func_task-friends-s04e06a",
      "RepetitionTime": 1490.0,
      "Rows": 832,
      "SAR": 0.03688969098622,
      "SamplesPerPixel": 1,
      "ScanOptions": "FS",
      "ScanningSequence": "EP",
      "SequenceName": "epfid2d1_104",
      "SequenceVariant": [
        "SK",
        "SS"
],
      "SeriesDescription": "func_task-friends-s04e06a",
      "SeriesNumber": 13,
      "SeriesTime": "100224.141000",
      "SliceLocation": -50.122867664238,
      "SliceThickness": 2.0,
      "SmallestImagePixelValue": 0,
      "SoftwareVersions": "syngo MR E11",
      "SpacingBetweenSlices": 2.0000000057922,
      "SpecificCharacterSet": "ISO_IR 100",
      "StudyID": "1",
      "StudyTime": "092705.963000",
      "TransmitCoilName": "Body",
      "VariableFlipAngleFlag": "N",
      "WindowCenterWidthExplanation": "Algo1",
      "dBdt": 0.0},
    "slices": {}
  },
  "time": {
    "samples": {
      "AcquisitionNumber": [1, 2, 3, 4, 5, 6, 7, 8, 9, 10, 11, 12, 13, 14, 15, 16, 17, 18, 19, 20, 21, 22, 23, 24, 25, 26, 27, 28, 29, 30, 31, 32, 33, 34, 35, 36, 37, 38, 39, 40, 41, 42, 43, 44, 45, 46, 47, 48, 49, 50, 51, 52, 53, 54, 55, 56, 57, 58, 59, 60, 61, 62, 63, 64, 65, 66, 67, 68, 69, 70, 71, 72, 73, 74, 75, 76, 77, 78, 79, 80, 81, 82, 83, 84, 85, 86, 87, 88, 89, 90, 91, 92, 93, 94, 95, 96, 97, 98, 99, 100, 101, 102, 103, 104, 105, 106, 107, 108, 109, 110, 111, 112, 113, 114, 115, 116, 117, 118, 119, 120, 121, 122, 123, 124, 125, 126, 127, 128, 129, 130, 131, 132, 133, 134, 135, 136, 137, 138, 139, 140, 141, 142, 143, 144, 145, 146, 147, 148, 149, 150, 151, 152, 153, 154, 155, 156, 157, 158, 159, 160, 161, 162, 163, 164, 165, 166, 167, 168, 169, 170, 171, 172, 173, 174, 175, 176, 177, 178, 179, 180, 181, 182, 183, 184, 185, 186, 187, 188, 189, 190, 191, 192, 193, 194, 195, 196, 197, 198, 199, 200, 201, 202, 203, 204, 205, 206, 207, 208, 209, 210, 211, 212, 213, 214, 215, 216, 217, 218, 219, 220, 221, 222, 223, 224, 225, 226, 227, 228, 229, 230, 231, 232, 233, 234, 235, 236, 237, 238, 239, 240, 241, 242, 243, 244, 245, 246, 247, 248, 249, 250, 251, 252, 253, 254, 255, 256, 257, 258, 259, 260, 261, 262, 263, 264, 265, 266, 267, 268, 269, 270, 271, 272, 273, 274, 275, 276, 277, 278, 279, 280, 281, 282, 283, 284, 285, 286, 287, 288, 289, 290, 291, 292, 293, 294, 295, 296, 297, 298, 299, 300, 301, 302, 303, 304, 305, 306, 307, 308, 309, 310, 311, 312, 313, 314, 315, 316, 317, 318, 319, 320, 321, 322, 323, 324, 325, 326, 327, 328, 329, 330, 331, 332, 333, 334, 335, 336, 337, 338, 339, 340, 341, 342, 343, 344, 345, 346, 347, 348, 349, 350, 351, 352, 353, 354, 355, 356, 357, 358, 359, 360, 361, 362, 363, 364, 365, 366, 367, 368, 369, 370, 371, 372, 373, 374, 375, 376, 377, 378, 379, 380, 381, 382, 383, 384, 385, 386, 387, 388, 389, 390, 391, 392, 393, 394, 395, 396, 397, 398, 399, 400, 401, 402, 403, 404, 405, 406, 407, 408, 409, 410, 411, 412, 413, 414, 415, 416, 417, 418, 419, 420, 421, 422, 423, 424, 425, 426, 427, 428, 429, 430, 431, 432, 433, 434, 435, 436, 437, 438, 439, 440, 441, 442, 443, 444, 445, 446, 447, 448, 449, 450, 451, 452, 453, 454, 455, 456, 457, 458, 459, 460, 461, 462, 463, 464, 465],
      "AcquisitionTime": ["100128.207500", "100129.697500", "100131.187500", "100132.677500", "100134.167500", "100135.657500", "100137.147500", "100138.637500", "100140.127500", "100141.617500", "100143.107500", "100144.597500", "100146.087500", "100147.577500", "100149.067500", "100150.557500", "100152.047500", "100153.537500", "100155.027500", "100156.517500", "100158.007500", "100159.497500", "100200.987500", "100202.477500", "100203.967500", "100205.457500", "100206.947500", "100208.437500", "100209.927500", "100211.417500", "100212.907500", "100214.397500", "100215.887500", "100217.377500", "100218.867500", "100220.357500", "100221.847500", "100223.337500", "100224.827500", "100226.317500", "100227.807500", "100229.297500", "100230.787500", "100232.277500", "100233.767500", "100235.257500", "100236.747500", "100238.237500", "100239.727500", "100241.217500", "100242.707500", "100244.197500", "100245.687500", "100247.177500", "100248.667500", "100250.157500", "100251.647500", "100253.137500", "100254.627500", "100256.117500", "100257.607500", "100259.097500", "100300.587500", "100302.077500", "100303.567500", "100305.057500", "100306.547500", "100308.037500", "100309.527500", "100311.017500", "100312.507500", "100313.997500", "100315.487500", "100316.977500", "100318.467500", "100319.957500", "100321.447500", "100322.937500", "100324.427500", "100325.917500", "100327.407500", "100328.897500", "100330.387500", "100331.877500", "100333.367500", "100334.857500", "100336.347500", "100337.837500", "100339.327500", "100340.817500", "100342.307500", "100343.797500", "100345.287500", "100346.777500", "100348.267500", "100349.757500", "100351.247500", "100352.737500", "100354.227500", "100355.717500", "100357.207500", "100358.697500", "100400.187500", "100401.677500", "100403.167500", "100404.657500", "100406.147500", "100407.637500", "100409.127500", "100410.617500", "100412.107500", "100413.597500", "100415.087500", "100416.577500", "100418.067500", "100419.557500", "100421.047500", "100422.537500", "100424.027500", "100425.517500", "100427.007500", "100428.497500", "100429.987500", "100431.477500", "100432.967500", "100434.457500", "100435.947500", "100437.437500", "100438.927500", "100440.417500", "100441.907500", "100443.397500", "100444.887500", "100446.377500", "100447.867500", "100449.357500", "100450.847500", "100452.337500", "100453.827500", "100455.317500", "100456.807500", "100458.297500", "100459.787500", "100501.277500", "100502.767500", "100504.257500", "100505.747500", "100507.237500", "100508.727500", "100510.217500", "100511.707500", "100513.197500", "100514.687500", "100516.177500", "100517.667500", "100519.157500", "100520.647500", "100522.137500", "100523.627500", "100525.117500", "100526.607500", "100528.097500", "100529.587500", "100531.077500", "100532.567500", "100534.057500", "100535.547500", "100537.037500", "100538.527500", "100540.017500", "100541.507500", "100542.997500", "100544.487500", "100545.977500", "100547.467500", "100548.957500", "100550.447500", "100551.937500", "100553.427500", "100554.917500", "100556.407500", "100557.897500", "100559.387500", "100600.877500", "100602.367500", "100603.857500", "100605.347500", "100606.837500", "100608.327500", "100609.817500", "100611.307500", "100612.797500", "100614.287500", "100615.777500", "100617.267500", "100618.757500", "100620.247500", "100621.737500", "100623.227500", "100624.717500", "100626.207500", "100627.697500", "100629.187500", "100630.677500", "100632.167500", "100633.657500", "100635.147500", "100636.637500", "100638.127500", "100639.617500", "100641.107500", "100642.597500", "100644.087500", "100645.577500", "100647.067500", "100648.557500", "100650.047500", "100651.537500", "100653.027500", "100654.517500", "100656.007500", "100657.497500", "100658.987500", "100700.477500", "100701.967500", "100703.457500", "100704.947500", "100706.437500", "100707.927500", "100709.417500", "100710.907500", "100712.397500", "100713.887500", "100715.377500", "100716.867500", "100718.357500", "100719.847500", "100721.337500", "100722.827500", "100724.317500", "100725.807500", "100727.297500", "100728.787500", "100730.277500", "100731.767500", "100733.257500", "100734.747500", "100736.237500", "100737.727500", "100739.217500", "100740.707500", "100742.197500", "100743.687500", "100745.177500", "100746.667500", "100748.157500", "100749.647500", "100751.137500", "100752.627500", "100754.117500", "100755.607500", "100757.097500", "100758.587500", "100800.077500", "100801.567500", "100803.057500", "100804.547500", "100806.037500", "100807.527500", "100809.017500", "100810.507500", "100811.997500", "100813.487500", "100814.977500", "100816.467500", "100817.957500", "100819.447500", "100820.937500", "100822.427500", "100823.917500", "100825.407500", "100826.897500", "100828.387500", "100829.877500", "100831.367500", "100832.857500", "100834.347500", "100835.837500", "100837.327500", "100838.817500", "100840.307500", "100841.797500", "100843.287500", "100844.777500", "100846.267500", "100847.757500", "100849.247500", "100850.737500", "100852.227500", "100853.717500", "100855.207500", "100856.697500", "100858.187500", "100859.677500", "100901.167500", "100902.657500", "100904.147500", "100905.637500", "100907.127500", "100908.617500", "100910.107500", "100911.597500", "100913.087500", "100914.577500", "100916.067500", "100917.557500", "100919.047500", "100920.537500", "100922.027500", "100923.517500", "100925.007500", "100926.497500", "100927.987500", "100929.477500", "100930.967500", "100932.457500", "100933.947500", "100935.437500", "100936.927500", "100938.417500", "100939.907500", "100941.397500", "100942.887500", "100944.377500", "100945.867500", "100947.357500", "100948.847500", "100950.337500", "100951.827500", "100953.317500", "100954.807500", "100956.297500", "100957.787500", "100959.277500", "101000.767500", "101002.257500", "101003.747500", "101005.237500", "101006.727500", "101008.217500", "101009.707500", "101011.197500", "101012.687500", "101014.177500", "101015.667500", "101017.157500", "101018.647500", "101020.137500", "101021.627500", "101023.117500", "101024.607500", "101026.097500", "101027.587500", "101029.077500", "101030.567500", "101032.057500", "101033.547500", "101035.037500", "101036.527500", "101038.017500", "101039.507500", "101040.997500", "101042.487500", "101043.977500", "101045.467500", "101046.957500", "101048.447500", "101049.937500", "101051.427500", "101052.917500", "101054.407500", "101055.897500", "101057.387500", "101058.877500", "101100.367500", "101101.857500", "101103.347500", "101104.837500", "101106.327500", "101107.817500", "101109.307500", "101110.797500", "101112.287500", "101113.777500", "101115.267500", "101116.757500", "101118.247500", "101119.737500", "101121.227500", "101122.717500", "101124.207500", "101125.697500", "101127.187500", "101128.677500", "101130.167500", "101131.657500", "101133.147500", "101134.637500", "101136.127500", "101137.617500", "101139.107500", "101140.597500", "101142.087500", "101143.577500", "101145.067500", "101146.557500", "101148.047500", "101149.537500", "101151.027500", "101152.517500", "101154.007500", "101155.497500", "101156.987500", "101158.477500", "101159.967500", "101201.457500", "101202.947500", "101204.437500", "101205.927500", "101207.417500", "101208.907500", "101210.397500", "101211.887500", "101213.377500", "101214.867500", "101216.357500", "101217.847500", "101219.337500", "101220.827500", "101222.317500", "101223.807500", "101225.297500", "101226.787500", "101228.277500", "101229.767500", "101231.257500", "101232.747500", "101234.237500", "101235.727500", "101237.217500", "101238.707500", "101240.197500", "101241.687500", "101243.177500", "101244.667500", "101246.157500", "101247.647500", "101249.137500", "101250.627500", "101252.117500", "101253.607500", "101255.097500", "101256.587500", "101258.077500", "101259.567500"],
      "ContentTime": ["100224.144000", "100244.114000", "100244.117000", "100244.128000", "100244.131000", "100244.134000", "100244.137000", "100244.140000", "100244.143000", "100244.145000", "100244.148000", "100244.151000", "100244.156000", "100244.159000", "100244.162000", "100244.165000", "100244.171000", "100244.174000", "100244.177000", "100244.180000", "100244.183000", "100304.114000", "100304.117000", "100304.120000", "100304.137000", "100304.140000", "100304.143000", "100304.146000", "100304.149000", "100304.151000", "100304.154000", "100304.157000", "100304.160000", "100304.163000", "100304.165000", "100304.168000", "100304.171000", "100304.174000", "100304.177000", "100304.180000", "100304.183000", "100324.114000", "100324.117000", "100324.120000", "100324.123000", "100324.125000", "100324.128000", "100324.131000", "100324.137000", "100324.140000", "100324.143000", "100324.146000", "100324.149000", "100324.152000", "100324.155000", "100324.158000", "100324.160000", "100324.163000", "100324.166000", "100324.169000", "100324.172000", "100344.114000", "100344.117000", "100344.120000", "100344.123000", "100344.126000", "100344.128000", "100344.131000", "100344.134000", "100344.137000", "100344.140000", "100344.143000", "100344.146000", "100344.148000", "100344.151000", "100344.154000", "100344.157000", "100344.160000", "100344.163000", "100344.166000", "100344.168000", "100404.114000", "100404.117000", "100404.120000", "100404.123000", "100404.126000", "100404.128000", "100404.131000", "100404.134000", "100404.137000", "100404.140000", "100404.143000", "100404.146000", "100404.148000", "100404.151000", "100404.154000", "100404.157000", "100404.160000", "100404.163000", "100404.166000", "100404.168000", "100444.114000", "100444.117000", "100444.120000", "100444.123000", "100444.126000", "100444.128000", "100444.131000", "100444.134000", "100444.137000", "100444.140000", "100444.143000", "100444.145000", "100444.148000", "100444.151000", "100444.154000", "100444.157000", "100444.160000", "100444.170000", "100444.173000", "100444.176000", "100444.178000", "100444.181000", "100444.184000", "100444.187000", "100444.190000", "100444.193000", "100444.196000", "100444.199000", "100444.201000", "100444.204000", "100524.114000", "100524.117000", "100524.120000", "100524.123000", "100524.126000", "100524.129000", "100524.132000", "100524.134000", "100524.137000", "100524.140000", "100524.143000", "100524.146000", "100524.149000", "100524.152000", "100524.155000", "100524.158000", "100524.160000", "100524.163000", "100524.166000", "100524.169000", "100524.172000", "100524.175000", "100524.178000", "100524.181000", "100524.183000", "100524.186000", "100524.189000", "100604.115000", "100604.118000", "100604.121000", "100604.124000", "100604.127000", "100604.130000", "100604.132000", "100604.135000", "100604.138000", "100604.141000", "100604.144000", "100604.147000", "100604.150000", "100604.153000", "100604.156000", "100604.158000", "100604.161000", "100604.164000", "100604.167000", "100604.170000", "100604.173000", "100604.176000", "100604.178000", "100604.181000", "100604.184000", "100604.187000", "100604.190000", "100644.114000", "100644.117000", "100644.120000", "100644.123000", "100644.126000", "100644.128000", "100644.131000", "100644.134000", "100644.137000", "100644.140000", "100644.143000", "100644.146000", "100644.149000", "100644.152000", "100644.155000", "100644.158000", "100644.161000", "100644.164000", "100644.167000", "100644.170000", "100644.173000", "100644.176000", "100644.179000", "100644.181000", "100644.184000", "100644.187000", "100724.114000", "100724.117000", "100724.120000", "100724.123000", "100724.126000", "100724.129000", "100724.132000", "100724.134000", "100724.137000", "100724.140000", "100724.163000", "100724.166000", "100724.169000", "100724.172000", "100724.175000", "100724.177000", "100724.180000", "100724.183000", "100724.186000", "100724.189000", "100724.192000", "100724.195000", "100724.198000", "100724.200000", "100724.203000", "100724.206000", "100724.209000", "100804.114000", "100804.117000", "100804.120000", "100804.123000", "100804.126000", "100804.129000", "100804.132000", "100804.134000", "100804.137000", "100804.140000", "100804.143000", "100804.146000", "100804.149000", "100804.152000", "100804.155000", "100804.157000", "100804.160000", "100804.163000", "100804.166000", "100804.169000", "100804.172000", "100804.175000", "100804.178000", "100804.181000", "100804.184000", "100804.187000", "100804.190000", "100844.114000", "100844.117000", "100844.120000", "100844.123000", "100844.126000", "100844.128000", "100844.131000", "100844.134000", "100844.137000", "100844.140000", "100844.143000", "100844.146000", "100844.149000", "100844.151000", "100844.154000", "100844.157000", "100844.160000", "100844.163000", "100844.166000", "100844.169000", "100844.172000", "100844.174000", "100844.177000", "100844.180000", "100844.183000", "100844.186000", "100844.189000", "100924.114000", "100924.117000", "100924.120000", "100924.123000", "100924.126000", "100924.128000", "100924.131000", "100924.134000", "100924.137000", "100924.140000", "100924.143000", "100924.146000", "100924.149000", "100924.152000", "100924.154000", "100924.157000", "100924.160000", "100924.163000", "100924.166000", "100924.169000", "100924.172000", "100924.175000", "100924.177000", "100924.180000", "100924.183000", "100924.186000", "100924.189000", "101004.114000", "101004.117000", "101004.120000", "101004.123000", "101004.126000", "101004.129000", "101004.132000", "101004.135000", "101004.137000", "101004.140000", "101004.143000", "101004.146000", "101004.149000", "101004.152000", "101004.155000", "101004.158000", "101004.161000", "101004.163000", "101004.166000", "101004.169000", "101004.172000", "101004.175000", "101004.178000", "101004.181000", "101004.184000", "101004.186000", "101004.190000", "101044.114000", "101044.117000", "101044.120000", "101044.123000", "101044.126000", "101044.129000", "101044.132000", "101044.135000", "101044.137000", "101044.140000", "101044.143000", "101044.146000", "101044.149000", "101044.152000", "101044.155000", "101044.158000", "101044.161000", "101044.166000", "101044.170000", "101044.173000", "101044.177000", "101044.180000", "101044.183000", "101044.186000", "101044.189000", "101044.192000", "101124.114000", "101124.117000", "101124.120000", "101124.123000", "101124.126000", "101124.128000", "101124.131000", "101124.134000", "101124.137000", "101124.140000", "101124.143000", "101124.146000", "101124.149000", "101124.151000", "101124.154000", "101124.157000", "101124.160000", "101124.163000", "101124.166000", "101124.169000", "101124.172000", "101124.175000", "101124.178000", "101124.181000", "101124.183000", "101124.186000", "101124.189000", "101204.114000", "101204.117000", "101204.120000", "101204.123000", "101204.126000", "101204.129000", "101204.132000", "101204.135000", "101204.138000", "101204.140000", "101204.143000", "101204.146000", "101204.149000", "101204.152000", "101204.155000", "101204.158000", "101204.161000", "101204.164000", "101204.167000", "101204.170000", "101204.172000", "101204.175000", "101204.178000", "101204.181000", "101204.184000", "101204.187000", "101204.190000", "101244.114000", "101244.117000", "101244.120000", "101244.123000", "101244.126000", "101244.129000", "101244.132000", "101244.135000", "101244.137000", "101244.140000", "101244.143000", "101244.146000", "101244.149000", "101244.152000", "101244.155000", "101244.158000", "101244.160000", "101244.163000", "101244.166000", "101244.169000", "101244.172000", "101244.175000", "101244.178000", "101244.181000", "101244.183000", "101244.186000", "101244.189000", "101301.308000", "101301.311000", "101301.314000", "101301.317000", "101301.320000", "101301.323000", "101301.326000", "101301.329000", "101301.332000", "101301.335000", "101301.338000", "101301.341000"],
