{
  "AcquisitionMatrixPE": 104,
  "AcquisitionNumber": 1,
  "AcquisitionTime": "15:49:48.935000",
  "BandwidthPerPixelPhaseEncode": 17.17,
  "BaseResolution": 104,
  "BodyPartExamined": "BRAIN",
  "CoilString": "HC1-7;NC1_2",
  "ConsistencyInfo": "N4_VE11C_LATEST_20160120",
  "ConversionSoftware": "dcm2niix",
  "ConversionSoftwareVersion": "v1.0.20190902",
  "DerivedVendorReportedEchoSpacing": 0.000560011,
  "DeviceSerialNumber": "167006",
  "DwellTime": 2.1e-06,
  "EchoTime": 0.037,
  "EchoTrainLength": 104,
  "EffectiveEchoSpacing": 0.000560011,
  "FlipAngle": 52,
  "ImageComments": "Unaliased_MB4_PE3_LB",
  "ImageOrientationPatientDICOM": [0.999997, 0.00229032, 0.00097707, -0.00157082, 0.884708, -0.466143],
  "ImageType": [
    "ORIGINAL",
    "PRIMARY",
    "M",
    "MB",
    "ND",
    "MOSAIC"
],
  "ImagingFrequency": 123.259,
  "InPlanePhaseEncodingDirectionDICOM": "COL",
  "InstitutionAddress": "Chemin_Queen-Mary_4565_Montreal_District_CA_H3W_1W5",
  "InstitutionName": "IUGM",
  "InstitutionalDepartmentName": "Department",
  "MRAcquisitionType": "2D",
  "MagneticFieldStrength": 3,
  "Manufacturer": "Siemens",
  "ManufacturersModelName": "Prisma_fit",
  "Modality": "MR",
  "MultibandAccelerationFactor": 4,
  "PartialFourier": 1,
  "PatientPosition": "HFS",
  "PercentPhaseFOV": 100,
  "PhaseEncodingDirection": "j",
  "PhaseEncodingSteps": 104,
  "PhaseResolution": 1,
  "PixelBandwidth": 2290,
  "ProcedureStepDescription": "video_friends",
  "ProtocolName": "func_task-friends-s02e18b",
  "PulseSequenceDetails": "%CustomerSeq%_cmrr_mbep2d_bold",
  "ReceiveCoilActiveElements": "HC1-7;NC1,2",
  "ReceiveCoilName": "HeadNeck_64",
  "ReconMatrixPE": 104,
  "RepetitionTime": 1.49,
  "SAR": 0.037495,
  "ScanOptions": "FS",
  "ScanningSequence": "EP",
  "SequenceName": "epfid2d1_104",
  "SequenceVariant": "SK_SS",
  "SeriesDescription": "func_task-friends-s02e18b",
  "SeriesNumber": 18,
  "ShimSetting": [626, -7211, -8845, 427, -16, -99, 68, -21],
  "SliceThickness": 2,
  "SliceTiming": [0, 0.785, 0.0975, 0.8825, 0.1975, 0.98, 0.295, 1.0775, 0.3925, 1.1775, 0.49, 1.275, 0.5875, 1.3725, 0.6875, 0, 0.785, 0.0975, 0.8825, 0.1975, 0.98, 0.295, 1.0775, 0.3925, 1.1775, 0.49, 1.275, 0.5875, 1.3725, 0.6875, 0, 0.785, 0.0975, 0.8825, 0.1975, 0.98, 0.295, 1.0775, 0.3925, 1.1775, 0.49, 1.275, 0.5875, 1.3725, 0.6875, 0, 0.785, 0.0975, 0.8825, 0.1975, 0.98, 0.295, 1.0775, 0.3925, 1.1775, 0.49, 1.275, 0.5875, 1.3725, 0.6875],
  "SoftwareVersions": "syngo_MR_E11",
  "SpacingBetweenSlices": 2,
  "StationName": "MRC35049",
  "TaskName": "s02e18b",
  "TotalReadoutTime": 0.0576811,
  "TxRefAmp": 248.786,
  "WipMemBlock": "6abbe6f0-4421-42c9-88f7-f2b3be54411c||Sequence: R016 ve11c/master r/e634e98; Dec 19 2017 11:00:25 by eja",
  "dcmmeta_affine": [
    [-1.9999938011169434, -0.0031416313722729683, 0.003864077152684331, 102.88440704345703],
    [-0.004580641631036997, 1.7694159746170044, -0.9322800040245056, -63.92225646972656],
    [0.0019541399087756872, 0.9322860240936279, 1.769417643547058, -81.76414489746094],
    [0.0, 0.0, 0.0, 1.0]
],
  "dcmmeta_reorient_transform": [
    [0.0, -1.0, 0.0, 103.0],
    [1.0, 0.0, 0.0, 0.0],
    [0.0, 0.0, 1.0, 0.0],
    [0.0, 0.0, 0.0, 1.0]
],
  "dcmmeta_shape": [104, 104, 60, 460],
  "dcmmeta_slice_dim": 2,
  "dcmmeta_version": 0.6,
  "global": {
    "const": {
      "AcquisitionMatrix": [104, 0, 0, 104],
      "AngioFlag": "N",
      "BitsAllocated": 16,
      "BitsStored": 16,
      "BodyPartExamined": "BRAIN",
      "Columns": 832,
      "EchoNumbers": 1,
      "EchoTime": 37.0,
      "EchoTrainLength": 104,
      "FlipAngle": 52.0,
      "HighBit": 15,
      "ImageOrientationPatient": [0.99999689987758, 0.0022903208456, 0.00097706993772, -0.0015708157145, 0.88470799335461, -0.4661430027711],
      "ImagePositionPatient": [-829.41500935554, -764.0623627344, 352.90211602337],
      "ImageType": [
        "ORIGINAL",
        "PRIMARY",
        "M",
        "MB",
        "ND",
        "MOSAIC"
],
      "ImagedNucleus": "1H",
      "ImagingFrequency": 123.259123,
      "InPlanePhaseEncodingDirection": "COL",
      "MRAcquisitionType": "2D",
      "MagneticFieldStrength": 3.0,
      "Manufacturer": "SIEMENS",
      "ManufacturerModelName": "Prisma_fit",
      "Modality": "MR",
      "NumberOfAverages": 1.0,
      "NumberOfPhaseEncodingSteps": 104,
      "PercentPhaseFieldOfView": 100.0,
      "PercentSampling": 100.0,
      "PerformedProcedureStepStartTime": "143441.380000",
      "PhotometricInterpretation": "MONOCHROME2",
      "PixelBandwidth": 2290.0,
      "PixelRepresentation": 0,
      "PixelSpacing": [2.0, 2.0],
      "ProtocolName": "func_task-friends-s02e18b",
      "RepetitionTime": 1490.0,
      "Rows": 832,
      "SAR": 0.03749503854581,
      "SamplesPerPixel": 1,
      "ScanOptions": "FS",
      "ScanningSequence": "EP",
      "SequenceName": "epfid2d1_104",
      "SequenceVariant": [
        "SK",
        "SS"
],
      "SeriesDescription": "func_task-friends-s02e18b",
      "SeriesNumber": 18,
      "SeriesTime": "155105.667000",
      "SliceLocation": -42.341960773855,
      "SliceThickness": 2.0,
      "SmallestImagePixelValue": 0,
      "SoftwareVersions": "syngo MR E11",
      "SpacingBetweenSlices": 1.999999955369,
      "SpecificCharacterSet": "ISO_IR 100",
      "StudyID": "1",
      "StudyTime": "143441.330000",
      "TransmitCoilName": "Body",
      "VariableFlipAngleFlag": "N",
      "WindowCenterWidthExplanation": "Algo1",
      "dBdt": 0.0},
    "slices": {}
  },
  "time": {
    "samples": {
      "AcquisitionNumber": [1, 2, 3, 4, 5, 6, 7, 8, 9, 10, 11, 12, 13, 14, 15, 16, 17, 18, 19, 20, 21, 22, 23, 24, 25, 26, 27, 28, 29, 30, 31, 32, 33, 34, 35, 36, 37, 38, 39, 40, 41, 42, 43, 44, 45, 46, 47, 48, 49, 50, 51, 52, 53, 54, 55, 56, 57, 58, 59, 60, 61, 62, 63, 64, 65, 66, 67, 68, 69, 70, 71, 72, 73, 74, 75, 76, 77, 78, 79, 80, 81, 82, 83, 84, 85, 86, 87, 88, 89, 90, 91, 92, 93, 94, 95, 96, 97, 98, 99, 100, 101, 102, 103, 104, 105, 106, 107, 108, 109, 110, 111, 112, 113, 114, 115, 116, 117, 118, 119, 120, 121, 122, 123, 124, 125, 126, 127, 128, 129, 130, 131, 132, 133, 134, 135, 136, 137, 138, 139, 140, 141, 142, 143, 144, 145, 146, 147, 148, 149, 150, 151, 152, 153, 154, 155, 156, 157, 158, 159, 160, 161, 162, 163, 164, 165, 166, 167, 168, 169, 170, 171, 172, 173, 174, 175, 176, 177, 178, 179, 180, 181, 182, 183, 184, 185, 186, 187, 188, 189, 190, 191, 192, 193, 194, 195, 196, 197, 198, 199, 200, 201, 202, 203, 204, 205, 206, 207, 208, 209, 210, 211, 212, 213, 214, 215, 216, 217, 218, 219, 220, 221, 222, 223, 224, 225, 226, 227, 228, 229, 230, 231, 232, 233, 234, 235, 236, 237, 238, 239, 240, 241, 242, 243, 244, 245, 246, 247, 248, 249, 250, 251, 252, 253, 254, 255, 256, 257, 258, 259, 260, 261, 262, 263, 264, 265, 266, 267, 268, 269, 270, 271, 272, 273, 274, 275, 276, 277, 278, 279, 280, 281, 282, 283, 284, 285, 286, 287, 288, 289, 290, 291, 292, 293, 294, 295, 296, 297, 298, 299, 300, 301, 302, 303, 304, 305, 306, 307, 308, 309, 310, 311, 312, 313, 314, 315, 316, 317, 318, 319, 320, 321, 322, 323, 324, 325, 326, 327, 328, 329, 330, 331, 332, 333, 334, 335, 336, 337, 338, 339, 340, 341, 342, 343, 344, 345, 346, 347, 348, 349, 350, 351, 352, 353, 354, 355, 356, 357, 358, 359, 360, 361, 362, 363, 364, 365, 366, 367, 368, 369, 370, 371, 372, 373, 374, 375, 376, 377, 378, 379, 380, 381, 382, 383, 384, 385, 386, 387, 388, 389, 390, 391, 392, 393, 394, 395, 396, 397, 398, 399, 400, 401, 402, 403, 404, 405, 406, 407, 408, 409, 410, 411, 412, 413, 414, 415, 416, 417, 418, 419, 420, 421, 422, 423, 424, 425, 426, 427, 428, 429, 430, 431, 432, 433, 434, 435, 436, 437, 438, 439, 440, 441, 442, 443, 444, 445, 446, 447, 448, 449, 450, 451, 452, 453, 454, 455, 456, 457, 458, 459, 460],
      "AcquisitionTime": ["154948.935000", "154950.425000", "154951.915000", "154953.405000", "154954.895000", "154956.385000", "154957.875000", "154959.365000", "155000.855000", "155002.345000", "155003.835000", "155005.325000", "155006.815000", "155008.305000", "155009.795000", "155011.285000", "155012.775000", "155014.265000", "155015.755000", "155017.245000", "155018.735000", "155020.225000", "155021.715000", "155023.205000", "155024.695000", "155026.185000", "155027.675000", "155029.165000", "155030.655000", "155032.145000", "155033.635000", "155035.125000", "155036.615000", "155038.105000", "155039.595000", "155041.085000", "155042.575000", "155044.065000", "155045.555000", "155047.045000", "155048.535000", "155050.025000", "155051.515000", "155053.005000", "155054.495000", "155055.985000", "155057.475000", "155058.965000", "155100.455000", "155101.945000", "155103.435000", "155104.925000", "155106.415000", "155107.905000", "155109.395000", "155110.885000", "155112.375000", "155113.865000", "155115.355000", "155116.845000", "155118.335000", "155119.825000", "155121.315000", "155122.805000", "155124.295000", "155125.785000", "155127.275000", "155128.765000", "155130.255000", "155131.745000", "155133.235000", "155134.725000", "155136.215000", "155137.705000", "155139.195000", "155140.685000", "155142.175000", "155143.665000", "155145.155000", "155146.645000", "155148.135000", "155149.625000", "155151.115000", "155152.605000", "155154.095000", "155155.585000", "155157.075000", "155158.565000", "155200.055000", "155201.545000", "155203.035000", "155204.525000", "155206.015000", "155207.505000", "155208.995000", "155210.485000", "155211.975000", "155213.465000", "155214.955000", "155216.445000", "155217.935000", "155219.425000", "155220.915000", "155222.405000", "155223.895000", "155225.385000", "155226.875000", "155228.365000", "155229.855000", "155231.345000", "155232.835000", "155234.325000", "155235.815000", "155237.305000", "155238.795000", "155240.285000", "155241.775000", "155243.265000", "155244.755000", "155246.245000", "155247.735000", "155249.225000", "155250.715000", "155252.205000", "155253.695000", "155255.185000", "155256.675000", "155258.165000", "155259.655000", "155301.145000", "155302.635000", "155304.125000", "155305.615000", "155307.105000", "155308.595000", "155310.085000", "155311.575000", "155313.065000", "155314.555000", "155316.045000", "155317.535000", "155319.025000", "155320.515000", "155322.005000", "155323.495000", "155324.985000", "155326.475000", "155327.965000", "155329.455000", "155330.945000", "155332.435000", "155333.925000", "155335.415000", "155336.905000", "155338.395000", "155339.885000", "155341.375000", "155342.865000", "155344.355000", "155345.845000", "155347.335000", "155348.825000", "155350.315000", "155351.805000", "155353.295000", "155354.785000", "155356.275000", "155357.765000", "155359.255000", "155400.745000", "155402.235000", "155403.725000", "155405.215000", "155406.705000", "155408.195000", "155409.685000", "155411.175000", "155412.665000", "155414.155000", "155415.645000", "155417.135000", "155418.625000", "155420.115000", "155421.605000", "155423.095000", "155424.585000", "155426.075000", "155427.565000", "155429.055000", "155430.545000", "155432.035000", "155433.525000", "155435.015000", "155436.505000", "155437.995000", "155439.485000", "155440.975000", "155442.465000", "155443.955000", "155445.445000", "155446.935000", "155448.425000", "155449.915000", "155451.405000", "155452.895000", "155454.385000", "155455.875000", "155457.365000", "155458.855000", "155500.345000", "155501.835000", "155503.325000", "155504.815000", "155506.305000", "155507.795000", "155509.285000", "155510.775000", "155512.265000", "155513.755000", "155515.245000", "155516.735000", "155518.225000", "155519.715000", "155521.205000", "155522.695000", "155524.185000", "155525.675000", "155527.165000", "155528.655000", "155530.145000", "155531.635000", "155533.125000", "155534.615000", "155536.105000", "155537.595000", "155539.085000", "155540.575000", "155542.065000", "155543.555000", "155545.045000", "155546.535000", "155548.025000", "155549.515000", "155551.005000", "155552.495000", "155553.985000", "155555.475000", "155556.965000", "155558.455000", "155559.945000", "155601.435000", "155602.925000", "155604.415000", "155605.905000", "155607.395000", "155608.885000", "155610.375000", "155611.865000", "155613.355000", "155614.845000", "155616.335000", "155617.825000", "155619.315000", "155620.805000", "155622.295000", "155623.785000", "155625.275000", "155626.765000", "155628.255000", "155629.745000", "155631.235000", "155632.725000", "155634.215000", "155635.705000", "155637.195000", "155638.685000", "155640.175000", "155641.665000", "155643.155000", "155644.645000", "155646.135000", "155647.625000", "155649.115000", "155650.605000", "155652.095000", "155653.585000", "155655.075000", "155656.565000", "155658.055000", "155659.545000", "155701.035000", "155702.525000", "155704.015000", "155705.505000", "155706.995000", "155708.485000", "155709.975000", "155711.465000", "155712.955000", "155714.445000", "155715.935000", "155717.425000", "155718.915000", "155720.405000", "155721.895000", "155723.385000", "155724.875000", "155726.365000", "155727.855000", "155729.345000", "155730.835000", "155732.325000", "155733.815000", "155735.305000", "155736.795000", "155738.285000", "155739.775000", "155741.265000", "155742.755000", "155744.245000", "155745.735000", "155747.225000", "155748.715000", "155750.205000", "155751.695000", "155753.185000", "155754.675000", "155756.165000", "155757.655000", "155759.145000", "155800.635000", "155802.125000", "155803.615000", "155805.105000", "155806.595000", "155808.085000", "155809.575000", "155811.065000", "155812.555000", "155814.045000", "155815.535000", "155817.025000", "155818.515000", "155820.005000", "155821.495000", "155822.985000", "155824.475000", "155825.965000", "155827.455000", "155828.945000", "155830.435000", "155831.925000", "155833.415000", "155834.905000", "155836.395000", "155837.885000", "155839.375000", "155840.865000", "155842.355000", "155843.845000", "155845.335000", "155846.825000", "155848.315000", "155849.805000", "155851.295000", "155852.785000", "155854.275000", "155855.765000", "155857.255000", "155858.745000", "155900.235000", "155901.725000", "155903.215000", "155904.705000", "155906.195000", "155907.685000", "155909.175000", "155910.665000", "155912.155000", "155913.645000", "155915.135000", "155916.625000", "155918.115000", "155919.605000", "155921.095000", "155922.585000", "155924.075000", "155925.565000", "155927.055000", "155928.545000", "155930.035000", "155931.525000", "155933.015000", "155934.505000", "155935.995000", "155937.485000", "155938.975000", "155940.465000", "155941.955000", "155943.445000", "155944.935000", "155946.425000", "155947.915000", "155949.405000", "155950.895000", "155952.385000", "155953.875000", "155955.365000", "155956.855000", "155958.345000", "155959.835000", "160001.325000", "160002.815000", "160004.305000", "160005.795000", "160007.285000", "160008.775000", "160010.265000", "160011.755000", "160013.245000", "160014.735000", "160016.225000", "160017.715000", "160019.205000", "160020.695000", "160022.185000", "160023.675000", "160025.165000", "160026.655000", "160028.145000", "160029.635000", "160031.125000", "160032.615000", "160034.105000", "160035.595000", "160037.085000", "160038.575000", "160040.065000", "160041.555000", "160043.045000", "160044.535000", "160046.025000", "160047.515000", "160049.005000", "160050.495000", "160051.985000", "160053.475000", "160054.965000", "160056.455000", "160057.945000", "160059.435000", "160100.925000", "160102.415000", "160103.905000", "160105.395000", "160106.885000", "160108.375000", "160109.865000", "160111.355000", "160112.845000"],
      "ContentTime": ["155105.669000", "155105.673000", "155105.676000", "155105.678000", "155105.681000", "155105.684000", "155105.687000", "155105.690000", "155105.692000", "155105.695000", "155105.704000", "155105.707000", "155105.710000", "155105.713000", "155105.716000", "155105.719000", "155105.721000", "155105.725000", "155105.728000", "155105.731000", "155105.734000", "155125.630000", "155125.633000", "155125.636000", "155125.639000", "155125.655000", "155125.658000", "155125.661000", "155125.664000", "155125.666000", "155125.669000", "155125.672000", "155125.675000", "155125.678000", "155125.680000", "155125.683000", "155125.686000", "155125.689000", "155125.692000", "155125.695000", "155125.697000", "155145.629000", "155145.632000", "155145.635000", "155145.637000", "155145.640000", "155145.643000", "155145.646000", "155145.648000", "155145.651000", "155145.654000", "155145.657000", "155145.660000", "155145.662000", "155145.665000", "155145.668000", "155145.671000", "155145.674000", "155145.677000", "155145.679000", "155145.682000", "155205.629000", "155205.632000", "155205.635000", "155205.638000", "155205.640000", "155205.643000", "155205.646000", "155205.649000", "155205.652000", "155205.654000", "155205.657000", "155205.660000", "155205.663000", "155205.666000", "155205.668000", "155205.671000", "155205.674000", "155205.677000", "155205.680000", "155205.682000", "155225.630000", "155225.633000", "155225.636000", "155225.638000", "155225.641000", "155225.644000", "155225.647000", "155225.650000", "155225.653000", "155225.655000", "155225.658000", "155225.662000", "155225.665000", "155225.669000", "155225.671000", "155225.674000", "155225.677000", "155225.680000", "155225.683000", "155225.686000", "155305.630000", "155305.633000", "155305.636000", "155305.639000", "155305.642000", "155305.645000", "155305.647000", "155305.650000", "155305.653000", "155305.656000", "155305.659000", "155305.674000", "155305.676000", "155305.679000", "155305.682000", "155305.685000", "155305.688000", "155305.690000", "155305.693000", "155305.696000", "155305.699000", "155305.702000", "155305.705000", "155305.708000", "155305.710000", "155305.713000", "155305.716000", "155305.719000", "155305.722000", "155305.725000", "155345.630000", "155345.633000", "155345.636000", "155345.639000", "155345.642000", "155345.644000", "155345.647000", "155345.650000", "155345.653000", "155345.656000", "155345.659000", "155345.662000", "155345.664000", "155345.667000", "155345.670000", "155345.673000", "155345.676000", "155345.679000", "155345.681000", "155345.684000", "155345.687000", "155345.690000", "155345.693000", "155345.696000", "155345.698000", "155345.701000", "155345.704000", "155425.629000", "155425.632000", "155425.635000", "155425.638000", "155425.640000", "155425.643000", "155425.646000", "155425.649000", "155425.652000", "155425.655000", "155425.657000", "155425.660000", "155425.663000", "155425.666000", "155425.669000", "155425.672000", "155425.674000", "155425.677000", "155425.680000", "155425.683000", "155425.686000", "155425.689000", "155425.691000", "155425.694000", "155425.697000", "155425.700000", "155425.703000", "155505.630000", "155505.633000", "155505.636000", "155505.639000", "155505.642000", "155505.644000", "155505.647000", "155505.650000", "155505.653000", "155505.656000", "155505.659000", "155505.662000", "155505.665000", "155505.668000", "155505.671000", "155505.674000", "155505.676000", "155505.679000", "155505.682000", "155505.685000", "155505.688000", "155505.691000", "155505.694000", "155505.696000", "155505.699000", "155505.702000", "155545.630000", "155545.633000", "155545.636000", "155545.639000", "155545.642000", "155545.645000", "155545.648000", "155545.650000", "155545.653000", "155545.656000", "155545.659000", "155545.662000", "155545.664000", "155545.667000", "155545.670000", "155545.673000", "155545.686000", "155545.689000", "155545.692000", "155545.695000", "155545.698000", "155545.701000", "155545.703000", "155545.706000", "155545.709000", "155545.712000", "155545.715000", "155625.629000", "155625.632000", "155625.635000", "155625.638000", "155625.641000", "155625.643000", "155625.646000", "155625.649000", "155625.652000", "155625.655000", "155625.658000", "155625.661000", "155625.663000", "155625.666000", "155625.669000", "155625.672000", "155625.675000", "155625.678000", "155625.681000", "155625.684000", "155625.687000", "155625.690000", "155625.693000", "155625.695000", "155625.698000", "155625.701000", "155625.704000", "155705.630000", "155705.633000", "155705.636000", "155705.639000", "155705.642000", "155705.644000", "155705.647000", "155705.650000", "155705.653000", "155705.656000", "155705.658000", "155705.661000", "155705.664000", "155705.667000", "155705.670000", "155705.673000", "155705.676000", "155705.678000", "155705.681000", "155705.684000", "155705.687000", "155705.690000", "155705.693000", "155705.695000", "155705.698000", "155705.701000", "155705.704000", "155745.630000", "155745.633000", "155745.636000", "155745.639000", "155745.642000", "155745.645000", "155745.647000", "155745.650000", "155745.653000", "155745.656000", "155745.659000", "155745.662000", "155745.665000", "155745.668000", "155745.671000", "155745.674000", "155745.677000", "155745.680000", "155745.682000", "155745.685000", "155745.688000", "155745.691000", "155745.694000", "155745.697000", "155745.700000", "155745.702000", "155745.705000", "155825.630000", "155825.633000", "155825.636000", "155825.639000", "155825.642000", "155825.645000", "155825.647000", "155825.650000", "155825.653000", "155825.656000", "155825.659000", "155825.662000", "155825.664000", "155825.667000", "155825.670000", "155825.673000", "155825.676000", "155825.679000", "155825.681000", "155825.684000", "155825.687000", "155825.690000", "155825.693000", "155825.696000", "155825.699000", "155825.701000", "155825.704000", "155905.629000", "155905.632000", "155905.635000", "155905.638000", "155905.641000", "155905.644000", "155905.646000", "155905.649000", "155905.652000", "155905.655000", "155905.658000", "155905.661000", "155905.664000", "155905.667000", "155905.670000", "155905.673000", "155905.677000", "155905.680000", "155905.683000", "155905.686000", "155905.688000", "155905.691000", "155905.694000", "155905.697000", "155905.700000", "155905.703000", "155945.630000", "155945.633000", "155945.636000", "155945.639000", "155945.642000", "155945.645000", "155945.647000", "155945.650000", "155945.653000", "155945.656000", "155945.659000", "155945.662000", "155945.665000", "155945.668000", "155945.670000", "155945.673000", "155945.676000", "155945.679000", "155945.682000", "155945.685000", "155945.688000", "155945.691000", "155945.693000", "155945.696000", "155945.699000", "155945.702000", "155945.705000", "160025.630000", "160025.633000", "160025.636000", "160025.639000", "160025.642000", "160025.645000", "160025.647000", "160025.650000", "160025.653000", "160025.656000", "160025.659000", "160025.662000", "160025.664000", "160025.667000", "160025.670000", "160025.673000", "160025.685000", "160025.688000", "160025.691000", "160025.694000", "160025.696000", "160025.699000", "160025.702000", "160025.705000", "160025.708000", "160025.710000", "160025.713000", "160105.629000", "160105.632000", "160105.635000", "160105.638000", "160105.641000", "160105.644000", "160105.647000", "160105.649000", "160105.652000", "160105.655000", "160105.658000", "160105.661000", "160105.664000", "160105.666000", "160105.669000", "160105.672000", "160105.675000", "160105.678000", "160105.681000", "160105.684000", "160105.686000", "160105.689000", "160105.692000", "160105.695000", "160105.698000", "160105.701000", "160105.703000", "160115.352000", "160115.355000", "160115.358000", "160115.361000", "160115.364000", "160115.367000", "160115.369000"],
