{
  "AcquisitionMatrixPE": 104,
  "AcquisitionNumber": 1,
  "AcquisitionTime": "14:47:36.875000",
  "BandwidthPerPixelPhaseEncode": 17.17,
  "BaseResolution": 104,
  "BodyPartExamined": "BRAIN",
  "CoilString": "HC1-7;NC1_2",
  "ConsistencyInfo": "N4_VE11C_LATEST_20160120",
  "ConversionSoftware": "dcm2niix",
  "ConversionSoftwareVersion": "v1.0.20190902",
  "DerivedVendorReportedEchoSpacing": 0.000560011,
  "DeviceSerialNumber": "167006",
  "DwellTime": 2.1e-06,
  "EchoTime": 0.037,
  "EchoTrainLength": 104,
  "EffectiveEchoSpacing": 0.000560011,
  "FlipAngle": 52,
  "ImageComments": "Unaliased_MB4_PE3_LB",
  "ImageOrientationPatientDICOM": [0.999997, 0.00229032, 0.00097707, -0.00157082, 0.884708, -0.466143],
  "ImageType": [
    "ORIGINAL",
    "PRIMARY",
    "M",
    "MB",
    "ND",
    "MOSAIC"
],
  "ImagingFrequency": 123.259,
  "InPlanePhaseEncodingDirectionDICOM": "COL",
  "InstitutionAddress": "Chemin_Queen-Mary_4565_Montreal_District_CA_H3W_1W5",
  "InstitutionName": "IUGM",
  "InstitutionalDepartmentName": "Department",
  "MRAcquisitionType": "2D",
  "MagneticFieldStrength": 3,
  "Manufacturer": "Siemens",
  "ManufacturersModelName": "Prisma_fit",
  "Modality": "MR",
  "MultibandAccelerationFactor": 4,
  "PartialFourier": 1,
  "PatientPosition": "HFS",
  "PercentPhaseFOV": 100,
  "PhaseEncodingDirection": "j",
  "PhaseEncodingSteps": 104,
  "PhaseResolution": 1,
  "PixelBandwidth": 2290,
  "ProcedureStepDescription": "video_friends",
  "ProtocolName": "func_task-friends-s02e16a",
  "PulseSequenceDetails": "%CustomerSeq%_cmrr_mbep2d_bold",
  "ReceiveCoilActiveElements": "HC1-7;NC1,2",
  "ReceiveCoilName": "HeadNeck_64",
  "ReconMatrixPE": 104,
  "RepetitionTime": 1.49,
  "SAR": 0.0375011,
  "ScanOptions": "FS",
  "ScanningSequence": "EP",
  "SequenceName": "epfid2d1_104",
  "SequenceVariant": "SK_SS",
  "SeriesDescription": "func_task-friends-s02e16a",
  "SeriesNumber": 8,
  "ShimSetting": [626, -7211, -8845, 427, -16, -99, 68, -21],
  "SliceThickness": 2,
  "SliceTiming": [0, 0.7825, 0.0975, 0.8825, 0.195, 0.98, 0.2925, 1.0775, 0.3925, 1.175, 0.49, 1.2725, 0.5875, 1.3725, 0.685, 0, 0.7825, 0.0975, 0.8825, 0.195, 0.98, 0.2925, 1.0775, 0.3925, 1.175, 0.49, 1.2725, 0.5875, 1.3725, 0.685, 0, 0.7825, 0.0975, 0.8825, 0.195, 0.98, 0.2925, 1.0775, 0.3925, 1.175, 0.49, 1.2725, 0.5875, 1.3725, 0.685, 0, 0.7825, 0.0975, 0.8825, 0.195, 0.98, 0.2925, 1.0775, 0.3925, 1.175, 0.49, 1.2725, 0.5875, 1.3725, 0.685],
  "SoftwareVersions": "syngo_MR_E11",
  "SpacingBetweenSlices": 2,
  "StationName": "MRC35049",
  "TaskName": "s02e16a",
  "TotalReadoutTime": 0.0576811,
  "TxRefAmp": 248.786,
  "WipMemBlock": "8a208b10-d28d-4a08-87ad-567b7dc35b1a||Sequence: R016 ve11c/master r/e634e98; Dec 19 2017 11:00:25 by eja",
  "dcmmeta_affine": [
    [-1.9999938011169434, -0.0031416313722729683, 0.003864077152684331, 102.88440704345703],
    [-0.004580641631036997, 1.7694159746170044, -0.9322800040245056, -63.92225646972656],
    [0.0019541399087756872, 0.9322860240936279, 1.769417643547058, -81.76414489746094],
    [0.0, 0.0, 0.0, 1.0]
],
  "dcmmeta_reorient_transform": [
    [0.0, -1.0, 0.0, 103.0],
    [1.0, 0.0, 0.0, 0.0],
    [0.0, 0.0, 1.0, 0.0],
    [0.0, 0.0, 0.0, 1.0]
],
  "dcmmeta_shape": [104, 104, 60, 478],
  "dcmmeta_slice_dim": 2,
  "dcmmeta_version": 0.6,
  "global": {
    "const": {
      "AcquisitionMatrix": [104, 0, 0, 104],
      "AngioFlag": "N",
      "BitsAllocated": 16,
      "BitsStored": 16,
      "BodyPartExamined": "BRAIN",
      "Columns": 832,
      "EchoNumbers": 1,
      "EchoTime": 37.0,
      "EchoTrainLength": 104,
      "FlipAngle": 52.0,
      "HighBit": 15,
      "ImageOrientationPatient": [0.99999689987758, 0.0022903208456, 0.00097706993772, -0.0015708157145, 0.88470799335461, -0.4661430027711],
      "ImagePositionPatient": [-829.41500935554, -764.0623627344, 352.90211602337],
      "ImageType": [
        "ORIGINAL",
        "PRIMARY",
        "M",
        "MB",
        "ND",
        "MOSAIC"
],
      "ImagedNucleus": "1H",
      "ImagingFrequency": 123.259095,
      "InPlanePhaseEncodingDirection": "COL",
      "MRAcquisitionType": "2D",
      "MagneticFieldStrength": 3.0,
      "Manufacturer": "SIEMENS",
      "ManufacturerModelName": "Prisma_fit",
      "Modality": "MR",
      "NumberOfAverages": 1.0,
      "NumberOfPhaseEncodingSteps": 104,
      "PercentPhaseFieldOfView": 100.0,
      "PercentSampling": 100.0,
      "PerformedProcedureStepStartTime": "143441.380000",
      "PhotometricInterpretation": "MONOCHROME2",
      "PixelBandwidth": 2290.0,
      "PixelRepresentation": 0,
      "PixelSpacing": [2.0, 2.0],
      "ProtocolName": "func_task-friends-s02e16a",
      "RepetitionTime": 1490.0,
      "Rows": 832,
      "SAR": 0.03750110596175,
      "SamplesPerPixel": 1,
      "ScanOptions": "FS",
      "ScanningSequence": "EP",
      "SequenceName": "epfid2d1_104",
      "SequenceVariant": [
        "SK",
        "SS"
],
      "SeriesDescription": "func_task-friends-s02e16a",
      "SeriesNumber": 8,
      "SeriesTime": "144906.509000",
      "SliceLocation": -42.341960773855,
      "SliceThickness": 2.0,
      "SmallestImagePixelValue": 0,
      "SoftwareVersions": "syngo MR E11",
      "SpacingBetweenSlices": 1.999999955369,
      "SpecificCharacterSet": "ISO_IR 100",
      "StudyID": "1",
      "StudyTime": "143441.330000",
      "TransmitCoilName": "Body",
      "VariableFlipAngleFlag": "N",
      "WindowCenterWidthExplanation": "Algo1",
      "dBdt": 0.0},
    "slices": {}
  },
  "time": {
    "samples": {
      "AcquisitionNumber": [1, 2, 3, 4, 5, 6, 7, 8, 9, 10, 11, 12, 13, 14, 15, 16, 17, 18, 19, 20, 21, 22, 23, 24, 25, 26, 27, 28, 29, 30, 31, 32, 33, 34, 35, 36, 37, 38, 39, 40, 41, 42, 43, 44, 45, 46, 47, 48, 49, 50, 51, 52, 53, 54, 55, 56, 57, 58, 59, 60, 61, 62, 63, 64, 65, 66, 67, 68, 69, 70, 71, 72, 73, 74, 75, 76, 77, 78, 79, 80, 81, 82, 83, 84, 85, 86, 87, 88, 89, 90, 91, 92, 93, 94, 95, 96, 97, 98, 99, 100, 101, 102, 103, 104, 105, 106, 107, 108, 109, 110, 111, 112, 113, 114, 115, 116, 117, 118, 119, 120, 121, 122, 123, 124, 125, 126, 127, 128, 129, 130, 131, 132, 133, 134, 135, 136, 137, 138, 139, 140, 141, 142, 143, 144, 145, 146, 147, 148, 149, 150, 151, 152, 153, 154, 155, 156, 157, 158, 159, 160, 161, 162, 163, 164, 165, 166, 167, 168, 169, 170, 171, 172, 173, 174, 175, 176, 177, 178, 179, 180, 181, 182, 183, 184, 185, 186, 187, 188, 189, 190, 191, 192, 193, 194, 195, 196, 197, 198, 199, 200, 201, 202, 203, 204, 205, 206, 207, 208, 209, 210, 211, 212, 213, 214, 215, 216, 217, 218, 219, 220, 221, 222, 223, 224, 225, 226, 227, 228, 229, 230, 231, 232, 233, 234, 235, 236, 237, 238, 239, 240, 241, 242, 243, 244, 245, 246, 247, 248, 249, 250, 251, 252, 253, 254, 255, 256, 257, 258, 259, 260, 261, 262, 263, 264, 265, 266, 267, 268, 269, 270, 271, 272, 273, 274, 275, 276, 277, 278, 279, 280, 281, 282, 283, 284, 285, 286, 287, 288, 289, 290, 291, 292, 293, 294, 295, 296, 297, 298, 299, 300, 301, 302, 303, 304, 305, 306, 307, 308, 309, 310, 311, 312, 313, 314, 315, 316, 317, 318, 319, 320, 321, 322, 323, 324, 325, 326, 327, 328, 329, 330, 331, 332, 333, 334, 335, 336, 337, 338, 339, 340, 341, 342, 343, 344, 345, 346, 347, 348, 349, 350, 351, 352, 353, 354, 355, 356, 357, 358, 359, 360, 361, 362, 363, 364, 365, 366, 367, 368, 369, 370, 371, 372, 373, 374, 375, 376, 377, 378, 379, 380, 381, 382, 383, 384, 385, 386, 387, 388, 389, 390, 391, 392, 393, 394, 395, 396, 397, 398, 399, 400, 401, 402, 403, 404, 405, 406, 407, 408, 409, 410, 411, 412, 413, 414, 415, 416, 417, 418, 419, 420, 421, 422, 423, 424, 425, 426, 427, 428, 429, 430, 431, 432, 433, 434, 435, 436, 437, 438, 439, 440, 441, 442, 443, 444, 445, 446, 447, 448, 449, 450, 451, 452, 453, 454, 455, 456, 457, 458, 459, 460, 461, 462, 463, 464, 465, 466, 467, 468, 469, 470, 471, 472, 473, 474, 475, 476, 477, 478],
      "AcquisitionTime": ["144736.875000", "144738.365000", "144739.855000", "144741.345000", "144742.835000", "144744.325000", "144745.815000", "144747.305000", "144748.795000", "144750.285000", "144751.775000", "144753.265000", "144754.755000", "144756.245000", "144757.735000", "144759.225000", "144800.715000", "144802.205000", "144803.695000", "144805.185000", "144806.675000", "144808.165000", "144809.655000", "144811.145000", "144812.635000", "144814.125000", "144815.615000", "144817.105000", "144818.595000", "144820.085000", "144821.575000", "144823.065000", "144824.555000", "144826.045000", "144827.535000", "144829.025000", "144830.515000", "144832.005000", "144833.495000", "144834.985000", "144836.475000", "144837.965000", "144839.455000", "144840.945000", "144842.435000", "144843.925000", "144845.415000", "144846.905000", "144848.395000", "144849.885000", "144851.375000", "144852.865000", "144854.355000", "144855.845000", "144857.335000", "144858.825000", "144900.315000", "144901.805000", "144903.295000", "144904.785000", "144906.275000", "144907.765000", "144909.255000", "144910.745000", "144912.235000", "144913.725000", "144915.215000", "144916.705000", "144918.195000", "144919.685000", "144921.175000", "144922.665000", "144924.155000", "144925.645000", "144927.135000", "144928.625000", "144930.115000", "144931.605000", "144933.095000", "144934.585000", "144936.075000", "144937.565000", "144939.055000", "144940.545000", "144942.035000", "144943.525000", "144945.015000", "144946.505000", "144947.995000", "144949.485000", "144950.975000", "144952.465000", "144953.955000", "144955.445000", "144956.935000", "144958.425000", "144959.915000", "145001.405000", "145002.895000", "145004.385000", "145005.875000", "145007.365000", "145008.855000", "145010.345000", "145011.835000", "145013.325000", "145014.815000", "145016.305000", "145017.795000", "145019.285000", "145020.775000", "145022.265000", "145023.755000", "145025.245000", "145026.735000", "145028.225000", "145029.715000", "145031.205000", "145032.695000", "145034.185000", "145035.675000", "145037.165000", "145038.655000", "145040.145000", "145041.635000", "145043.125000", "145044.615000", "145046.105000", "145047.595000", "145049.085000", "145050.575000", "145052.065000", "145053.555000", "145055.045000", "145056.535000", "145058.025000", "145059.515000", "145101.005000", "145102.495000", "145103.985000", "145105.475000", "145106.965000", "145108.455000", "145109.945000", "145111.435000", "145112.925000", "145114.415000", "145115.905000", "145117.395000", "145118.885000", "145120.375000", "145121.865000", "145123.355000", "145124.845000", "145126.335000", "145127.825000", "145129.315000", "145130.805000", "145132.295000", "145133.785000", "145135.275000", "145136.765000", "145138.255000", "145139.745000", "145141.235000", "145142.725000", "145144.215000", "145145.705000", "145147.195000", "145148.685000", "145150.175000", "145151.665000", "145153.155000", "145154.645000", "145156.135000", "145157.625000", "145159.115000", "145200.605000", "145202.095000", "145203.585000", "145205.075000", "145206.565000", "145208.055000", "145209.545000", "145211.035000", "145212.525000", "145214.015000", "145215.505000", "145216.995000", "145218.485000", "145219.975000", "145221.465000", "145222.955000", "145224.445000", "145225.935000", "145227.425000", "145228.915000", "145230.405000", "145231.895000", "145233.385000", "145234.875000", "145236.365000", "145237.855000", "145239.345000", "145240.835000", "145242.325000", "145243.815000", "145245.305000", "145246.795000", "145248.285000", "145249.775000", "145251.265000", "145252.755000", "145254.245000", "145255.735000", "145257.225000", "145258.715000", "145300.205000", "145301.695000", "145303.185000", "145304.675000", "145306.165000", "145307.655000", "145309.145000", "145310.635000", "145312.125000", "145313.615000", "145315.105000", "145316.595000", "145318.085000", "145319.575000", "145321.065000", "145322.555000", "145324.045000", "145325.535000", "145327.025000", "145328.515000", "145330.005000", "145331.495000", "145332.985000", "145334.475000", "145335.965000", "145337.455000", "145338.945000", "145340.435000", "145341.925000", "145343.415000", "145344.905000", "145346.395000", "145347.885000", "145349.375000", "145350.865000", "145352.355000", "145353.845000", "145355.335000", "145356.825000", "145358.315000", "145359.805000", "145401.295000", "145402.785000", "145404.275000", "145405.765000", "145407.255000", "145408.745000", "145410.235000", "145411.725000", "145413.215000", "145414.705000", "145416.195000", "145417.685000", "145419.175000", "145420.665000", "145422.155000", "145423.645000", "145425.135000", "145426.625000", "145428.115000", "145429.605000", "145431.095000", "145432.585000", "145434.075000", "145435.565000", "145437.055000", "145438.545000", "145440.035000", "145441.525000", "145443.015000", "145444.505000", "145445.995000", "145447.485000", "145448.975000", "145450.465000", "145451.955000", "145453.445000", "145454.935000", "145456.425000", "145457.915000", "145459.405000", "145500.895000", "145502.385000", "145503.875000", "145505.365000", "145506.855000", "145508.345000", "145509.835000", "145511.325000", "145512.815000", "145514.305000", "145515.795000", "145517.285000", "145518.775000", "145520.265000", "145521.755000", "145523.245000", "145524.735000", "145526.225000", "145527.715000", "145529.205000", "145530.695000", "145532.185000", "145533.675000", "145535.165000", "145536.655000", "145538.145000", "145539.635000", "145541.125000", "145542.615000", "145544.105000", "145545.595000", "145547.085000", "145548.575000", "145550.065000", "145551.555000", "145553.045000", "145554.535000", "145556.025000", "145557.515000", "145559.005000", "145600.495000", "145601.985000", "145603.475000", "145604.965000", "145606.455000", "145607.945000", "145609.435000", "145610.925000", "145612.415000", "145613.905000", "145615.395000", "145616.885000", "145618.375000", "145619.865000", "145621.355000", "145622.845000", "145624.335000", "145625.825000", "145627.315000", "145628.805000", "145630.295000", "145631.785000", "145633.275000", "145634.765000", "145636.255000", "145637.745000", "145639.235000", "145640.725000", "145642.215000", "145643.705000", "145645.195000", "145646.685000", "145648.175000", "145649.665000", "145651.155000", "145652.645000", "145654.135000", "145655.625000", "145657.115000", "145658.605000", "145700.095000", "145701.585000", "145703.075000", "145704.565000", "145706.055000", "145707.545000", "145709.035000", "145710.525000", "145712.015000", "145713.505000", "145714.995000", "145716.485000", "145717.975000", "145719.465000", "145720.955000", "145722.445000", "145723.935000", "145725.425000", "145726.915000", "145728.405000", "145729.895000", "145731.385000", "145732.875000", "145734.365000", "145735.855000", "145737.345000", "145738.835000", "145740.325000", "145741.815000", "145743.305000", "145744.795000", "145746.285000", "145747.775000", "145749.265000", "145750.755000", "145752.245000", "145753.735000", "145755.225000", "145756.715000", "145758.205000", "145759.695000", "145801.185000", "145802.675000", "145804.165000", "145805.655000", "145807.145000", "145808.635000", "145810.125000", "145811.615000", "145813.105000", "145814.595000", "145816.085000", "145817.575000", "145819.065000", "145820.555000", "145822.045000", "145823.535000", "145825.025000", "145826.515000", "145828.005000", "145829.495000", "145830.985000", "145832.475000", "145833.965000", "145835.455000", "145836.945000", "145838.435000", "145839.925000", "145841.415000", "145842.905000", "145844.395000", "145845.885000", "145847.375000", "145848.865000", "145850.355000", "145851.845000", "145853.335000", "145854.825000", "145856.315000", "145857.805000", "145859.295000", "145900.785000", "145902.275000", "145903.765000", "145905.255000", "145906.745000", "145908.235000", "145909.725000", "145911.215000", "145912.705000", "145914.195000", "145915.685000", "145917.175000", "145918.665000", "145920.155000", "145921.645000", "145923.135000", "145924.625000", "145926.115000", "145927.605000"],
      "ContentTime": ["144906.511000", "144906.515000", "144906.517000", "144906.520000", "144906.523000", "144906.526000", "144906.529000", "144906.532000", "144906.534000", "144906.537000", "144906.540000", "144906.543000", "144906.546000", "144906.548000", "144906.551000", "144906.554000", "144906.557000", "144906.560000", "144906.562000", "144906.565000", "144906.568000", "144906.571000", "144906.574000", "144906.576000", "144906.579000", "144906.582000", "144906.585000", "144906.588000", "144906.591000", "144906.593000", "144906.596000", "144906.609000", "144906.612000", "144906.614000", "144906.617000", "144906.620000", "144906.623000", "144906.626000", "144926.482000", "144926.485000", "144926.488000", "144926.490000", "144926.493000", "144926.496000", "144926.499000", "144926.501000", "144926.504000", "144926.507000", "144926.510000", "144926.513000", "144926.515000", "144926.518000", "144926.521000", "144926.524000", "144926.527000", "144926.530000", "144926.532000", "144926.535000", "144946.483000", "144946.486000", "144946.488000", "144946.491000", "144946.494000", "144946.497000", "144946.500000", "144946.502000", "144946.505000", "144946.508000", "144946.511000", "144946.514000", "144946.517000", "144946.519000", "144946.522000", "144946.525000", "144946.528000", "144946.531000", "144946.534000", "144946.536000", "145006.483000", "145006.486000", "145006.488000", "145006.491000", "145006.494000", "145006.497000", "145006.500000", "145006.502000", "145006.505000", "145006.508000", "145006.511000", "145006.513000", "145006.516000", "145006.519000", "145006.522000", "145006.525000", "145006.527000", "145006.530000", "145006.533000", "145006.536000", "145046.483000", "145046.486000", "145046.488000", "145046.491000", "145046.494000", "145046.497000", "145046.500000", "145046.502000", "145046.505000", "145046.508000", "145046.511000", "145046.514000", "145046.516000", "145046.519000", "145046.522000", "145046.525000", "145046.528000", "145046.531000", "145046.533000", "145046.536000", "145046.539000", "145046.542000", "145046.545000", "145046.548000", "145046.550000", "145046.553000", "145046.556000", "145046.559000", "145046.562000", "145126.482000", "145126.485000", "145126.488000", "145126.491000", "145126.494000", "145126.496000", "145126.499000", "145126.502000", "145126.505000", "145126.508000", "145126.511000", "145126.513000", "145126.516000", "145126.519000", "145126.522000", "145126.525000", "145126.528000", "145126.530000", "145126.533000", "145126.536000", "145126.539000", "145126.542000", "145126.545000", "145126.547000", "145126.550000", "145126.553000", "145206.483000", "145206.486000", "145206.489000", "145206.491000", "145206.494000", "145206.497000", "145206.500000", "145206.503000", "145206.505000", "145206.508000", "145206.511000", "145206.514000", "145206.517000", "145206.520000", "145206.522000", "145206.525000", "145206.528000", "145206.531000", "145206.534000", "145206.537000", "145206.540000", "145206.542000", "145206.545000", "145206.548000", "145206.551000", "145206.554000", "145206.556000", "145246.483000", "145246.486000", "145246.489000", "145246.491000", "145246.494000", "145246.497000", "145246.500000", "145246.503000", "145246.506000", "145246.508000", "145246.511000", "145246.514000", "145246.517000", "145246.520000", "145246.523000", "145246.525000", "145246.528000", "145246.531000", "145246.534000", "145246.537000", "145246.550000", "145246.553000", "145246.555000", "145246.558000", "145246.561000", "145246.564000", "145246.567000", "145306.483000", "145306.486000", "145306.489000", "145306.492000", "145306.495000", "145306.506000", "145306.509000", "145306.512000", "145306.515000", "145306.518000", "145306.521000", "145306.523000", "145306.526000", "145306.529000", "145346.482000", "145346.485000", "145346.488000", "145346.490000", "145346.494000", "145346.497000", "145346.500000", "145346.503000", "145346.506000", "145346.508000", "145346.511000", "145346.514000", "145346.517000", "145346.520000", "145346.522000", "145346.525000", "145346.528000", "145346.531000", "145346.534000", "145346.537000", "145346.540000", "145346.542000", "145346.545000", "145346.549000", "145346.551000", "145346.554000", "145426.483000", "145426.486000", "145426.489000", "145426.491000", "145426.494000", "145426.497000", "145426.500000", "145426.503000", "145426.505000", "145426.508000", "145426.511000", "145426.514000", "145426.517000", "145426.520000", "145426.522000", "145426.525000", "145426.528000", "145426.531000", "145426.534000", "145426.536000", "145426.539000", "145426.542000", "145426.545000", "145426.548000", "145426.551000", "145426.553000", "145426.556000", "145506.483000", "145506.486000", "145506.489000", "145506.491000", "145506.494000", "145506.497000", "145506.500000", "145506.503000", "145506.506000", "145506.508000", "145506.511000", "145506.514000", "145506.517000", "145506.520000", "145506.523000", "145506.526000", "145506.529000", "145506.531000", "145506.534000", "145506.537000", "145506.540000", "145506.543000", "145506.545000", "145506.548000", "145506.551000", "145506.554000", "145506.557000", "145546.483000", "145546.486000", "145546.489000", "145546.492000", "145546.494000", "145546.497000", "145546.500000", "145546.503000", "145546.506000", "145546.509000", "145546.512000", "145546.514000", "145546.517000", "145546.520000", "145546.523000", "145546.526000", "145546.528000", "145546.531000", "145546.534000", "145546.537000", "145546.540000", "145546.543000", "145546.546000", "145546.558000", "145546.561000", "145546.564000", "145546.566000", "145626.482000", "145626.485000", "145626.488000", "145626.490000", "145626.493000", "145626.496000", "145626.499000", "145626.502000", "145626.505000", "145626.508000", "145626.510000", "145626.513000", "145626.516000", "145626.519000", "145626.522000", "145626.524000", "145626.527000", "145626.530000", "145626.533000", "145626.536000", "145626.539000", "145626.542000", "145626.545000", "145626.547000", "145626.550000", "145626.553000", "145626.556000", "145706.483000", "145706.486000", "145706.489000", "145706.491000", "145706.494000", "145706.497000", "145706.500000", "145706.503000", "145706.506000", "145706.508000", "145706.511000", "145706.514000", "145706.517000", "145706.520000", "145706.522000", "145706.525000", "145706.528000", "145706.531000", "145706.534000", "145706.536000", "145706.539000", "145706.542000", "145706.545000", "145706.548000", "145706.551000", "145706.553000", "145706.556000", "145746.483000", "145746.486000", "145746.489000", "145746.492000", "145746.494000", "145746.497000", "145746.500000", "145746.503000", "145746.506000", "145746.509000", "145746.512000", "145746.515000", "145746.519000", "145746.522000", "145746.524000", "145746.527000", "145746.530000", "145746.533000", "145746.536000", "145746.539000", "145746.542000", "145746.544000", "145746.547000", "145746.550000", "145746.553000", "145746.556000", "145826.482000", "145826.485000", "145826.488000", "145826.491000", "145826.493000", "145826.496000", "145826.499000", "145826.502000", "145826.505000", "145826.507000", "145826.510000", "145826.513000", "145826.516000", "145826.519000", "145826.522000", "145826.524000", "145826.527000", "145826.530000", "145826.533000", "145826.536000", "145826.539000", "145826.542000", "145826.544000", "145826.547000", "145826.550000", "145826.553000", "145826.556000", "145906.483000", "145906.486000", "145906.489000", "145906.492000", "145906.494000", "145906.497000", "145906.500000", "145906.503000", "145906.506000", "145906.509000", "145906.512000", "145906.514000", "145906.517000", "145906.520000", "145906.523000", "145906.526000", "145906.528000", "145906.531000", "145906.534000", "145906.537000", "145906.540000", "145906.543000", "145906.546000", "145906.548000", "145906.551000", "145906.554000", "145906.557000", "145929.382000", "145929.385000", "145929.388000", "145929.391000", "145929.394000", "145929.397000", "145929.399000", "145929.403000", "145929.405000", "145929.408000", "145929.411000", "145929.414000", "145929.417000", "145929.420000", "145929.423000", "145929.426000"],
