{
  "AcquisitionMatrixPE": 104,
  "AcquisitionNumber": 1,
  "AcquisitionTime": "15:37:57.472500",
  "BandwidthPerPixelPhaseEncode": 17.17,
  "BaseResolution": 104,
  "BodyPartExamined": "BRAIN",
  "CoilString": "HC1-7;NC1_2",
  "ConsistencyInfo": "N4_VE11C_LATEST_20160120",
  "ConversionSoftware": "dcm2niix",
  "ConversionSoftwareVersion": "v1.0.20190902",
  "DerivedVendorReportedEchoSpacing": 0.000560011,
  "DeviceSerialNumber": "167006",
  "DwellTime": 2.1e-06,
  "EchoTime": 0.037,
  "EchoTrainLength": 104,
  "EffectiveEchoSpacing": 0.000560011,
  "FlipAngle": 52,
  "ImageComments": "Unaliased_MB4_PE3_LB",
  "ImageOrientationPatientDICOM": [0.999997, 0.00229032, 0.00097707, -0.00157082, 0.884708, -0.466143],
  "ImageType": [
    "ORIGINAL",
    "PRIMARY",
    "M",
    "MB",
    "ND",
    "MOSAIC"
],
  "ImagingFrequency": 123.259,
  "InPlanePhaseEncodingDirectionDICOM": "COL",
  "InstitutionAddress": "Chemin_Queen-Mary_4565_Montreal_District_CA_H3W_1W5",
  "InstitutionName": "IUGM",
  "InstitutionalDepartmentName": "Department",
  "MRAcquisitionType": "2D",
  "MagneticFieldStrength": 3,
  "Manufacturer": "Siemens",
  "ManufacturersModelName": "Prisma_fit",
  "Modality": "MR",
  "MultibandAccelerationFactor": 4,
  "PartialFourier": 1,
  "PatientPosition": "HFS",
  "PercentPhaseFOV": 100,
  "PhaseEncodingDirection": "j",
  "PhaseEncodingSteps": 104,
  "PhaseResolution": 1,
  "PixelBandwidth": 2290,
  "ProcedureStepDescription": "video_friends",
  "ProtocolName": "func_task-friends-s02e18a",
  "PulseSequenceDetails": "%CustomerSeq%_cmrr_mbep2d_bold",
  "ReceiveCoilActiveElements": "HC1-7;NC1,2",
  "ReceiveCoilName": "HeadNeck_64",
  "ReconMatrixPE": 104,
  "RepetitionTime": 1.49,
  "SAR": 0.037495,
  "ScanOptions": "FS",
  "ScanningSequence": "EP",
  "SequenceName": "epfid2d1_104",
  "SequenceVariant": "SK_SS",
  "SeriesDescription": "func_task-friends-s02e18a",
  "SeriesNumber": 16,
  "ShimSetting": [626, -7211, -8845, 427, -16, -99, 68, -21],
  "SliceThickness": 2,
  "SliceTiming": [0, 0.7825, 0.0975, 0.8825, 0.195, 0.98, 0.2925, 1.0775, 0.3925, 1.175, 0.49, 1.2725, 0.5875, 1.3725, 0.685, 0, 0.7825, 0.0975, 0.8825, 0.195, 0.98, 0.2925, 1.0775, 0.3925, 1.175, 0.49, 1.2725, 0.5875, 1.3725, 0.685, 0, 0.7825, 0.0975, 0.8825, 0.195, 0.98, 0.2925, 1.0775, 0.3925, 1.175, 0.49, 1.2725, 0.5875, 1.3725, 0.685, 0, 0.7825, 0.0975, 0.8825, 0.195, 0.98, 0.2925, 1.0775, 0.3925, 1.175, 0.49, 1.2725, 0.5875, 1.3725, 0.685],
  "SoftwareVersions": "syngo_MR_E11",
  "SpacingBetweenSlices": 2,
  "StationName": "MRC35049",
  "TaskName": "s02e18a",
  "TotalReadoutTime": 0.0576811,
  "TxRefAmp": 248.786,
  "WipMemBlock": "fb2dc198-86f2-4f66-9068-e2db42ab4bf7||Sequence: R016 ve11c/master r/e634e98; Dec 19 2017 11:00:25 by eja",
  "dcmmeta_affine": [
    [-1.9999938011169434, -0.0031416313722729683, 0.003864077152684331, 102.88440704345703],
    [-0.004580641631036997, 1.7694159746170044, -0.9322800040245056, -63.92225646972656],
    [0.0019541399087756872, 0.9322860240936279, 1.769417643547058, -81.76414489746094],
    [0.0, 0.0, 0.0, 1.0]
],
  "dcmmeta_reorient_transform": [
    [0.0, -1.0, 0.0, 103.0],
    [1.0, 0.0, 0.0, 0.0],
    [0.0, 0.0, 1.0, 0.0],
    [0.0, 0.0, 0.0, 1.0]
],
  "dcmmeta_shape": [104, 104, 60, 460],
  "dcmmeta_slice_dim": 2,
  "dcmmeta_version": 0.6,
  "global": {
    "const": {
      "AcquisitionMatrix": [104, 0, 0, 104],
      "AngioFlag": "N",
      "BitsAllocated": 16,
      "BitsStored": 16,
      "BodyPartExamined": "BRAIN",
      "Columns": 832,
      "EchoNumbers": 1,
      "EchoTime": 37.0,
      "EchoTrainLength": 104,
      "FlipAngle": 52.0,
      "HighBit": 15,
      "ImageOrientationPatient": [0.99999689987758, 0.0022903208456, 0.00097706993772, -0.0015708157145, 0.88470799335461, -0.4661430027711],
      "ImagePositionPatient": [-829.41500935554, -764.0623627344, 352.90211602337],
      "ImageType": [
        "ORIGINAL",
        "PRIMARY",
        "M",
        "MB",
        "ND",
        "MOSAIC"
],
      "ImagedNucleus": "1H",
      "ImagingFrequency": 123.259124,
      "InPlanePhaseEncodingDirection": "COL",
      "MRAcquisitionType": "2D",
      "MagneticFieldStrength": 3.0,
      "Manufacturer": "SIEMENS",
      "ManufacturerModelName": "Prisma_fit",
      "Modality": "MR",
      "NumberOfAverages": 1.0,
      "NumberOfPhaseEncodingSteps": 104,
      "PercentPhaseFieldOfView": 100.0,
      "PercentSampling": 100.0,
      "PerformedProcedureStepStartTime": "143441.380000",
      "PhotometricInterpretation": "MONOCHROME2",
      "PixelBandwidth": 2290.0,
      "PixelRepresentation": 0,
      "PixelSpacing": [2.0, 2.0],
      "ProtocolName": "func_task-friends-s02e18a",
      "RepetitionTime": 1490.0,
      "Rows": 832,
      "SAR": 0.03749503854581,
      "SamplesPerPixel": 1,
      "ScanOptions": "FS",
      "ScanningSequence": "EP",
      "SequenceName": "epfid2d1_104",
      "SequenceVariant": [
        "SK",
        "SS"
],
      "SeriesDescription": "func_task-friends-s02e18a",
      "SeriesNumber": 16,
      "SeriesTime": "153927.209000",
      "SliceLocation": -42.341960773855,
      "SliceThickness": 2.0,
      "SmallestImagePixelValue": 0,
      "SoftwareVersions": "syngo MR E11",
      "SpacingBetweenSlices": 1.999999955369,
      "SpecificCharacterSet": "ISO_IR 100",
      "StudyID": "1",
      "StudyTime": "143441.330000",
      "TransmitCoilName": "Body",
      "VariableFlipAngleFlag": "N",
      "WindowCenterWidthExplanation": "Algo1",
      "dBdt": 0.0},
    "slices": {}
  },
  "time": {
    "samples": {
      "AcquisitionNumber": [1, 2, 3, 4, 5, 6, 7, 8, 9, 10, 11, 12, 13, 14, 15, 16, 17, 18, 19, 20, 21, 22, 23, 24, 25, 26, 27, 28, 29, 30, 31, 32, 33, 34, 35, 36, 37, 38, 39, 40, 41, 42, 43, 44, 45, 46, 47, 48, 49, 50, 51, 52, 53, 54, 55, 56, 57, 58, 59, 60, 61, 62, 63, 64, 65, 66, 67, 68, 69, 70, 71, 72, 73, 74, 75, 76, 77, 78, 79, 80, 81, 82, 83, 84, 85, 86, 87, 88, 89, 90, 91, 92, 93, 94, 95, 96, 97, 98, 99, 100, 101, 102, 103, 104, 105, 106, 107, 108, 109, 110, 111, 112, 113, 114, 115, 116, 117, 118, 119, 120, 121, 122, 123, 124, 125, 126, 127, 128, 129, 130, 131, 132, 133, 134, 135, 136, 137, 138, 139, 140, 141, 142, 143, 144, 145, 146, 147, 148, 149, 150, 151, 152, 153, 154, 155, 156, 157, 158, 159, 160, 161, 162, 163, 164, 165, 166, 167, 168, 169, 170, 171, 172, 173, 174, 175, 176, 177, 178, 179, 180, 181, 182, 183, 184, 185, 186, 187, 188, 189, 190, 191, 192, 193, 194, 195, 196, 197, 198, 199, 200, 201, 202, 203, 204, 205, 206, 207, 208, 209, 210, 211, 212, 213, 214, 215, 216, 217, 218, 219, 220, 221, 222, 223, 224, 225, 226, 227, 228, 229, 230, 231, 232, 233, 234, 235, 236, 237, 238, 239, 240, 241, 242, 243, 244, 245, 246, 247, 248, 249, 250, 251, 252, 253, 254, 255, 256, 257, 258, 259, 260, 261, 262, 263, 264, 265, 266, 267, 268, 269, 270, 271, 272, 273, 274, 275, 276, 277, 278, 279, 280, 281, 282, 283, 284, 285, 286, 287, 288, 289, 290, 291, 292, 293, 294, 295, 296, 297, 298, 299, 300, 301, 302, 303, 304, 305, 306, 307, 308, 309, 310, 311, 312, 313, 314, 315, 316, 317, 318, 319, 320, 321, 322, 323, 324, 325, 326, 327, 328, 329, 330, 331, 332, 333, 334, 335, 336, 337, 338, 339, 340, 341, 342, 343, 344, 345, 346, 347, 348, 349, 350, 351, 352, 353, 354, 355, 356, 357, 358, 359, 360, 361, 362, 363, 364, 365, 366, 367, 368, 369, 370, 371, 372, 373, 374, 375, 376, 377, 378, 379, 380, 381, 382, 383, 384, 385, 386, 387, 388, 389, 390, 391, 392, 393, 394, 395, 396, 397, 398, 399, 400, 401, 402, 403, 404, 405, 406, 407, 408, 409, 410, 411, 412, 413, 414, 415, 416, 417, 418, 419, 420, 421, 422, 423, 424, 425, 426, 427, 428, 429, 430, 431, 432, 433, 434, 435, 436, 437, 438, 439, 440, 441, 442, 443, 444, 445, 446, 447, 448, 449, 450, 451, 452, 453, 454, 455, 456, 457, 458, 459, 460],
      "AcquisitionTime": ["153757.472500", "153758.962500", "153800.452500", "153801.942500", "153803.432500", "153804.922500", "153806.412500", "153807.902500", "153809.392500", "153810.882500", "153812.372500", "153813.862500", "153815.352500", "153816.842500", "153818.332500", "153819.822500", "153821.312500", "153822.802500", "153824.292500", "153825.782500", "153827.272500", "153828.762500", "153830.252500", "153831.742500", "153833.232500", "153834.722500", "153836.212500", "153837.702500", "153839.192500", "153840.682500", "153842.172500", "153843.662500", "153845.152500", "153846.642500", "153848.132500", "153849.622500", "153851.112500", "153852.602500", "153854.092500", "153855.582500", "153857.072500", "153858.562500", "153900.052500", "153901.542500", "153903.032500", "153904.522500", "153906.012500", "153907.502500", "153908.992500", "153910.482500", "153911.972500", "153913.462500", "153914.952500", "153916.442500", "153917.932500", "153919.422500", "153920.912500", "153922.402500", "153923.892500", "153925.382500", "153926.872500", "153928.362500", "153929.852500", "153931.342500", "153932.832500", "153934.322500", "153935.812500", "153937.302500", "153938.792500", "153940.282500", "153941.772500", "153943.262500", "153944.752500", "153946.242500", "153947.732500", "153949.222500", "153950.712500", "153952.202500", "153953.692500", "153955.182500", "153956.672500", "153958.162500", "153959.652500", "154001.142500", "154002.632500", "154004.122500", "154005.612500", "154007.102500", "154008.592500", "154010.082500", "154011.572500", "154013.062500", "154014.552500", "154016.042500", "154017.532500", "154019.022500", "154020.512500", "154022.002500", "154023.492500", "154024.982500", "154026.472500", "154027.962500", "154029.452500", "154030.942500", "154032.432500", "154033.922500", "154035.412500", "154036.902500", "154038.392500", "154039.882500", "154041.372500", "154042.862500", "154044.352500", "154045.842500", "154047.332500", "154048.822500", "154050.312500", "154051.802500", "154053.292500", "154054.782500", "154056.272500", "154057.762500", "154059.252500", "154100.742500", "154102.232500", "154103.722500", "154105.212500", "154106.702500", "154108.192500", "154109.682500", "154111.172500", "154112.662500", "154114.152500", "154115.642500", "154117.132500", "154118.622500", "154120.112500", "154121.602500", "154123.092500", "154124.582500", "154126.072500", "154127.562500", "154129.052500", "154130.542500", "154132.032500", "154133.522500", "154135.012500", "154136.502500", "154137.992500", "154139.482500", "154140.972500", "154142.462500", "154143.952500", "154145.442500", "154146.932500", "154148.422500", "154149.912500", "154151.402500", "154152.892500", "154154.382500", "154155.872500", "154157.362500", "154158.852500", "154200.342500", "154201.832500", "154203.322500", "154204.812500", "154206.302500", "154207.792500", "154209.282500", "154210.772500", "154212.262500", "154213.752500", "154215.242500", "154216.732500", "154218.222500", "154219.712500", "154221.202500", "154222.692500", "154224.182500", "154225.672500", "154227.162500", "154228.652500", "154230.142500", "154231.632500", "154233.122500", "154234.612500", "154236.102500", "154237.592500", "154239.082500", "154240.572500", "154242.062500", "154243.552500", "154245.042500", "154246.532500", "154248.022500", "154249.512500", "154251.002500", "154252.492500", "154253.982500", "154255.472500", "154256.962500", "154258.452500", "154259.942500", "154301.432500", "154302.922500", "154304.412500", "154305.902500", "154307.392500", "154308.882500", "154310.372500", "154311.862500", "154313.352500", "154314.842500", "154316.332500", "154317.822500", "154319.312500", "154320.802500", "154322.292500", "154323.782500", "154325.272500", "154326.762500", "154328.252500", "154329.742500", "154331.232500", "154332.722500", "154334.212500", "154335.702500", "154337.192500", "154338.682500", "154340.172500", "154341.662500", "154343.152500", "154344.642500", "154346.132500", "154347.622500", "154349.112500", "154350.602500", "154352.092500", "154353.582500", "154355.072500", "154356.562500", "154358.052500", "154359.542500", "154401.032500", "154402.522500", "154404.012500", "154405.502500", "154406.992500", "154408.482500", "154409.972500", "154411.462500", "154412.952500", "154414.442500", "154415.932500", "154417.422500", "154418.912500", "154420.402500", "154421.892500", "154423.382500", "154424.872500", "154426.362500", "154427.852500", "154429.342500", "154430.832500", "154432.322500", "154433.812500", "154435.302500", "154436.792500", "154438.282500", "154439.772500", "154441.262500", "154442.752500", "154444.242500", "154445.732500", "154447.222500", "154448.712500", "154450.202500", "154451.692500", "154453.182500", "154454.672500", "154456.162500", "154457.652500", "154459.142500", "154500.632500", "154502.122500", "154503.612500", "154505.102500", "154506.592500", "154508.082500", "154509.572500", "154511.062500", "154512.552500", "154514.042500", "154515.532500", "154517.022500", "154518.512500", "154520.002500", "154521.492500", "154522.982500", "154524.472500", "154525.962500", "154527.452500", "154528.942500", "154530.432500", "154531.922500", "154533.412500", "154534.902500", "154536.392500", "154537.882500", "154539.372500", "154540.862500", "154542.352500", "154543.842500", "154545.332500", "154546.822500", "154548.312500", "154549.802500", "154551.292500", "154552.782500", "154554.272500", "154555.762500", "154557.252500", "154558.742500", "154600.232500", "154601.722500", "154603.212500", "154604.702500", "154606.192500", "154607.682500", "154609.172500", "154610.662500", "154612.152500", "154613.642500", "154615.132500", "154616.622500", "154618.112500", "154619.602500", "154621.092500", "154622.582500", "154624.072500", "154625.562500", "154627.052500", "154628.542500", "154630.032500", "154631.522500", "154633.012500", "154634.502500", "154635.992500", "154637.482500", "154638.972500", "154640.462500", "154641.952500", "154643.442500", "154644.932500", "154646.422500", "154647.912500", "154649.402500", "154650.892500", "154652.382500", "154653.872500", "154655.362500", "154656.852500", "154658.342500", "154659.832500", "154701.322500", "154702.812500", "154704.302500", "154705.792500", "154707.282500", "154708.772500", "154710.262500", "154711.752500", "154713.242500", "154714.732500", "154716.222500", "154717.712500", "154719.202500", "154720.692500", "154722.182500", "154723.672500", "154725.162500", "154726.652500", "154728.142500", "154729.632500", "154731.122500", "154732.612500", "154734.102500", "154735.592500", "154737.082500", "154738.572500", "154740.062500", "154741.552500", "154743.042500", "154744.532500", "154746.022500", "154747.512500", "154749.002500", "154750.492500", "154751.982500", "154753.472500", "154754.962500", "154756.452500", "154757.942500", "154759.432500", "154800.922500", "154802.412500", "154803.902500", "154805.392500", "154806.882500", "154808.372500", "154809.862500", "154811.352500", "154812.842500", "154814.332500", "154815.822500", "154817.312500", "154818.802500", "154820.292500", "154821.782500", "154823.272500", "154824.762500", "154826.252500", "154827.742500", "154829.232500", "154830.722500", "154832.212500", "154833.702500", "154835.192500", "154836.682500", "154838.172500", "154839.662500", "154841.152500", "154842.642500", "154844.132500", "154845.622500", "154847.112500", "154848.602500", "154850.092500", "154851.582500", "154853.072500", "154854.562500", "154856.052500", "154857.542500", "154859.032500", "154900.522500", "154902.012500", "154903.502500", "154904.992500", "154906.482500", "154907.972500", "154909.462500", "154910.952500", "154912.442500", "154913.932500", "154915.422500", "154916.912500", "154918.402500", "154919.892500", "154921.382500"],
      "ContentTime": ["153927.212000", "153927.215000", "153927.218000", "153927.221000", "153927.224000", "153927.227000", "153927.231000", "153927.234000", "153927.236000", "153927.239000", "153927.242000", "153927.245000", "153927.248000", "153927.251000", "153927.254000", "153927.256000", "153927.259000", "153927.262000", "153927.265000", "153927.268000", "153927.271000", "153927.273000", "153927.281000", "153927.284000", "153927.287000", "153927.290000", "153927.293000", "153927.296000", "153927.299000", "153927.310000", "153927.313000", "153927.315000", "153927.318000", "153927.321000", "153927.324000", "153947.167000", "153947.170000", "153947.173000", "153947.176000", "153947.178000", "153947.181000", "153947.184000", "153947.187000", "153947.190000", "153947.193000", "153947.195000", "153947.198000", "153947.203000", "153947.206000", "153947.209000", "153947.212000", "153947.215000", "153947.218000", "153947.220000", "153947.223000", "153947.226000", "154007.167000", "154007.170000", "154007.173000", "154007.176000", "154007.178000", "154007.181000", "154007.184000", "154007.187000", "154007.190000", "154007.192000", "154007.195000", "154007.198000", "154007.201000", "154007.204000", "154007.207000", "154007.210000", "154007.212000", "154007.215000", "154007.218000", "154007.221000", "154027.167000", "154027.170000", "154027.173000", "154027.176000", "154027.178000", "154027.181000", "154027.184000", "154027.187000", "154027.190000", "154027.193000", "154027.195000", "154027.198000", "154027.201000", "154027.204000", "154027.207000", "154027.209000", "154027.212000", "154027.215000", "154027.218000", "154027.221000", "154107.168000", "154107.171000", "154107.174000", "154107.177000", "154107.180000", "154107.183000", "154107.185000", "154107.188000", "154107.191000", "154107.194000", "154107.197000", "154107.200000", "154107.202000", "154107.205000", "154107.208000", "154107.211000", "154107.214000", "154107.217000", "154107.219000", "154107.222000", "154107.225000", "154107.228000", "154107.231000", "154107.234000", "154107.236000", "154107.239000", "154107.242000", "154107.245000", "154107.248000", "154107.251000", "154147.168000", "154147.171000", "154147.174000", "154147.177000", "154147.179000", "154147.182000", "154147.185000", "154147.188000", "154147.191000", "154147.194000", "154147.197000", "154147.200000", "154147.202000", "154147.205000", "154147.208000", "154147.211000", "154147.214000", "154147.216000", "154147.219000", "154147.222000", "154147.225000", "154147.228000", "154147.231000", "154147.233000", "154147.236000", "154147.239000", "154147.242000", "154227.167000", "154227.170000", "154227.173000", "154227.176000", "154227.179000", "154227.181000", "154227.184000", "154227.197000", "154227.200000", "154227.203000", "154227.206000", "154227.209000", "154227.212000", "154227.214000", "154227.217000", "154227.220000", "154227.223000", "154227.226000", "154227.229000", "154227.231000", "154227.234000", "154227.237000", "154227.240000", "154227.243000", "154227.246000", "154227.257000", "154227.260000", "154307.168000", "154307.171000", "154307.174000", "154307.177000", "154307.180000", "154307.182000", "154307.185000", "154307.188000", "154307.192000", "154307.195000", "154307.198000", "154307.201000", "154307.204000", "154307.206000", "154307.209000", "154307.212000", "154307.215000", "154307.218000", "154307.220000", "154307.223000", "154307.226000", "154307.229000", "154307.232000", "154307.235000", "154307.238000", "154307.240000", "154307.243000", "154347.168000", "154347.171000", "154347.174000", "154347.177000", "154347.180000", "154347.182000", "154347.185000", "154347.188000", "154347.191000", "154347.194000", "154347.197000", "154347.200000", "154347.202000", "154347.205000", "154347.208000", "154347.211000", "154347.214000", "154347.217000", "154347.219000", "154347.222000", "154347.225000", "154347.228000", "154347.231000", "154347.234000", "154347.237000", "154347.240000", "154347.242000", "154427.167000", "154427.170000", "154427.173000", "154427.176000", "154427.179000", "154427.181000", "154427.184000", "154427.187000", "154427.190000", "154427.193000", "154427.196000", "154427.199000", "154427.201000", "154427.204000", "154427.207000", "154427.210000", "154427.213000", "154427.216000", "154427.218000", "154427.221000", "154427.224000", "154427.227000", "154427.230000", "154427.233000", "154427.236000", "154427.244000", "154427.247000", "154507.167000", "154507.170000", "154507.173000", "154507.176000", "154507.179000", "154507.182000", "154507.185000", "154507.188000", "154507.191000", "154507.194000", "154507.196000", "154507.199000", "154507.202000", "154507.205000", "154507.208000", "154507.211000", "154507.213000", "154507.216000", "154507.219000", "154507.222000", "154507.225000", "154507.228000", "154507.231000", "154507.234000", "154507.236000", "154507.239000", "154547.168000", "154547.171000", "154547.174000", "154547.177000", "154547.180000", "154547.182000", "154547.185000", "154547.188000", "154547.191000", "154547.194000", "154547.197000", "154547.199000", "154547.202000", "154547.205000", "154547.208000", "154547.211000", "154547.214000", "154547.217000", "154547.220000", "154547.222000", "154547.225000", "154547.228000", "154547.231000", "154547.234000", "154547.237000", "154547.239000", "154547.242000", "154627.167000", "154627.170000", "154627.173000", "154627.176000", "154627.179000", "154627.181000", "154627.184000", "154627.187000", "154627.190000", "154627.193000", "154627.196000", "154627.199000", "154627.202000", "154627.205000", "154627.208000", "154627.211000", "154627.213000", "154627.216000", "154627.219000", "154627.222000", "154627.225000", "154627.228000", "154627.231000", "154627.233000", "154627.236000", "154627.239000", "154627.242000", "154707.167000", "154707.170000", "154707.173000", "154707.176000", "154707.179000", "154707.181000", "154707.184000", "154707.187000", "154707.190000", "154707.193000", "154707.196000", "154707.199000", "154707.202000", "154707.205000", "154707.207000", "154707.210000", "154707.213000", "154707.216000", "154707.219000", "154707.222000", "154707.225000", "154707.228000", "154707.230000", "154707.233000", "154707.236000", "154707.239000", "154707.242000", "154747.168000", "154747.171000", "154747.174000", "154747.177000", "154747.180000", "154747.183000", "154747.185000", "154747.188000", "154747.191000", "154747.194000", "154747.197000", "154747.200000", "154747.203000", "154747.205000", "154747.208000", "154747.211000", "154747.214000", "154747.217000", "154747.219000", "154747.222000", "154747.225000", "154747.228000", "154747.231000", "154747.234000", "154747.237000", "154747.240000", "154747.242000", "154827.168000", "154827.171000", "154827.174000", "154827.177000", "154827.179000", "154827.182000", "154827.185000", "154827.188000", "154827.191000", "154827.194000", "154827.197000", "154827.200000", "154827.202000", "154827.205000", "154827.208000", "154827.211000", "154827.214000", "154827.217000", "154827.219000", "154827.222000", "154827.225000", "154827.228000", "154827.231000", "154827.234000", "154827.237000", "154827.239000", "154827.242000", "154907.167000", "154907.170000", "154907.173000", "154907.176000", "154907.179000", "154907.182000", "154907.184000", "154907.187000", "154907.190000", "154907.193000", "154907.196000", "154907.199000", "154907.202000", "154907.206000", "154907.209000", "154907.212000", "154907.215000", "154907.218000", "154907.220000", "154907.224000", "154907.227000", "154907.229000", "154907.232000", "154907.235000", "154907.238000", "154907.241000", "154923.648000", "154923.652000", "154923.655000", "154923.658000", "154923.660000", "154923.663000", "154923.666000", "154923.669000", "154923.672000", "154923.675000", "154923.678000", "154923.680000"],
