{
  "AcquisitionMatrixPE": 104,
  "AcquisitionNumber": 1,
  "AcquisitionTime": "14:59:59.027500",
  "BandwidthPerPixelPhaseEncode": 17.17,
  "BaseResolution": 104,
  "BodyPartExamined": "BRAIN",
  "CoilString": "HC1-7;NC1_2",
  "ConsistencyInfo": "N4_VE11C_LATEST_20160120",
  "ConversionSoftware": "dcm2niix",
  "ConversionSoftwareVersion": "v1.0.20190902",
  "DerivedVendorReportedEchoSpacing": 0.000560011,
  "DeviceSerialNumber": "167006",
  "DwellTime": 2.1e-06,
  "EchoTime": 0.037,
  "EchoTrainLength": 104,
  "EffectiveEchoSpacing": 0.000560011,
  "FlipAngle": 52,
  "ImageComments": "Unaliased_MB4_PE3_LB",
  "ImageOrientationPatientDICOM": [0.999997, 0.00229032, 0.00097707, -0.00157082, 0.884708, -0.466143],
  "ImageType": [
    "ORIGINAL",
    "PRIMARY",
    "M",
    "MB",
    "ND",
    "MOSAIC"
],
  "ImagingFrequency": 123.259,
  "InPlanePhaseEncodingDirectionDICOM": "COL",
  "InstitutionAddress": "Chemin_Queen-Mary_4565_Montreal_District_CA_H3W_1W5",
  "InstitutionName": "IUGM",
  "InstitutionalDepartmentName": "Department",
  "MRAcquisitionType": "2D",
  "MagneticFieldStrength": 3,
  "Manufacturer": "Siemens",
  "ManufacturersModelName": "Prisma_fit",
  "Modality": "MR",
  "MultibandAccelerationFactor": 4,
  "PartialFourier": 1,
  "PatientPosition": "HFS",
  "PercentPhaseFOV": 100,
  "PhaseEncodingDirection": "j",
  "PhaseEncodingSteps": 104,
  "PhaseResolution": 1,
  "PixelBandwidth": 2290,
  "ProcedureStepDescription": "video_friends",
  "ProtocolName": "func_task-friends-s02e16b",
  "PulseSequenceDetails": "%CustomerSeq%_cmrr_mbep2d_bold",
  "ReceiveCoilActiveElements": "HC1-7;NC1,2",
  "ReceiveCoilName": "HeadNeck_64",
  "ReconMatrixPE": 104,
  "RepetitionTime": 1.49,
  "SAR": 0.0375011,
  "ScanOptions": "FS",
  "ScanningSequence": "EP",
  "SequenceName": "epfid2d1_104",
  "SequenceVariant": "SK_SS",
  "SeriesDescription": "func_task-friends-s02e16b",
  "SeriesNumber": 10,
  "ShimSetting": [626, -7211, -8845, 427, -16, -99, 68, -21],
  "SliceThickness": 2,
  "SliceTiming": [0, 0.785, 0.1, 0.8825, 0.1975, 0.98, 0.295, 1.08, 0.3925, 1.1775, 0.49, 1.275, 0.59, 1.3725, 0.6875, 0, 0.785, 0.1, 0.8825, 0.1975, 0.98, 0.295, 1.08, 0.3925, 1.1775, 0.49, 1.275, 0.59, 1.3725, 0.6875, 0, 0.785, 0.1, 0.8825, 0.1975, 0.98, 0.295, 1.08, 0.3925, 1.1775, 0.49, 1.275, 0.59, 1.3725, 0.6875, 0, 0.785, 0.1, 0.8825, 0.1975, 0.98, 0.295, 1.08, 0.3925, 1.1775, 0.49, 1.275, 0.59, 1.3725, 0.6875],
  "SoftwareVersions": "syngo_MR_E11",
  "SpacingBetweenSlices": 2,
  "StationName": "MRC35049",
  "TaskName": "s02e16b",
  "TotalReadoutTime": 0.0576811,
  "TxRefAmp": 248.786,
  "WipMemBlock": "d4b8710e-0cf5-43fc-9d92-4677c8e78a0b||Sequence: R016 ve11c/master r/e634e98; Dec 19 2017 11:00:25 by eja",
  "dcmmeta_affine": [
    [-1.9999938011169434, -0.0031416313722729683, 0.003864077152684331, 102.88440704345703],
    [-0.004580641631036997, 1.7694159746170044, -0.9322800040245056, -63.92225646972656],
    [0.0019541399087756872, 0.9322860240936279, 1.769417643547058, -81.76414489746094],
    [0.0, 0.0, 0.0, 1.0]
],
  "dcmmeta_reorient_transform": [
    [0.0, -1.0, 0.0, 103.0],
    [1.0, 0.0, 0.0, 0.0],
    [0.0, 0.0, 1.0, 0.0],
    [0.0, 0.0, 0.0, 1.0]
],
  "dcmmeta_shape": [104, 104, 60, 478],
  "dcmmeta_slice_dim": 2,
  "dcmmeta_version": 0.6,
  "global": {
    "const": {
      "AcquisitionMatrix": [104, 0, 0, 104],
      "AngioFlag": "N",
      "BitsAllocated": 16,
      "BitsStored": 16,
      "BodyPartExamined": "BRAIN",
      "Columns": 832,
      "EchoNumbers": 1,
      "EchoTime": 37.0,
      "EchoTrainLength": 104,
      "FlipAngle": 52.0,
      "HighBit": 15,
      "ImageOrientationPatient": [0.99999689987758, 0.0022903208456, 0.00097706993772, -0.0015708157145, 0.88470799335461, -0.4661430027711],
      "ImagePositionPatient": [-829.41500935554, -764.0623627344, 352.90211602337],
      "ImageType": [
        "ORIGINAL",
        "PRIMARY",
        "M",
        "MB",
        "ND",
        "MOSAIC"
],
      "ImagedNucleus": "1H",
      "ImagingFrequency": 123.259106,
      "InPlanePhaseEncodingDirection": "COL",
      "MRAcquisitionType": "2D",
      "MagneticFieldStrength": 3.0,
      "Manufacturer": "SIEMENS",
      "ManufacturerModelName": "Prisma_fit",
      "Modality": "MR",
      "NumberOfAverages": 1.0,
      "NumberOfPhaseEncodingSteps": 104,
      "PercentPhaseFieldOfView": 100.0,
      "PercentSampling": 100.0,
      "PerformedProcedureStepStartTime": "143441.380000",
      "PhotometricInterpretation": "MONOCHROME2",
      "PixelBandwidth": 2290.0,
      "PixelRepresentation": 0,
      "PixelSpacing": [2.0, 2.0],
      "ProtocolName": "func_task-friends-s02e16b",
      "RepetitionTime": 1490.0,
      "Rows": 832,
      "SAR": 0.03750110596175,
      "SamplesPerPixel": 1,
      "ScanOptions": "FS",
      "ScanningSequence": "EP",
      "SequenceName": "epfid2d1_104",
      "SequenceVariant": [
        "SK",
        "SS"
],
      "SeriesDescription": "func_task-friends-s02e16b",
      "SeriesNumber": 10,
      "SeriesTime": "150127.199000",
      "SliceLocation": -42.341960773855,
      "SliceThickness": 2.0,
      "SmallestImagePixelValue": 0,
      "SoftwareVersions": "syngo MR E11",
      "SpacingBetweenSlices": 1.999999955369,
      "SpecificCharacterSet": "ISO_IR 100",
      "StudyID": "1",
      "StudyTime": "143441.330000",
      "TransmitCoilName": "Body",
      "VariableFlipAngleFlag": "N",
      "WindowCenterWidthExplanation": "Algo1",
      "dBdt": 0.0},
    "slices": {}
  },
  "time": {
    "samples": {
      "AcquisitionNumber": [1, 2, 3, 4, 5, 6, 7, 8, 9, 10, 11, 12, 13, 14, 15, 16, 17, 18, 19, 20, 21, 22, 23, 24, 25, 26, 27, 28, 29, 30, 31, 32, 33, 34, 35, 36, 37, 38, 39, 40, 41, 42, 43, 44, 45, 46, 47, 48, 49, 50, 51, 52, 53, 54, 55, 56, 57, 58, 59, 60, 61, 62, 63, 64, 65, 66, 67, 68, 69, 70, 71, 72, 73, 74, 75, 76, 77, 78, 79, 80, 81, 82, 83, 84, 85, 86, 87, 88, 89, 90, 91, 92, 93, 94, 95, 96, 97, 98, 99, 100, 101, 102, 103, 104, 105, 106, 107, 108, 109, 110, 111, 112, 113, 114, 115, 116, 117, 118, 119, 120, 121, 122, 123, 124, 125, 126, 127, 128, 129, 130, 131, 132, 133, 134, 135, 136, 137, 138, 139, 140, 141, 142, 143, 144, 145, 146, 147, 148, 149, 150, 151, 152, 153, 154, 155, 156, 157, 158, 159, 160, 161, 162, 163, 164, 165, 166, 167, 168, 169, 170, 171, 172, 173, 174, 175, 176, 177, 178, 179, 180, 181, 182, 183, 184, 185, 186, 187, 188, 189, 190, 191, 192, 193, 194, 195, 196, 197, 198, 199, 200, 201, 202, 203, 204, 205, 206, 207, 208, 209, 210, 211, 212, 213, 214, 215, 216, 217, 218, 219, 220, 221, 222, 223, 224, 225, 226, 227, 228, 229, 230, 231, 232, 233, 234, 235, 236, 237, 238, 239, 240, 241, 242, 243, 244, 245, 246, 247, 248, 249, 250, 251, 252, 253, 254, 255, 256, 257, 258, 259, 260, 261, 262, 263, 264, 265, 266, 267, 268, 269, 270, 271, 272, 273, 274, 275, 276, 277, 278, 279, 280, 281, 282, 283, 284, 285, 286, 287, 288, 289, 290, 291, 292, 293, 294, 295, 296, 297, 298, 299, 300, 301, 302, 303, 304, 305, 306, 307, 308, 309, 310, 311, 312, 313, 314, 315, 316, 317, 318, 319, 320, 321, 322, 323, 324, 325, 326, 327, 328, 329, 330, 331, 332, 333, 334, 335, 336, 337, 338, 339, 340, 341, 342, 343, 344, 345, 346, 347, 348, 349, 350, 351, 352, 353, 354, 355, 356, 357, 358, 359, 360, 361, 362, 363, 364, 365, 366, 367, 368, 369, 370, 371, 372, 373, 374, 375, 376, 377, 378, 379, 380, 381, 382, 383, 384, 385, 386, 387, 388, 389, 390, 391, 392, 393, 394, 395, 396, 397, 398, 399, 400, 401, 402, 403, 404, 405, 406, 407, 408, 409, 410, 411, 412, 413, 414, 415, 416, 417, 418, 419, 420, 421, 422, 423, 424, 425, 426, 427, 428, 429, 430, 431, 432, 433, 434, 435, 436, 437, 438, 439, 440, 441, 442, 443, 444, 445, 446, 447, 448, 449, 450, 451, 452, 453, 454, 455, 456, 457, 458, 459, 460, 461, 462, 463, 464, 465, 466, 467, 468, 469, 470, 471, 472, 473, 474, 475, 476, 477, 478],
      "AcquisitionTime": ["145959.027500", "150000.517500", "150002.007500", "150003.497500", "150004.987500", "150006.477500", "150007.967500", "150009.457500", "150010.947500", "150012.437500", "150013.927500", "150015.417500", "150016.907500", "150018.397500", "150019.887500", "150021.377500", "150022.867500", "150024.357500", "150025.847500", "150027.337500", "150028.827500", "150030.317500", "150031.807500", "150033.297500", "150034.787500", "150036.277500", "150037.767500", "150039.257500", "150040.747500", "150042.237500", "150043.727500", "150045.217500", "150046.707500", "150048.197500", "150049.687500", "150051.177500", "150052.667500", "150054.157500", "150055.647500", "150057.137500", "150058.627500", "150100.117500", "150101.607500", "150103.097500", "150104.587500", "150106.077500", "150107.567500", "150109.057500", "150110.547500", "150112.037500", "150113.527500", "150115.017500", "150116.507500", "150117.997500", "150119.487500", "150120.977500", "150122.467500", "150123.957500", "150125.447500", "150126.937500", "150128.427500", "150129.917500", "150131.407500", "150132.897500", "150134.387500", "150135.877500", "150137.367500", "150138.857500", "150140.347500", "150141.837500", "150143.327500", "150144.817500", "150146.307500", "150147.797500", "150149.287500", "150150.777500", "150152.267500", "150153.757500", "150155.247500", "150156.737500", "150158.227500", "150159.717500", "150201.207500", "150202.697500", "150204.187500", "150205.677500", "150207.167500", "150208.657500", "150210.147500", "150211.637500", "150213.127500", "150214.617500", "150216.107500", "150217.597500", "150219.087500", "150220.577500", "150222.067500", "150223.557500", "150225.047500", "150226.537500", "150228.027500", "150229.517500", "150231.007500", "150232.497500", "150233.987500", "150235.477500", "150236.967500", "150238.457500", "150239.947500", "150241.437500", "150242.927500", "150244.417500", "150245.907500", "150247.397500", "150248.887500", "150250.377500", "150251.867500", "150253.357500", "150254.847500", "150256.337500", "150257.827500", "150259.317500", "150300.807500", "150302.297500", "150303.787500", "150305.277500", "150306.767500", "150308.257500", "150309.747500", "150311.237500", "150312.727500", "150314.217500", "150315.707500", "150317.197500", "150318.687500", "150320.177500", "150321.667500", "150323.157500", "150324.647500", "150326.137500", "150327.627500", "150329.117500", "150330.607500", "150332.097500", "150333.587500", "150335.077500", "150336.567500", "150338.057500", "150339.547500", "150341.037500", "150342.527500", "150344.017500", "150345.507500", "150346.997500", "150348.487500", "150349.977500", "150351.467500", "150352.957500", "150354.447500", "150355.937500", "150357.427500", "150358.917500", "150400.407500", "150401.897500", "150403.387500", "150404.877500", "150406.367500", "150407.857500", "150409.347500", "150410.837500", "150412.327500", "150413.817500", "150415.307500", "150416.797500", "150418.287500", "150419.777500", "150421.267500", "150422.757500", "150424.247500", "150425.737500", "150427.227500", "150428.717500", "150430.207500", "150431.697500", "150433.187500", "150434.677500", "150436.167500", "150437.657500", "150439.147500", "150440.637500", "150442.127500", "150443.617500", "150445.107500", "150446.597500", "150448.087500", "150449.577500", "150451.067500", "150452.557500", "150454.047500", "150455.537500", "150457.027500", "150458.517500", "150500.007500", "150501.497500", "150502.987500", "150504.477500", "150505.967500", "150507.457500", "150508.947500", "150510.437500", "150511.927500", "150513.417500", "150514.907500", "150516.397500", "150517.887500", "150519.377500", "150520.867500", "150522.357500", "150523.847500", "150525.337500", "150526.827500", "150528.317500", "150529.807500", "150531.297500", "150532.787500", "150534.277500", "150535.767500", "150537.257500", "150538.747500", "150540.237500", "150541.727500", "150543.217500", "150544.707500", "150546.197500", "150547.687500", "150549.177500", "150550.667500", "150552.157500", "150553.647500", "150555.137500", "150556.627500", "150558.117500", "150559.607500", "150601.097500", "150602.587500", "150604.077500", "150605.567500", "150607.057500", "150608.547500", "150610.037500", "150611.527500", "150613.017500", "150614.507500", "150615.997500", "150617.487500", "150618.977500", "150620.467500", "150621.957500", "150623.447500", "150624.937500", "150626.427500", "150627.917500", "150629.407500", "150630.897500", "150632.387500", "150633.877500", "150635.367500", "150636.857500", "150638.347500", "150639.837500", "150641.327500", "150642.817500", "150644.307500", "150645.797500", "150647.287500", "150648.777500", "150650.267500", "150651.757500", "150653.247500", "150654.737500", "150656.227500", "150657.717500", "150659.207500", "150700.697500", "150702.187500", "150703.677500", "150705.167500", "150706.657500", "150708.147500", "150709.637500", "150711.127500", "150712.617500", "150714.107500", "150715.597500", "150717.087500", "150718.577500", "150720.067500", "150721.557500", "150723.047500", "150724.537500", "150726.027500", "150727.517500", "150729.007500", "150730.497500", "150731.987500", "150733.477500", "150734.967500", "150736.457500", "150737.947500", "150739.437500", "150740.927500", "150742.417500", "150743.907500", "150745.397500", "150746.887500", "150748.377500", "150749.867500", "150751.357500", "150752.847500", "150754.337500", "150755.827500", "150757.317500", "150758.807500", "150800.297500", "150801.787500", "150803.277500", "150804.767500", "150806.257500", "150807.747500", "150809.237500", "150810.727500", "150812.217500", "150813.707500", "150815.197500", "150816.687500", "150818.177500", "150819.667500", "150821.157500", "150822.647500", "150824.137500", "150825.627500", "150827.117500", "150828.607500", "150830.097500", "150831.587500", "150833.077500", "150834.567500", "150836.057500", "150837.547500", "150839.037500", "150840.527500", "150842.017500", "150843.507500", "150844.997500", "150846.487500", "150847.977500", "150849.467500", "150850.957500", "150852.447500", "150853.937500", "150855.427500", "150856.917500", "150858.407500", "150859.897500", "150901.387500", "150902.877500", "150904.367500", "150905.857500", "150907.347500", "150908.837500", "150910.327500", "150911.817500", "150913.307500", "150914.797500", "150916.287500", "150917.777500", "150919.267500", "150920.757500", "150922.247500", "150923.737500", "150925.227500", "150926.717500", "150928.207500", "150929.697500", "150931.187500", "150932.677500", "150934.167500", "150935.657500", "150937.147500", "150938.637500", "150940.127500", "150941.617500", "150943.107500", "150944.597500", "150946.087500", "150947.577500", "150949.067500", "150950.557500", "150952.047500", "150953.537500", "150955.027500", "150956.517500", "150958.007500", "150959.497500", "151000.987500", "151002.477500", "151003.967500", "151005.457500", "151006.947500", "151008.437500", "151009.927500", "151011.417500", "151012.907500", "151014.397500", "151015.887500", "151017.377500", "151018.867500", "151020.357500", "151021.847500", "151023.337500", "151024.827500", "151026.317500", "151027.807500", "151029.297500", "151030.787500", "151032.277500", "151033.767500", "151035.257500", "151036.747500", "151038.237500", "151039.727500", "151041.217500", "151042.707500", "151044.197500", "151045.687500", "151047.177500", "151048.667500", "151050.157500", "151051.647500", "151053.137500", "151054.627500", "151056.117500", "151057.607500", "151059.097500", "151100.587500", "151102.077500", "151103.567500", "151105.057500", "151106.547500", "151108.037500", "151109.527500", "151111.017500", "151112.507500", "151113.997500", "151115.487500", "151116.977500", "151118.467500", "151119.957500", "151121.447500", "151122.937500", "151124.427500", "151125.917500", "151127.407500", "151128.897500", "151130.387500", "151131.877500", "151133.367500", "151134.857500", "151136.347500", "151137.837500", "151139.327500", "151140.817500", "151142.307500", "151143.797500", "151145.287500", "151146.777500", "151148.267500", "151149.757500"],
      "ContentTime": ["150127.202000", "150127.205000", "150127.208000", "150127.211000", "150127.214000", "150127.217000", "150127.220000", "150127.222000", "150127.225000", "150127.228000", "150127.234000", "150127.237000", "150127.240000", "150127.243000", "150127.246000", "150127.249000", "150127.252000", "150127.254000", "150127.257000", "150127.260000", "150127.263000", "150127.266000", "150127.269000", "150127.271000", "150127.274000", "150127.277000", "150127.280000", "150127.283000", "150127.286000", "150127.288000", "150127.302000", "150127.305000", "150127.308000", "150127.311000", "150127.314000", "150147.168000", "150147.171000", "150147.174000", "150147.176000", "150147.179000", "150147.182000", "150147.185000", "150147.188000", "150147.191000", "150147.193000", "150147.196000", "150147.199000", "150147.202000", "150147.204000", "150147.207000", "150147.210000", "150147.213000", "150147.216000", "150147.219000", "150147.221000", "150207.168000", "150207.171000", "150207.174000", "150207.176000", "150207.179000", "150207.182000", "150207.185000", "150207.190000", "150207.193000", "150207.195000", "150207.198000", "150207.201000", "150207.204000", "150207.207000", "150207.210000", "150207.212000", "150207.215000", "150207.218000", "150207.221000", "150207.223000", "150227.167000", "150227.170000", "150227.173000", "150227.176000", "150227.194000", "150227.198000", "150227.201000", "150227.203000", "150227.206000", "150227.209000", "150227.212000", "150227.215000", "150227.218000", "150227.221000", "150227.223000", "150227.226000", "150227.229000", "150227.232000", "150227.235000", "150227.238000", "150307.167000", "150307.170000", "150307.173000", "150307.176000", "150307.179000", "150307.181000", "150307.184000", "150307.187000", "150307.190000", "150307.193000", "150307.195000", "150307.198000", "150307.201000", "150307.204000", "150307.207000", "150307.210000", "150307.212000", "150307.215000", "150307.218000", "150307.221000", "150307.224000", "150307.226000", "150307.229000", "150307.232000", "150307.235000", "150307.238000", "150307.241000", "150307.243000", "150307.246000", "150307.249000", "150347.168000", "150347.171000", "150347.174000", "150347.177000", "150347.179000", "150347.182000", "150347.185000", "150347.188000", "150347.191000", "150347.194000", "150347.196000", "150347.199000", "150347.202000", "150347.205000", "150347.208000", "150347.211000", "150347.213000", "150347.216000", "150347.219000", "150347.222000", "150347.225000", "150347.228000", "150347.230000", "150347.233000", "150347.236000", "150347.239000", "150347.242000", "150427.168000", "150427.171000", "150427.174000", "150427.182000", "150427.184000", "150427.187000", "150427.190000", "150427.193000", "150427.196000", "150427.199000", "150427.202000", "150427.204000", "150427.207000", "150427.210000", "150427.213000", "150427.216000", "150427.219000", "150427.221000", "150427.224000", "150427.227000", "150427.230000", "150427.233000", "150427.236000", "150427.238000", "150427.241000", "150427.244000", "150427.247000", "150507.167000", "150507.170000", "150507.173000", "150507.176000", "150507.178000", "150507.181000", "150507.184000", "150507.187000", "150507.190000", "150507.193000", "150507.196000", "150507.198000", "150507.201000", "150507.204000", "150507.207000", "150507.210000", "150507.212000", "150507.215000", "150507.218000", "150507.221000", "150507.224000", "150507.227000", "150507.229000", "150507.232000", "150507.235000", "150507.238000", "150507.241000", "150547.167000", "150547.170000", "150547.173000", "150547.176000", "150547.178000", "150547.181000", "150547.184000", "150547.187000", "150547.190000", "150547.193000", "150547.195000", "150547.198000", "150547.201000", "150547.204000", "150547.207000", "150547.210000", "150547.212000", "150547.215000", "150547.218000", "150547.221000", "150547.224000", "150547.227000", "150547.230000", "150547.232000", "150547.235000", "150547.238000", "150547.241000", "150627.168000", "150627.171000", "150627.174000", "150627.177000", "150627.180000", "150627.182000", "150627.185000", "150627.188000", "150627.191000", "150627.194000", "150627.197000", "150627.200000", "150627.202000", "150627.205000", "150627.208000", "150627.211000", "150627.214000", "150627.217000", "150627.220000", "150627.222000", "150627.225000", "150627.228000", "150627.231000", "150627.234000", "150627.237000", "150627.240000", "150627.247000", "150707.167000", "150707.170000", "150707.173000", "150707.176000", "150707.179000", "150707.181000", "150707.184000", "150707.187000", "150707.190000", "150707.193000", "150707.196000", "150707.199000", "150707.202000", "150707.205000", "150707.208000", "150707.211000", "150707.213000", "150707.216000", "150707.219000", "150707.222000", "150707.225000", "150707.228000", "150707.230000", "150707.233000", "150707.236000", "150707.239000", "150747.167000", "150747.170000", "150747.173000", "150747.176000", "150747.179000", "150747.182000", "150747.184000", "150747.187000", "150747.190000", "150747.193000", "150747.196000", "150747.199000", "150747.201000", "150747.204000", "150747.207000", "150747.210000", "150747.213000", "150747.216000", "150747.219000", "150747.221000", "150747.224000", "150747.227000", "150747.230000", "150747.233000", "150747.236000", "150747.239000", "150747.241000", "150827.168000", "150827.171000", "150827.174000", "150827.177000", "150827.180000", "150827.183000", "150827.186000", "150827.188000", "150827.191000", "150827.194000", "150827.197000", "150827.200000", "150827.203000", "150827.205000", "150827.208000", "150827.211000", "150827.214000", "150827.217000", "150827.220000", "150827.223000", "150827.225000", "150827.228000", "150827.231000", "150827.234000", "150827.237000", "150827.240000", "150827.243000", "150907.168000", "150907.171000", "150907.174000", "150907.177000", "150907.180000", "150907.182000", "150907.185000", "150907.188000", "150907.191000", "150907.194000", "150907.197000", "150907.199000", "150907.202000", "150907.205000", "150907.208000", "150907.211000", "150907.214000", "150907.216000", "150907.219000", "150907.222000", "150907.225000", "150907.228000", "150907.231000", "150907.234000", "150907.236000", "150907.239000", "150907.242000", "150947.167000", "150947.170000", "150947.173000", "150947.176000", "150947.178000", "150947.181000", "150947.184000", "150947.187000", "150947.190000", "150947.193000", "150947.196000", "150947.198000", "150947.201000", "150947.204000", "150947.207000", "150947.210000", "150947.213000", "150947.215000", "150947.218000", "150947.221000", "150947.224000", "150947.227000", "150947.230000", "150947.233000", "150947.235000", "150947.238000", "150947.241000", "151027.167000", "151027.170000", "151027.173000", "151027.176000", "151027.179000", "151027.181000", "151027.184000", "151027.187000", "151027.190000", "151027.193000", "151027.196000", "151027.199000", "151027.201000", "151027.204000", "151027.207000", "151027.210000", "151027.213000", "151027.215000", "151027.218000", "151027.221000", "151027.224000", "151027.227000", "151027.230000", "151027.233000", "151027.235000", "151027.238000", "151027.241000", "151107.168000", "151107.172000", "151107.175000", "151107.178000", "151107.180000", "151107.183000", "151107.186000", "151107.189000", "151107.205000", "151107.208000", "151107.211000", "151107.214000", "151107.216000", "151107.219000", "151107.222000", "151107.225000", "151107.228000", "151107.230000", "151107.233000", "151107.236000", "151107.239000", "151107.242000", "151107.245000", "151107.248000", "151107.251000", "151107.253000", "151147.167000", "151147.170000", "151147.173000", "151147.176000", "151147.179000", "151147.181000", "151147.184000", "151147.187000", "151147.190000", "151147.200000", "151147.203000", "151147.206000", "151147.209000", "151147.212000", "151147.215000", "151147.217000", "151147.220000", "151147.223000", "151147.226000", "151147.229000", "151147.232000", "151147.234000", "151147.237000", "151147.240000", "151147.243000", "151147.246000", "151147.249000", "151151.920000", "151151.924000", "151151.926000", "151151.929000"],
