{
  "AcquisitionMatrixPE": 104,
  "AcquisitionNumber": 1,
  "AcquisitionTime": "17:31:13.190000",
  "BandwidthPerPixelPhaseEncode": 17.17,
  "BaseResolution": 104,
  "BodyPartExamined": "BRAIN",
  "CoilCombinationMethod": "Sum of Squares",
  "ConsistencyInfo": "N4_VE11C_LATEST_20160120",
  "ConversionSoftware": "dcm2niix",
  "ConversionSoftwareVersion": "v1.0.20211006",
  "DerivedVendorReportedEchoSpacing": 0.000560011,
  "DeviceSerialNumber": "167006",
  "DwellTime": 2.1e-06,
  "EchoTime": 0.037,
  "EchoTrainLength": 104,
  "EffectiveEchoSpacing": 0.000560011,
  "FlipAngle": 52,
  "HeudiconvVersion": "0.5.3.post569+g418601f",
  "ImageComments": "Unaliased MB4/PE3/LB",
  "ImageOrientationPatientDICOM": [0.999697, -0.0241785, -0.00464481, 0.0202425, 0.914556, -0.403953],
  "ImageOrientationText": "Tra>Cor(-23.8)>Sag(-0.8)",
  "ImageType": [
    "ORIGINAL",
    "PRIMARY",
    "M",
    "MB",
    "ND",
    "MOSAIC"
],
  "ImagingFrequency": 123.259,
  "InPlanePhaseEncodingDirectionDICOM": "COL",
  "InstitutionAddress": "Chemin Queen-Mary 4565,Montreal,District,CA,H3W 1W5",
  "InstitutionName": "IUGM",
  "InstitutionalDepartmentName": "Department",
  "MRAcquisitionType": "2D",
  "MagneticFieldStrength": 3,
  "Manufacturer": "Siemens",
  "ManufacturersModelName": "Prisma_fit",
  "MatrixCoilMode": "SENSE",
  "Modality": "MR",
  "MultibandAccelerationFactor": 4,
  "PartialFourier": 1,
  "PatientPosition": "HFS",
  "PercentPhaseFOV": 100,
  "PercentSampling": 100,
  "PhaseEncodingDirection": "j",
  "PhaseEncodingSteps": 104,
  "PhaseResolution": 1,
  "PixelBandwidth": 2290,
  "ProcedureStepDescription": "video^friends",
  "ProtocolName": "func_task-friends-s05e09a",
  "PulseSequenceDetails": "%CustomerSeq%\\cmrr_mbep2d_bold",
  "ReceiveCoilActiveElements": "HC1-7;NC1,2",
  "ReceiveCoilName": "HeadNeck_64",
  "ReconMatrixPE": 104,
  "RepetitionTime": 1.49,
  "SAR": 0.0490762,
  "ScanOptions": "FS",
  "ScanningSequence": "EP",
  "SequenceName": "epfid2d1_104",
  "SequenceVariant": "SK\\SS",
  "SeriesDescription": "func_task-friends-s05e09a",
  "SeriesNumber": 9,
  "ShimSetting": [615, -7261, -8838, 381, 13, -384, 34, 15],
  "SliceThickness": 2,
  "SliceTiming": [0, 0.7825, 0.0975, 0.88, 0.195, 0.98, 0.2925, 1.0775, 0.39, 1.175, 0.49, 1.2725, 0.5875, 1.37, 0.685, 0, 0.7825, 0.0975, 0.88, 0.195, 0.98, 0.2925, 1.0775, 0.39, 1.175, 0.49, 1.2725, 0.5875, 1.37, 0.685, 0, 0.7825, 0.0975, 0.88, 0.195, 0.98, 0.2925, 1.0775, 0.39, 1.175, 0.49, 1.2725, 0.5875, 1.37, 0.685, 0, 0.7825, 0.0975, 0.88, 0.195, 0.98, 0.2925, 1.0775, 0.39, 1.175, 0.49, 1.2725, 0.5875, 1.37, 0.685],
  "SoftwareVersions": "syngo MR E11",
  "SpacingBetweenSlices": 2,
  "StationName": "MRC35049",
  "TaskName": "s05e09a",
  "TotalReadoutTime": 0.0576811,
  "TxRefAmp": 265.233,
  "WipMemBlock": "aabdcd44-e215-402a-a27c-52bc8ba58f6d||Sequence: R016 ve11c/master r/e634e98; Dec 19 2017 11:00:25 by eja",
  "dcmmeta_affine": [
    [-1.9993937015533447, 0.04048492759466171, -0.02802983857691288, 98.36537170410156],
    [0.048357050865888596, 1.8291115760803223, -0.8074727654457092, -69.43266296386719],
    [-0.009289612993597984, 0.8079056739807129, 1.8295360803604126, -70.30330657958984],
    [0.0, 0.0, 0.0, 1.0]
],
  "dcmmeta_reorient_transform": [
    [0.0, -1.0, 0.0, 103.0],
    [1.0, 0.0, 0.0, 0.0],
    [0.0, 0.0, 1.0, 0.0],
    [0.0, 0.0, 0.0, 1.0]
],
  "dcmmeta_shape": [104, 104, 60, 456],
  "dcmmeta_slice_dim": 2,
  "dcmmeta_version": 0.6,
  "global": {
    "const": {
      "AcquisitionMatrix": [104, 0, 0, 104],
      "AngioFlag": "N",
      "BitsAllocated": 16,
      "BitsStored": 16,
      "BodyPartExamined": "BRAIN",
      "Columns": 832,
      "EchoNumbers": 1,
      "EchoTime": 37.0,
      "EchoTrainLength": 104,
      "FlipAngle": 52.0,
      "HighBit": 15,
      "ImageOrientationPatient": [0.99969686640762, -0.0241785249453, -0.0046448063756, 0.0202424640452, 0.91455581656264, -0.4039528450708],
      "ImagePositionPatient": [-845.05114946644, -767.16050284758, 310.37006843693],
      "ImageType": [
        "ORIGINAL",
        "PRIMARY",
        "M",
        "MB",
        "ND",
        "MOSAIC"
],
      "ImagedNucleus": "1H",
      "ImagingFrequency": 123.258836,
      "InPlanePhaseEncodingDirection": "COL",
      "MRAcquisitionType": "2D",
      "MagneticFieldStrength": 3.0,
      "Manufacturer": "SIEMENS",
      "ManufacturerModelName": "Prisma_fit",
      "Modality": "MR",
      "NumberOfAverages": 1.0,
      "NumberOfPhaseEncodingSteps": 104,
      "PercentPhaseFieldOfView": 100.0,
      "PercentSampling": 100.0,
      "PerformedProcedureStepStartTime": "172637.057000",
      "PhotometricInterpretation": "MONOCHROME2",
      "PixelBandwidth": 2290.0,
      "PixelRepresentation": 0,
      "PixelSpacing": [2.0, 2.0],
      "ProtocolName": "func_task-friends-s05e09a",
      "RepetitionTime": 1490.0,
      "Rows": 832,
      "SAR": 0.04907621286404,
      "SamplesPerPixel": 1,
      "ScanOptions": "FS",
      "ScanningSequence": "EP",
      "SequenceName": "epfid2d1_104",
      "SequenceVariant": [
        "SK",
        "SS"
],
      "SeriesDescription": "func_task-friends-s05e09a",
      "SeriesNumber": 9,
      "SeriesTime": "173233.975000",
      "SliceLocation": -37.65730853575,
      "SliceThickness": 2.0,
      "SmallestImagePixelValue": 0,
      "SoftwareVersions": "syngo MR E11",
      "SpacingBetweenSlices": 2.0000000328419,
      "SpecificCharacterSet": "ISO_IR 100",
      "StudyID": "1",
      "StudyTime": "172636.933000",
      "TransmitCoilName": "Body",
      "VariableFlipAngleFlag": "N",
      "WindowCenterWidthExplanation": "Algo1",
      "dBdt": 0.0},
    "slices": {}
  },
  "time": {
    "samples": {
      "AcquisitionNumber": [1, 2, 3, 4, 5, 6, 7, 8, 9, 10, 11, 12, 13, 14, 15, 16, 17, 18, 19, 20, 21, 22, 23, 24, 25, 26, 27, 28, 29, 30, 31, 32, 33, 34, 35, 36, 37, 38, 39, 40, 41, 42, 43, 44, 45, 46, 47, 48, 49, 50, 51, 52, 53, 54, 55, 56, 57, 58, 59, 60, 61, 62, 63, 64, 65, 66, 67, 68, 69, 70, 71, 72, 73, 74, 75, 76, 77, 78, 79, 80, 81, 82, 83, 84, 85, 86, 87, 88, 89, 90, 91, 92, 93, 94, 95, 96, 97, 98, 99, 100, 101, 102, 103, 104, 105, 106, 107, 108, 109, 110, 111, 112, 113, 114, 115, 116, 117, 118, 119, 120, 121, 122, 123, 124, 125, 126, 127, 128, 129, 130, 131, 132, 133, 134, 135, 136, 137, 138, 139, 140, 141, 142, 143, 144, 145, 146, 147, 148, 149, 150, 151, 152, 153, 154, 155, 156, 157, 158, 159, 160, 161, 162, 163, 164, 165, 166, 167, 168, 169, 170, 171, 172, 173, 174, 175, 176, 177, 178, 179, 180, 181, 182, 183, 184, 185, 186, 187, 188, 189, 190, 191, 192, 193, 194, 195, 196, 197, 198, 199, 200, 201, 202, 203, 204, 205, 206, 207, 208, 209, 210, 211, 212, 213, 214, 215, 216, 217, 218, 219, 220, 221, 222, 223, 224, 225, 226, 227, 228, 229, 230, 231, 232, 233, 234, 235, 236, 237, 238, 239, 240, 241, 242, 243, 244, 245, 246, 247, 248, 249, 250, 251, 252, 253, 254, 255, 256, 257, 258, 259, 260, 261, 262, 263, 264, 265, 266, 267, 268, 269, 270, 271, 272, 273, 274, 275, 276, 277, 278, 279, 280, 281, 282, 283, 284, 285, 286, 287, 288, 289, 290, 291, 292, 293, 294, 295, 296, 297, 298, 299, 300, 301, 302, 303, 304, 305, 306, 307, 308, 309, 310, 311, 312, 313, 314, 315, 316, 317, 318, 319, 320, 321, 322, 323, 324, 325, 326, 327, 328, 329, 330, 331, 332, 333, 334, 335, 336, 337, 338, 339, 340, 341, 342, 343, 344, 345, 346, 347, 348, 349, 350, 351, 352, 353, 354, 355, 356, 357, 358, 359, 360, 361, 362, 363, 364, 365, 366, 367, 368, 369, 370, 371, 372, 373, 374, 375, 376, 377, 378, 379, 380, 381, 382, 383, 384, 385, 386, 387, 388, 389, 390, 391, 392, 393, 394, 395, 396, 397, 398, 399, 400, 401, 402, 403, 404, 405, 406, 407, 408, 409, 410, 411, 412, 413, 414, 415, 416, 417, 418, 419, 420, 421, 422, 423, 424, 425, 426, 427, 428, 429, 430, 431, 432, 433, 434, 435, 436, 437, 438, 439, 440, 441, 442, 443, 444, 445, 446, 447, 448, 449, 450, 451, 452, 453, 454, 455, 456],
      "AcquisitionTime": ["173113.190000", "173114.680000", "173116.170000", "173117.660000", "173119.150000", "173120.640000", "173122.130000", "173123.620000", "173125.110000", "173126.600000", "173128.090000", "173129.580000", "173131.070000", "173132.560000", "173134.050000", "173135.540000", "173137.030000", "173138.520000", "173140.010000", "173141.500000", "173142.990000", "173144.480000", "173145.970000", "173147.460000", "173148.950000", "173150.440000", "173151.930000", "173153.420000", "173154.910000", "173156.400000", "173157.890000", "173159.380000", "173200.870000", "173202.360000", "173203.850000", "173205.340000", "173206.830000", "173208.320000", "173209.810000", "173211.300000", "173212.790000", "173214.280000", "173215.770000", "173217.260000", "173218.750000", "173220.240000", "173221.730000", "173223.220000", "173224.710000", "173226.200000", "173227.690000", "173229.180000", "173230.670000", "173232.160000", "173233.650000", "173235.140000", "173236.630000", "173238.120000", "173239.610000", "173241.100000", "173242.590000", "173244.080000", "173245.570000", "173247.060000", "173248.550000", "173250.040000", "173251.530000", "173253.020000", "173254.510000", "173256.000000", "173257.490000", "173258.980000", "173300.470000", "173301.960000", "173303.450000", "173304.940000", "173306.430000", "173307.920000", "173309.410000", "173310.900000", "173312.390000", "173313.880000", "173315.370000", "173316.860000", "173318.350000", "173319.840000", "173321.330000", "173322.820000", "173324.310000", "173325.800000", "173327.290000", "173328.780000", "173330.270000", "173331.760000", "173333.250000", "173334.740000", "173336.230000", "173337.720000", "173339.210000", "173340.700000", "173342.190000", "173343.680000", "173345.170000", "173346.660000", "173348.150000", "173349.640000", "173351.130000", "173352.620000", "173354.110000", "173355.600000", "173357.090000", "173358.580000", "173400.070000", "173401.560000", "173403.050000", "173404.540000", "173406.030000", "173407.520000", "173409.010000", "173410.500000", "173411.990000", "173413.480000", "173414.970000", "173416.460000", "173417.950000", "173419.440000", "173420.930000", "173422.420000", "173423.910000", "173425.400000", "173426.890000", "173428.380000", "173429.870000", "173431.360000", "173432.850000", "173434.340000", "173435.830000", "173437.320000", "173438.810000", "173440.300000", "173441.790000", "173443.280000", "173444.770000", "173446.260000", "173447.750000", "173449.240000", "173450.730000", "173452.220000", "173453.710000", "173455.200000", "173456.690000", "173458.180000", "173459.670000", "173501.160000", "173502.650000", "173504.140000", "173505.630000", "173507.120000", "173508.610000", "173510.100000", "173511.590000", "173513.080000", "173514.570000", "173516.060000", "173517.550000", "173519.040000", "173520.530000", "173522.020000", "173523.510000", "173525.000000", "173526.490000", "173527.980000", "173529.470000", "173530.960000", "173532.450000", "173533.940000", "173535.430000", "173536.920000", "173538.410000", "173539.900000", "173541.390000", "173542.880000", "173544.370000", "173545.860000", "173547.350000", "173548.840000", "173550.330000", "173551.820000", "173553.310000", "173554.800000", "173556.290000", "173557.780000", "173559.270000", "173600.760000", "173602.250000", "173603.740000", "173605.230000", "173606.720000", "173608.210000", "173609.700000", "173611.190000", "173612.680000", "173614.170000", "173615.660000", "173617.150000", "173618.640000", "173620.130000", "173621.620000", "173623.110000", "173624.600000", "173626.090000", "173627.580000", "173629.070000", "173630.560000", "173632.050000", "173633.540000", "173635.030000", "173636.520000", "173638.010000", "173639.500000", "173640.990000", "173642.480000", "173643.970000", "173645.460000", "173646.950000", "173648.440000", "173649.930000", "173651.420000", "173652.910000", "173654.400000", "173655.890000", "173657.380000", "173658.870000", "173700.360000", "173701.850000", "173703.340000", "173704.830000", "173706.320000", "173707.810000", "173709.300000", "173710.790000", "173712.280000", "173713.770000", "173715.260000", "173716.750000", "173718.240000", "173719.730000", "173721.220000", "173722.710000", "173724.200000", "173725.690000", "173727.180000", "173728.670000", "173730.160000", "173731.650000", "173733.140000", "173734.630000", "173736.120000", "173737.610000", "173739.100000", "173740.590000", "173742.080000", "173743.570000", "173745.060000", "173746.550000", "173748.040000", "173749.530000", "173751.020000", "173752.510000", "173754.000000", "173755.490000", "173756.980000", "173758.470000", "173759.960000", "173801.450000", "173802.940000", "173804.430000", "173805.920000", "173807.410000", "173808.900000", "173810.390000", "173811.880000", "173813.370000", "173814.860000", "173816.350000", "173817.840000", "173819.330000", "173820.820000", "173822.310000", "173823.800000", "173825.290000", "173826.780000", "173828.270000", "173829.760000", "173831.250000", "173832.740000", "173834.230000", "173835.720000", "173837.210000", "173838.700000", "173840.190000", "173841.680000", "173843.170000", "173844.660000", "173846.150000", "173847.640000", "173849.130000", "173850.620000", "173852.110000", "173853.600000", "173855.090000", "173856.580000", "173858.070000", "173859.560000", "173901.050000", "173902.540000", "173904.030000", "173905.520000", "173907.010000", "173908.500000", "173909.990000", "173911.480000", "173912.970000", "173914.460000", "173915.950000", "173917.440000", "173918.930000", "173920.420000", "173921.910000", "173923.400000", "173924.890000", "173926.380000", "173927.870000", "173929.360000", "173930.850000", "173932.340000", "173933.830000", "173935.320000", "173936.810000", "173938.300000", "173939.790000", "173941.280000", "173942.770000", "173944.260000", "173945.750000", "173947.240000", "173948.730000", "173950.220000", "173951.710000", "173953.200000", "173954.690000", "173956.180000", "173957.670000", "173959.160000", "174000.650000", "174002.140000", "174003.630000", "174005.120000", "174006.610000", "174008.100000", "174009.590000", "174011.080000", "174012.570000", "174014.060000", "174015.550000", "174017.040000", "174018.530000", "174020.020000", "174021.510000", "174023.000000", "174024.490000", "174025.980000", "174027.470000", "174028.960000", "174030.450000", "174031.940000", "174033.430000", "174034.920000", "174036.410000", "174037.900000", "174039.390000", "174040.880000", "174042.370000", "174043.860000", "174045.350000", "174046.840000", "174048.330000", "174049.820000", "174051.310000", "174052.800000", "174054.290000", "174055.780000", "174057.270000", "174058.760000", "174100.250000", "174101.740000", "174103.230000", "174104.720000", "174106.210000", "174107.700000", "174109.190000", "174110.680000", "174112.170000", "174113.660000", "174115.150000", "174116.640000", "174118.130000", "174119.620000", "174121.110000", "174122.600000", "174124.090000", "174125.580000", "174127.070000", "174128.560000", "174130.050000", "174131.540000", "174133.030000", "174134.520000", "174136.010000", "174137.500000", "174138.990000", "174140.480000", "174141.970000", "174143.460000", "174144.950000", "174146.440000", "174147.930000", "174149.420000", "174150.910000", "174152.400000", "174153.890000", "174155.380000", "174156.870000", "174158.360000", "174159.850000", "174201.340000", "174202.830000", "174204.320000", "174205.810000", "174207.300000", "174208.790000", "174210.280000", "174211.770000", "174213.260000", "174214.750000", "174216.240000", "174217.730000", "174219.220000", "174220.710000", "174222.200000", "174223.690000", "174225.180000", "174226.670000", "174228.160000", "174229.650000", "174231.140000"],
      "ContentTime": ["173233.978000", "173233.981000", "173233.984000", "173233.987000", "173233.990000", "173233.999000", "173234.002000", "173234.005000", "173234.008000", "173234.019000", "173234.022000", "173234.025000", "173234.028000", "173234.031000", "173234.033000", "173234.036000", "173234.039000", "173234.042000", "173234.045000", "173234.048000", "173234.051000", "173234.054000", "173234.057000", "173234.060000", "173234.063000", "173234.066000", "173234.068000", "173253.947000", "173253.950000", "173253.983000", "173253.986000", "173253.989000", "173253.992000", "173253.995000", "173253.998000", "173254.002000", "173254.005000", "173254.008000", "173254.010000", "173254.013000", "173254.016000", "173254.019000", "173254.022000", "173254.025000", "173254.028000", "173254.031000", "173254.034000", "173313.946000", "173313.949000", "173313.952000", "173313.955000", "173313.958000", "173313.961000", "173313.964000", "173313.967000", "173313.970000", "173313.973000", "173313.976000", "173313.979000", "173313.981000", "173313.984000", "173313.991000", "173313.994000", "173313.997000", "173314.001000", "173314.004000", "173314.007000", "173333.946000", "173333.949000", "173333.952000", "173333.955000", "173333.958000", "173333.961000", "173333.964000", "173333.967000", "173333.970000", "173333.972000", "173333.975000", "173333.978000", "173333.987000", "173333.989000", "173333.992000", "173333.995000", "173333.998000", "173334.002000", "173334.005000", "173334.008000", "173334.011000", "173413.946000", "173413.949000", "173413.952000", "173413.955000", "173413.958000", "173413.961000", "173413.964000", "173413.967000", "173413.969000", "173413.972000", "173413.975000", "173413.978000", "173413.981000", "173413.984000", "173413.987000", "173413.990000", "173413.993000", "173413.996000", "173414.000000", "173414.002000", "173414.005000", "173414.008000", "173414.011000", "173414.014000", "173414.017000", "173414.029000", "173414.032000", "173414.035000", "173414.038000", "173414.041000", "173414.044000", "173414.047000", "173414.049000", "173453.947000", "173453.950000", "173453.953000", "173453.956000", "173453.959000", "173453.962000", "173453.965000", "173453.968000", "173453.971000", "173453.973000", "173453.976000", "173453.979000", "173453.982000", "173453.985000", "173453.988000", "173453.991000", "173453.994000", "173453.997000", "173454.001000", "173454.004000", "173454.007000", "173454.009000", "173454.012000", "173454.015000", "173454.018000", "173454.021000", "173454.024000", "173533.946000", "173533.949000", "173533.952000", "173533.955000", "173533.958000", "173533.961000", "173533.964000", "173533.967000", "173533.970000", "173533.972000", "173533.975000", "173533.978000", "173533.994000", "173533.997000", "173534.001000", "173534.004000", "173534.007000", "173534.010000", "173534.014000", "173534.017000", "173534.020000", "173534.023000", "173534.026000", "173534.029000", "173534.032000", "173534.035000", "173613.946000", "173613.949000", "173613.952000", "173613.955000", "173613.958000", "173613.961000", "173613.964000", "173613.967000", "173613.970000", "173613.973000", "173613.975000", "173613.978000", "173613.981000", "173613.984000", "173613.987000", "173613.990000", "173613.993000", "173613.996000", "173614.000000", "173614.003000", "173614.006000", "173614.009000", "173614.012000", "173614.015000", "173614.018000", "173614.021000", "173614.023000", "173653.946000", "173653.949000", "173653.952000", "173653.955000", "173653.958000", "173653.961000", "173653.964000", "173653.967000", "173653.970000", "173653.973000", "173653.976000", "173653.979000", "173653.982000", "173653.984000", "173653.987000", "173653.990000", "173653.993000", "173653.996000", "173654.000000", "173654.003000", "173654.006000", "173654.009000", "173654.012000", "173654.015000", "173654.018000", "173654.021000", "173654.024000", "173733.947000", "173733.950000", "173733.953000", "173733.956000", "173733.959000", "173733.962000", "173733.965000", "173733.968000", "173733.971000", "173733.974000", "173733.976000", "173733.979000", "173733.982000", "173733.985000", "173733.988000", "173733.991000", "173733.994000", "173733.997000", "173734.005000", "173734.008000", "173734.011000", "173734.013000", "173734.017000", "173734.020000", "173734.022000", "173734.025000", "173734.029000", "173813.946000", "173813.949000", "173813.952000", "173813.955000", "173813.958000", "173813.961000", "173813.964000", "173813.967000", "173813.970000", "173813.973000", "173813.976000", "173813.979000", "173813.982000", "173813.985000", "173813.988000", "173813.991000", "173813.994000", "173813.997000", "173814.001000", "173814.004000", "173814.007000", "173814.009000", "173814.012000", "173814.015000", "173814.018000", "173814.021000", "173814.024000", "173853.946000", "173853.949000", "173853.952000", "173853.955000", "173853.967000", "173853.970000", "173853.973000", "173853.976000", "173853.980000", "173853.983000", "173853.986000", "173853.989000", "173853.992000", "173853.995000", "173854.000000", "173854.002000", "173854.005000", "173854.008000", "173854.011000", "173854.014000", "173854.017000", "173854.020000", "173854.023000", "173854.026000", "173854.029000", "173854.032000", "173854.035000", "173933.947000", "173933.950000", "173933.953000", "173933.956000", "173933.959000", "173933.962000", "173933.965000", "173933.968000", "173933.971000", "173933.974000", "173933.977000", "173933.980000", "173934.000000", "173934.004000", "173934.007000", "173934.010000", "173934.013000", "173934.016000", "173934.019000", "173934.022000", "173934.025000", "173934.028000", "173934.031000", "173934.035000", "173934.038000", "173934.041000", "174013.946000", "174013.949000", "174013.952000", "174013.955000", "174013.958000", "174013.961000", "174013.964000", "174013.967000", "174013.970000", "174013.973000", "174013.976000", "174013.979000", "174013.982000", "174013.985000", "174013.988000", "174013.991000", "174013.994000", "174013.996000", "174014.000000", "174014.003000", "174014.006000", "174014.009000", "174014.012000", "174014.015000", "174014.018000", "174014.021000", "174014.024000", "174053.946000", "174053.949000", "174053.952000", "174053.955000", "174053.964000", "174053.967000", "174053.970000", "174053.973000", "174053.976000", "174053.979000", "174053.982000", "174053.986000", "174053.989000", "174053.992000", "174053.995000", "174053.998000", "174054.002000", "174054.005000", "174054.008000", "174054.011000", "174054.014000", "174054.017000", "174054.020000", "174054.023000", "174054.026000", "174054.029000", "174054.032000", "174133.946000", "174133.949000", "174133.952000", "174133.955000", "174133.958000", "174133.961000", "174133.964000", "174133.967000", "174133.969000", "174133.972000", "174133.975000", "174133.978000", "174133.981000", "174133.984000", "174133.987000", "174133.997000", "174134.001000", "174134.004000", "174134.007000", "174134.010000", "174134.013000", "174134.016000", "174134.019000", "174134.022000", "174134.025000", "174134.028000", "174134.031000", "174213.947000", "174213.950000", "174213.953000", "174213.956000", "174213.959000", "174213.962000", "174213.965000", "174213.968000", "174213.971000", "174213.973000", "174213.976000", "174213.979000", "174213.982000", "174213.985000", "174213.988000", "174213.991000", "174213.994000", "174213.997000", "174214.001000", "174214.004000", "174214.007000", "174214.009000", "174214.012000", "174214.015000", "174214.018000", "174214.021000", "174214.024000", "174232.874000", "174232.878000", "174232.881000", "174232.884000", "174232.887000", "174232.890000", "174232.893000", "174232.896000", "174232.899000", "174232.902000", "174232.905000", "174232.908000", "174232.911000"],
