{
  "AcquisitionMatrixPE": 104,
  "AcquisitionNumber": 1,
  "AcquisitionTime": "18:30:13.322500",
  "BandwidthPerPixelPhaseEncode": 17.17,
  "BaseResolution": 104,
  "BodyPartExamined": "BRAIN",
  "CoilCombinationMethod": "Sum of Squares",
  "ConsistencyInfo": "N4_VE11C_LATEST_20160120",
  "ConversionSoftware": "dcm2niix",
  "ConversionSoftwareVersion": "v1.0.20211006",
  "DerivedVendorReportedEchoSpacing": 0.000560011,
  "DeviceSerialNumber": "167006",
  "DwellTime": 2.1e-06,
  "EchoTime": 0.037,
  "EchoTrainLength": 104,
  "EffectiveEchoSpacing": 0.000560011,
  "FlipAngle": 52,
  "HeudiconvVersion": "0.5.3.post569+g418601f",
  "ImageComments": "Unaliased MB4/PE3/LB",
  "ImageOrientationPatientDICOM": [0.999697, -0.0241785, -0.00464481, 0.0202425, 0.914556, -0.403953],
  "ImageOrientationText": "Tra>Cor(-23.8)>Sag(-0.8)",
  "ImageType": [
    "ORIGINAL",
    "PRIMARY",
    "M",
    "MB",
    "ND",
    "MOSAIC"
],
  "ImagingFrequency": 123.259,
  "InPlanePhaseEncodingDirectionDICOM": "COL",
  "InstitutionAddress": "Chemin Queen-Mary 4565,Montreal,District,CA,H3W 1W5",
  "InstitutionName": "IUGM",
  "InstitutionalDepartmentName": "Department",
  "MRAcquisitionType": "2D",
  "MagneticFieldStrength": 3,
  "Manufacturer": "Siemens",
  "ManufacturersModelName": "Prisma_fit",
  "MatrixCoilMode": "SENSE",
  "Modality": "MR",
  "MultibandAccelerationFactor": 4,
  "PartialFourier": 1,
  "PatientPosition": "HFS",
  "PercentPhaseFOV": 100,
  "PercentSampling": 100,
  "PhaseEncodingDirection": "j",
  "PhaseEncodingSteps": 104,
  "PhaseResolution": 1,
  "PixelBandwidth": 2290,
  "ProcedureStepDescription": "video^friends",
  "ProtocolName": "func_task-friends-s05e11a",
  "PulseSequenceDetails": "%CustomerSeq%\\cmrr_mbep2d_bold",
  "ReceiveCoilActiveElements": "HC1-7;NC1,2",
  "ReceiveCoilName": "HeadNeck_64",
  "ReconMatrixPE": 104,
  "RepetitionTime": 1.49,
  "SAR": 0.0490851,
  "ScanOptions": "FS",
  "ScanningSequence": "EP",
  "SequenceName": "epfid2d1_104",
  "SequenceVariant": "SK\\SS",
  "SeriesDescription": "func_task-friends-s05e11a",
  "SeriesNumber": 17,
  "ShimSetting": [615, -7261, -8838, 381, 13, -384, 34, 15],
  "SliceThickness": 2,
  "SliceTiming": [0, 0.7825, 0.0975, 0.88, 0.195, 0.98, 0.2925, 1.0775, 0.39, 1.175, 0.49, 1.2725, 0.5875, 1.37, 0.685, 0, 0.7825, 0.0975, 0.88, 0.195, 0.98, 0.2925, 1.0775, 0.39, 1.175, 0.49, 1.2725, 0.5875, 1.37, 0.685, 0, 0.7825, 0.0975, 0.88, 0.195, 0.98, 0.2925, 1.0775, 0.39, 1.175, 0.49, 1.2725, 0.5875, 1.37, 0.685, 0, 0.7825, 0.0975, 0.88, 0.195, 0.98, 0.2925, 1.0775, 0.39, 1.175, 0.49, 1.2725, 0.5875, 1.37, 0.685],
  "SoftwareVersions": "syngo MR E11",
  "SpacingBetweenSlices": 2,
  "StationName": "MRC35049",
  "TaskName": "s05e11a",
  "TotalReadoutTime": 0.0576811,
  "TxRefAmp": 265.233,
  "WipMemBlock": "4b90e906-3e2d-48ae-8faa-c0fe2f6f3b10||Sequence: R016 ve11c/master r/e634e98; Dec 19 2017 11:00:25 by eja",
  "dcmmeta_affine": [
    [-1.9993937015533447, 0.04048492759466171, -0.02802983857691288, 98.36537170410156],
    [0.048357050865888596, 1.8291115760803223, -0.8074727654457092, -69.43266296386719],
    [-0.009289612993597984, 0.8079056739807129, 1.8295360803604126, -70.30330657958984],
    [0.0, 0.0, 0.0, 1.0]
],
  "dcmmeta_reorient_transform": [
    [0.0, -1.0, 0.0, 103.0],
    [1.0, 0.0, 0.0, 0.0],
    [0.0, 0.0, 1.0, 0.0],
    [0.0, 0.0, 0.0, 1.0]
],
  "dcmmeta_shape": [104, 104, 60, 476],
  "dcmmeta_slice_dim": 2,
  "dcmmeta_version": 0.6,
  "global": {
    "const": {
      "AcquisitionMatrix": [104, 0, 0, 104],
      "AngioFlag": "N",
      "BitsAllocated": 16,
      "BitsStored": 16,
      "BodyPartExamined": "BRAIN",
      "Columns": 832,
      "EchoNumbers": 1,
      "EchoTime": 37.0,
      "EchoTrainLength": 104,
      "FlipAngle": 52.0,
      "HighBit": 15,
      "ImageOrientationPatient": [0.99969686640762, -0.0241785249453, -0.0046448063756, 0.0202424640452, 0.91455581656264, -0.4039528450708],
      "ImagePositionPatient": [-845.05114946644, -767.16050284758, 310.37006843693],
      "ImageType": [
        "ORIGINAL",
        "PRIMARY",
        "M",
        "MB",
        "ND",
        "MOSAIC"
],
      "ImagedNucleus": "1H",
      "ImagingFrequency": 123.25885,
      "InPlanePhaseEncodingDirection": "COL",
      "MRAcquisitionType": "2D",
      "MagneticFieldStrength": 3.0,
      "Manufacturer": "SIEMENS",
      "ManufacturerModelName": "Prisma_fit",
      "Modality": "MR",
      "NumberOfAverages": 1.0,
      "NumberOfPhaseEncodingSteps": 104,
      "PercentPhaseFieldOfView": 100.0,
      "PercentSampling": 100.0,
      "PerformedProcedureStepStartTime": "172637.057000",
      "PhotometricInterpretation": "MONOCHROME2",
      "PixelBandwidth": 2290.0,
      "PixelRepresentation": 0,
      "PixelSpacing": [2.0, 2.0],
      "ProtocolName": "func_task-friends-s05e11a",
      "RepetitionTime": 1490.0,
      "Rows": 832,
      "SAR": 0.04908514916821,
      "SamplesPerPixel": 1,
      "ScanOptions": "FS",
      "ScanningSequence": "EP",
      "SequenceName": "epfid2d1_104",
      "SequenceVariant": [
        "SK",
        "SS"
],
      "SeriesDescription": "func_task-friends-s05e11a",
      "SeriesNumber": 17,
      "SeriesTime": "183134.021000",
      "SliceLocation": -37.65730853575,
      "SliceThickness": 2.0,
      "SmallestImagePixelValue": 0,
      "SoftwareVersions": "syngo MR E11",
      "SpacingBetweenSlices": 2.0000000328419,
      "SpecificCharacterSet": "ISO_IR 100",
      "StudyID": "1",
      "StudyTime": "172636.933000",
      "TransmitCoilName": "Body",
      "VariableFlipAngleFlag": "N",
      "WindowCenterWidthExplanation": "Algo1",
      "dBdt": 0.0},
    "slices": {}
  },
  "time": {
    "samples": {
      "AcquisitionNumber": [1, 2, 3, 4, 5, 6, 7, 8, 9, 10, 11, 12, 13, 14, 15, 16, 17, 18, 19, 20, 21, 22, 23, 24, 25, 26, 27, 28, 29, 30, 31, 32, 33, 34, 35, 36, 37, 38, 39, 40, 41, 42, 43, 44, 45, 46, 47, 48, 49, 50, 51, 52, 53, 54, 55, 56, 57, 58, 59, 60, 61, 62, 63, 64, 65, 66, 67, 68, 69, 70, 71, 72, 73, 74, 75, 76, 77, 78, 79, 80, 81, 82, 83, 84, 85, 86, 87, 88, 89, 90, 91, 92, 93, 94, 95, 96, 97, 98, 99, 100, 101, 102, 103, 104, 105, 106, 107, 108, 109, 110, 111, 112, 113, 114, 115, 116, 117, 118, 119, 120, 121, 122, 123, 124, 125, 126, 127, 128, 129, 130, 131, 132, 133, 134, 135, 136, 137, 138, 139, 140, 141, 142, 143, 144, 145, 146, 147, 148, 149, 150, 151, 152, 153, 154, 155, 156, 157, 158, 159, 160, 161, 162, 163, 164, 165, 166, 167, 168, 169, 170, 171, 172, 173, 174, 175, 176, 177, 178, 179, 180, 181, 182, 183, 184, 185, 186, 187, 188, 189, 190, 191, 192, 193, 194, 195, 196, 197, 198, 199, 200, 201, 202, 203, 204, 205, 206, 207, 208, 209, 210, 211, 212, 213, 214, 215, 216, 217, 218, 219, 220, 221, 222, 223, 224, 225, 226, 227, 228, 229, 230, 231, 232, 233, 234, 235, 236, 237, 238, 239, 240, 241, 242, 243, 244, 245, 246, 247, 248, 249, 250, 251, 252, 253, 254, 255, 256, 257, 258, 259, 260, 261, 262, 263, 264, 265, 266, 267, 268, 269, 270, 271, 272, 273, 274, 275, 276, 277, 278, 279, 280, 281, 282, 283, 284, 285, 286, 287, 288, 289, 290, 291, 292, 293, 294, 295, 296, 297, 298, 299, 300, 301, 302, 303, 304, 305, 306, 307, 308, 309, 310, 311, 312, 313, 314, 315, 316, 317, 318, 319, 320, 321, 322, 323, 324, 325, 326, 327, 328, 329, 330, 331, 332, 333, 334, 335, 336, 337, 338, 339, 340, 341, 342, 343, 344, 345, 346, 347, 348, 349, 350, 351, 352, 353, 354, 355, 356, 357, 358, 359, 360, 361, 362, 363, 364, 365, 366, 367, 368, 369, 370, 371, 372, 373, 374, 375, 376, 377, 378, 379, 380, 381, 382, 383, 384, 385, 386, 387, 388, 389, 390, 391, 392, 393, 394, 395, 396, 397, 398, 399, 400, 401, 402, 403, 404, 405, 406, 407, 408, 409, 410, 411, 412, 413, 414, 415, 416, 417, 418, 419, 420, 421, 422, 423, 424, 425, 426, 427, 428, 429, 430, 431, 432, 433, 434, 435, 436, 437, 438, 439, 440, 441, 442, 443, 444, 445, 446, 447, 448, 449, 450, 451, 452, 453, 454, 455, 456, 457, 458, 459, 460, 461, 462, 463, 464, 465, 466, 467, 468, 469, 470, 471, 472, 473, 474, 475, 476],
      "AcquisitionTime": ["183013.322500", "183014.812500", "183016.302500", "183017.792500", "183019.282500", "183020.772500", "183022.262500", "183023.752500", "183025.242500", "183026.732500", "183028.222500", "183029.712500", "183031.202500", "183032.692500", "183034.182500", "183035.672500", "183037.162500", "183038.652500", "183040.142500", "183041.632500", "183043.122500", "183044.612500", "183046.102500", "183047.592500", "183049.082500", "183050.572500", "183052.062500", "183053.552500", "183055.042500", "183056.532500", "183058.022500", "183059.512500", "183101.002500", "183102.492500", "183103.982500", "183105.472500", "183106.962500", "183108.452500", "183109.942500", "183111.432500", "183112.922500", "183114.412500", "183115.902500", "183117.392500", "183118.882500", "183120.372500", "183121.862500", "183123.352500", "183124.842500", "183126.332500", "183127.822500", "183129.312500", "183130.802500", "183132.292500", "183133.782500", "183135.272500", "183136.762500", "183138.252500", "183139.742500", "183141.232500", "183142.722500", "183144.212500", "183145.702500", "183147.192500", "183148.682500", "183150.172500", "183151.662500", "183153.152500", "183154.642500", "183156.132500", "183157.622500", "183159.112500", "183200.602500", "183202.092500", "183203.582500", "183205.072500", "183206.562500", "183208.052500", "183209.542500", "183211.032500", "183212.522500", "183214.012500", "183215.502500", "183216.992500", "183218.482500", "183219.972500", "183221.462500", "183222.952500", "183224.442500", "183225.932500", "183227.422500", "183228.912500", "183230.402500", "183231.892500", "183233.382500", "183234.872500", "183236.362500", "183237.852500", "183239.342500", "183240.832500", "183242.322500", "183243.812500", "183245.302500", "183246.792500", "183248.282500", "183249.772500", "183251.262500", "183252.752500", "183254.242500", "183255.732500", "183257.222500", "183258.712500", "183300.202500", "183301.692500", "183303.182500", "183304.672500", "183306.162500", "183307.652500", "183309.142500", "183310.632500", "183312.122500", "183313.612500", "183315.102500", "183316.592500", "183318.082500", "183319.572500", "183321.062500", "183322.552500", "183324.042500", "183325.532500", "183327.022500", "183328.512500", "183330.002500", "183331.492500", "183332.982500", "183334.472500", "183335.962500", "183337.452500", "183338.942500", "183340.432500", "183341.922500", "183343.412500", "183344.902500", "183346.392500", "183347.882500", "183349.372500", "183350.862500", "183352.352500", "183353.842500", "183355.332500", "183356.822500", "183358.312500", "183359.802500", "183401.292500", "183402.782500", "183404.272500", "183405.762500", "183407.252500", "183408.742500", "183410.232500", "183411.722500", "183413.212500", "183414.702500", "183416.192500", "183417.682500", "183419.172500", "183420.662500", "183422.152500", "183423.642500", "183425.132500", "183426.622500", "183428.112500", "183429.602500", "183431.092500", "183432.582500", "183434.072500", "183435.562500", "183437.052500", "183438.542500", "183440.032500", "183441.522500", "183443.012500", "183444.502500", "183445.992500", "183447.482500", "183448.972500", "183450.462500", "183451.952500", "183453.442500", "183454.932500", "183456.422500", "183457.912500", "183459.402500", "183500.892500", "183502.382500", "183503.872500", "183505.362500", "183506.852500", "183508.342500", "183509.832500", "183511.322500", "183512.812500", "183514.302500", "183515.792500", "183517.282500", "183518.772500", "183520.262500", "183521.752500", "183523.242500", "183524.732500", "183526.222500", "183527.712500", "183529.202500", "183530.692500", "183532.182500", "183533.672500", "183535.162500", "183536.652500", "183538.142500", "183539.632500", "183541.122500", "183542.612500", "183544.102500", "183545.592500", "183547.082500", "183548.572500", "183550.062500", "183551.552500", "183553.042500", "183554.532500", "183556.022500", "183557.512500", "183559.002500", "183600.492500", "183601.982500", "183603.472500", "183604.962500", "183606.452500", "183607.942500", "183609.432500", "183610.922500", "183612.412500", "183613.902500", "183615.392500", "183616.882500", "183618.372500", "183619.862500", "183621.352500", "183622.842500", "183624.332500", "183625.822500", "183627.312500", "183628.802500", "183630.292500", "183631.782500", "183633.272500", "183634.762500", "183636.252500", "183637.742500", "183639.232500", "183640.722500", "183642.212500", "183643.702500", "183645.192500", "183646.682500", "183648.172500", "183649.662500", "183651.152500", "183652.642500", "183654.132500", "183655.622500", "183657.112500", "183658.602500", "183700.092500", "183701.582500", "183703.072500", "183704.562500", "183706.052500", "183707.542500", "183709.032500", "183710.522500", "183712.012500", "183713.502500", "183714.992500", "183716.482500", "183717.972500", "183719.462500", "183720.952500", "183722.442500", "183723.932500", "183725.422500", "183726.912500", "183728.402500", "183729.892500", "183731.382500", "183732.872500", "183734.362500", "183735.852500", "183737.342500", "183738.832500", "183740.322500", "183741.812500", "183743.302500", "183744.792500", "183746.282500", "183747.772500", "183749.262500", "183750.752500", "183752.242500", "183753.732500", "183755.222500", "183756.712500", "183758.202500", "183759.692500", "183801.182500", "183802.672500", "183804.162500", "183805.652500", "183807.142500", "183808.632500", "183810.122500", "183811.612500", "183813.102500", "183814.592500", "183816.082500", "183817.572500", "183819.062500", "183820.552500", "183822.042500", "183823.532500", "183825.022500", "183826.512500", "183828.002500", "183829.492500", "183830.982500", "183832.472500", "183833.962500", "183835.452500", "183836.942500", "183838.432500", "183839.922500", "183841.412500", "183842.902500", "183844.392500", "183845.882500", "183847.372500", "183848.862500", "183850.352500", "183851.842500", "183853.332500", "183854.822500", "183856.312500", "183857.802500", "183859.292500", "183900.782500", "183902.272500", "183903.762500", "183905.252500", "183906.742500", "183908.232500", "183909.722500", "183911.212500", "183912.702500", "183914.192500", "183915.682500", "183917.172500", "183918.662500", "183920.152500", "183921.642500", "183923.132500", "183924.622500", "183926.112500", "183927.602500", "183929.092500", "183930.582500", "183932.072500", "183933.562500", "183935.052500", "183936.542500", "183938.032500", "183939.522500", "183941.012500", "183942.502500", "183943.992500", "183945.482500", "183946.972500", "183948.462500", "183949.952500", "183951.442500", "183952.932500", "183954.422500", "183955.912500", "183957.402500", "183958.892500", "184000.382500", "184001.872500", "184003.362500", "184004.852500", "184006.342500", "184007.832500", "184009.322500", "184010.812500", "184012.302500", "184013.792500", "184015.282500", "184016.772500", "184018.262500", "184019.752500", "184021.242500", "184022.732500", "184024.222500", "184025.712500", "184027.202500", "184028.692500", "184030.182500", "184031.672500", "184033.162500", "184034.652500", "184036.142500", "184037.632500", "184039.122500", "184040.612500", "184042.102500", "184043.592500", "184045.082500", "184046.572500", "184048.062500", "184049.552500", "184051.042500", "184052.532500", "184054.022500", "184055.512500", "184057.002500", "184058.492500", "184059.982500", "184101.472500", "184102.962500", "184104.452500", "184105.942500", "184107.432500", "184108.922500", "184110.412500", "184111.902500", "184113.392500", "184114.882500", "184116.372500", "184117.862500", "184119.352500", "184120.842500", "184122.332500", "184123.822500", "184125.312500", "184126.802500", "184128.292500", "184129.782500", "184131.272500", "184132.762500", "184134.252500", "184135.742500", "184137.232500", "184138.722500", "184140.212500", "184141.702500", "184143.192500", "184144.682500", "184146.172500", "184147.662500", "184149.152500", "184150.642500", "184152.132500", "184153.622500", "184155.112500", "184156.602500", "184158.092500", "184159.582500", "184201.072500"],
      "ContentTime": ["183134.023000", "183134.027000", "183134.030000", "183134.033000", "183134.036000", "183134.038000", "183134.042000", "183134.045000", "183134.047000", "183134.050000", "183134.054000", "183134.064000", "183134.067000", "183134.070000", "183134.073000", "183134.076000", "183134.079000", "183134.082000", "183134.085000", "183134.087000", "183134.090000", "183134.094000", "183134.097000", "183134.100000", "183134.103000", "183134.106000", "183134.109000", "183153.993000", "183153.996000", "183154.000000", "183154.003000", "183154.006000", "183154.009000", "183154.012000", "183154.014000", "183154.028000", "183154.031000", "183154.034000", "183154.036000", "183154.039000", "183154.042000", "183154.045000", "183154.048000", "183154.051000", "183154.054000", "183154.057000", "183154.060000", "183213.993000", "183213.996000", "183214.000000", "183214.003000", "183214.006000", "183214.009000", "183214.012000", "183214.015000", "183214.018000", "183214.021000", "183214.024000", "183214.027000", "183214.030000", "183214.032000", "183214.035000", "183214.038000", "183214.041000", "183214.044000", "183214.047000", "183214.050000", "183233.993000", "183233.996000", "183234.000000", "183234.003000", "183234.006000", "183234.009000", "183234.012000", "183234.015000", "183234.018000", "183234.020000", "183234.023000", "183234.026000", "183234.029000", "183234.032000", "183234.035000", "183234.038000", "183234.050000", "183234.053000", "183234.056000", "183234.059000", "183234.062000", "183313.994000", "183313.997000", "183314.001000", "183314.004000", "183314.007000", "183314.010000", "183314.013000", "183314.016000", "183314.019000", "183314.021000", "183314.024000", "183314.027000", "183314.030000", "183314.041000", "183314.044000", "183314.047000", "183314.050000", "183314.053000", "183314.067000", "183314.070000", "183314.073000", "183314.076000", "183314.079000", "183314.082000", "183314.084000", "183314.087000", "183314.090000", "183314.093000", "183314.096000", "183314.099000", "183314.102000", "183314.105000", "183333.994000", "183333.997000", "183334.001000", "183334.004000", "183334.007000", "183334.010000", "183334.013000", "183334.016000", "183334.019000", "183334.022000", "183334.025000", "183334.028000", "183334.031000", "183334.034000", "183413.993000", "183413.996000", "183414.000000", "183414.003000", "183414.006000", "183414.009000", "183414.012000", "183414.015000", "183414.018000", "183414.021000", "183414.024000", "183414.026000", "183414.030000", "183414.032000", "183414.035000", "183414.038000", "183414.041000", "183414.044000", "183414.047000", "183414.050000", "183414.053000", "183414.056000", "183414.059000", "183414.062000", "183414.064000", "183414.067000", "183414.070000", "183453.993000", "183453.996000", "183454.000000", "183454.003000", "183454.006000", "183454.009000", "183454.012000", "183454.015000", "183454.018000", "183454.021000", "183454.024000", "183454.027000", "183454.030000", "183454.033000", "183454.036000", "183454.039000", "183454.042000", "183454.045000", "183454.048000", "183454.051000", "183454.054000", "183454.056000", "183454.060000", "183454.062000", "183454.065000", "183454.068000", "183454.072000", "183533.994000", "183533.997000", "183534.001000", "183534.004000", "183534.007000", "183534.010000", "183534.013000", "183534.016000", "183534.019000", "183534.022000", "183534.024000", "183534.027000", "183534.030000", "183534.034000", "183534.037000", "183534.040000", "183534.043000", "183534.046000", "183534.048000", "183534.051000", "183534.054000", "183534.057000", "183534.060000", "183534.063000", "183534.066000", "183534.069000", "183613.994000", "183613.997000", "183614.001000", "183614.004000", "183614.007000", "183614.010000", "183614.013000", "183614.016000", "183614.019000", "183614.022000", "183614.025000", "183614.028000", "183614.031000", "183614.034000", "183614.037000", "183614.040000", "183614.043000", "183614.046000", "183614.049000", "183614.051000", "183614.054000", "183614.057000", "183614.060000", "183614.063000", "183614.066000", "183614.069000", "183614.072000", "183653.993000", "183653.996000", "183654.000000", "183654.003000", "183654.006000", "183654.009000", "183654.012000", "183654.015000", "183654.018000", "183654.021000", "183654.024000", "183654.027000", "183654.030000", "183654.033000", "183654.036000", "183654.039000", "183654.042000", "183654.045000", "183654.048000", "183654.051000", "183654.054000", "183654.057000", "183654.060000", "183654.063000", "183654.066000", "183654.069000", "183654.072000", "183733.994000", "183733.997000", "183734.001000", "183734.004000", "183734.007000", "183734.010000", "183734.013000", "183734.016000", "183734.019000", "183734.022000", "183734.025000", "183734.028000", "183734.031000", "183734.034000", "183734.037000", "183734.040000", "183734.043000", "183734.046000", "183734.049000", "183734.052000", "183734.055000", "183734.058000", "183734.061000", "183734.064000", "183734.066000", "183734.069000", "183734.081000", "183813.994000", "183813.997000", "183814.001000", "183814.004000", "183814.007000", "183814.010000", "183814.013000", "183814.016000", "183814.019000", "183814.022000", "183814.025000", "183814.028000", "183814.031000", "183814.034000", "183814.037000", "183814.040000", "183814.043000", "183814.046000", "183814.049000", "183814.052000", "183814.055000", "183814.058000", "183814.060000", "183814.063000", "183814.066000", "183814.069000", "183814.072000", "183853.993000", "183853.996000", "183854.000000", "183854.004000", "183854.007000", "183854.010000", "183854.013000", "183854.016000", "183854.019000", "183854.022000", "183854.025000", "183854.028000", "183854.031000", "183854.034000", "183854.037000", "183854.040000", "183854.043000", "183854.046000", "183854.049000", "183854.052000", "183854.055000", "183854.058000", "183854.061000", "183854.064000", "183854.067000", "183854.070000", "183854.073000", "183933.993000", "183933.996000", "183934.001000", "183934.004000", "183934.007000", "183934.010000", "183934.013000", "183934.016000", "183934.019000", "183934.021000", "183934.025000", "183934.027000", "183934.030000", "183934.033000", "183934.036000", "183934.039000", "183934.042000", "183934.045000", "183934.048000", "183934.051000", "183934.054000", "183934.057000", "183934.060000", "183934.063000", "183934.066000", "183934.069000", "184013.994000", "184013.997000", "184014.001000", "184014.004000", "184014.007000", "184014.010000", "184014.013000", "184014.016000", "184014.019000", "184014.022000", "184014.025000", "184014.028000", "184014.031000", "184014.034000", "184014.037000", "184014.040000", "184014.043000", "184014.055000", "184014.058000", "184014.061000", "184014.064000", "184014.067000", "184014.070000", "184014.073000", "184014.076000", "184014.078000", "184014.081000", "184053.993000", "184053.996000", "184054.000000", "184054.003000", "184054.006000", "184054.009000", "184054.012000", "184054.015000", "184054.018000", "184054.021000", "184054.024000", "184054.027000", "184054.030000", "184054.033000", "184054.036000", "184054.039000", "184054.042000", "184054.045000", "184054.048000", "184054.051000", "184054.054000", "184054.057000", "184054.060000", "184054.063000", "184054.066000", "184054.069000", "184054.072000", "184133.993000", "184133.996000", "184134.000000", "184134.003000", "184134.006000", "184134.009000", "184134.012000", "184134.015000", "184134.018000", "184134.021000", "184134.024000", "184134.027000", "184134.030000", "184134.033000", "184134.036000", "184134.039000", "184134.042000", "184134.045000", "184134.048000", "184134.051000", "184134.054000", "184134.056000", "184134.059000", "184134.062000", "184134.065000", "184134.068000", "184134.071000", "184203.055000", "184203.058000", "184203.061000", "184203.064000", "184203.067000", "184203.070000", "184203.073000", "184203.076000", "184203.079000", "184203.082000", "184203.085000", "184203.088000", "184203.091000", "184203.103000", "184203.106000", "184203.109000", "184203.112000", "184203.115000", "184203.118000", "184203.122000"],
