{
  "AcquisitionMatrixPE": 104,
  "AcquisitionNumber": 1,
  "AcquisitionTime": "17:58:42.302500",
  "BandwidthPerPixelPhaseEncode": 17.17,
  "BaseResolution": 104,
  "BodyPartExamined": "BRAIN",
  "CoilCombinationMethod": "Sum of Squares",
  "ConsistencyInfo": "N4_VE11C_LATEST_20160120",
  "ConversionSoftware": "dcm2niix",
  "ConversionSoftwareVersion": "v1.0.20211006",
  "DerivedVendorReportedEchoSpacing": 0.000560011,
  "DeviceSerialNumber": "167006",
  "DwellTime": 2.1e-06,
  "EchoTime": 0.037,
  "EchoTrainLength": 104,
  "EffectiveEchoSpacing": 0.000560011,
  "FlipAngle": 52,
  "HeudiconvVersion": "0.5.3.post569+g418601f",
  "ImageComments": "Unaliased MB4/PE3/LB",
  "ImageOrientationPatientDICOM": [0.999697, -0.0241785, -0.00464481, 0.0202425, 0.914556, -0.403953],
  "ImageOrientationText": "Tra>Cor(-23.8)>Sag(-0.8)",
  "ImageType": [
    "ORIGINAL",
    "PRIMARY",
    "M",
    "MB",
    "ND",
    "MOSAIC"
],
  "ImagingFrequency": 123.259,
  "InPlanePhaseEncodingDirectionDICOM": "COL",
  "InstitutionAddress": "Chemin Queen-Mary 4565,Montreal,District,CA,H3W 1W5",
  "InstitutionName": "IUGM",
  "InstitutionalDepartmentName": "Department",
  "MRAcquisitionType": "2D",
  "MagneticFieldStrength": 3,
  "Manufacturer": "Siemens",
  "ManufacturersModelName": "Prisma_fit",
  "MatrixCoilMode": "SENSE",
  "Modality": "MR",
  "MultibandAccelerationFactor": 4,
  "PartialFourier": 1,
  "PatientPosition": "HFS",
  "PercentPhaseFOV": 100,
  "PercentSampling": 100,
  "PhaseEncodingDirection": "j",
  "PhaseEncodingSteps": 104,
  "PhaseResolution": 1,
  "PixelBandwidth": 2290,
  "ProcedureStepDescription": "video^friends",
  "ProtocolName": "func_task-friends-s05e10a",
  "PulseSequenceDetails": "%CustomerSeq%\\cmrr_mbep2d_bold",
  "ReceiveCoilActiveElements": "HC1-7;NC1,2",
  "ReceiveCoilName": "HeadNeck_64",
  "ReconMatrixPE": 104,
  "RepetitionTime": 1.49,
  "SAR": 0.0490734,
  "ScanOptions": "FS",
  "ScanningSequence": "EP",
  "SequenceName": "epfid2d1_104",
  "SequenceVariant": "SK\\SS",
  "SeriesDescription": "func_task-friends-s05e10a",
  "SeriesNumber": 13,
  "ShimSetting": [615, -7261, -8838, 381, 13, -384, 34, 15],
  "SliceThickness": 2,
  "SliceTiming": [0, 0.785, 0.0975, 0.8825, 0.195, 0.98, 0.295, 1.0775, 0.3925, 1.175, 0.49, 1.275, 0.5875, 1.3725, 0.685, 0, 0.785, 0.0975, 0.8825, 0.195, 0.98, 0.295, 1.0775, 0.3925, 1.175, 0.49, 1.275, 0.5875, 1.3725, 0.685, 0, 0.785, 0.0975, 0.8825, 0.195, 0.98, 0.295, 1.0775, 0.3925, 1.175, 0.49, 1.275, 0.5875, 1.3725, 0.685, 0, 0.785, 0.0975, 0.8825, 0.195, 0.98, 0.295, 1.0775, 0.3925, 1.175, 0.49, 1.275, 0.5875, 1.3725, 0.685],
  "SoftwareVersions": "syngo MR E11",
  "SpacingBetweenSlices": 2,
  "StationName": "MRC35049",
  "TaskName": "s05e10a",
  "TotalReadoutTime": 0.0576811,
  "TxRefAmp": 265.233,
  "WipMemBlock": "aef2e927-3334-439d-9b0e-cd47668b265c||Sequence: R016 ve11c/master r/e634e98; Dec 19 2017 11:00:25 by eja",
  "dcmmeta_affine": [
    [-1.9993937015533447, 0.04048492759466171, -0.02802983857691288, 98.36537170410156],
    [0.048357050865888596, 1.8291115760803223, -0.8074727654457092, -69.43266296386719],
    [-0.009289612993597984, 0.8079056739807129, 1.8295360803604126, -70.30330657958984],
    [0.0, 0.0, 0.0, 1.0]
],
  "dcmmeta_reorient_transform": [
    [0.0, -1.0, 0.0, 103.0],
    [1.0, 0.0, 0.0, 0.0],
    [0.0, 0.0, 1.0, 0.0],
    [0.0, 0.0, 0.0, 1.0]
],
  "dcmmeta_shape": [104, 104, 60, 450],
  "dcmmeta_slice_dim": 2,
  "dcmmeta_version": 0.6,
  "global": {
    "const": {
      "AcquisitionMatrix": [104, 0, 0, 104],
      "AngioFlag": "N",
      "BitsAllocated": 16,
      "BitsStored": 16,
      "BodyPartExamined": "BRAIN",
      "Columns": 832,
      "EchoNumbers": 1,
      "EchoTime": 37.0,
      "EchoTrainLength": 104,
      "FlipAngle": 52.0,
      "HighBit": 15,
      "ImageOrientationPatient": [0.99969686640762, -0.0241785249453, -0.0046448063756, 0.0202424640452, 0.91455581656264, -0.4039528450708],
      "ImagePositionPatient": [-845.05114946644, -767.16050284758, 310.37006843693],
      "ImageType": [
        "ORIGINAL",
        "PRIMARY",
        "M",
        "MB",
        "ND",
        "MOSAIC"
],
      "ImagedNucleus": "1H",
      "ImagingFrequency": 123.258847,
      "InPlanePhaseEncodingDirection": "COL",
      "MRAcquisitionType": "2D",
      "MagneticFieldStrength": 3.0,
      "Manufacturer": "SIEMENS",
      "ManufacturerModelName": "Prisma_fit",
      "Modality": "MR",
      "NumberOfAverages": 1.0,
      "NumberOfPhaseEncodingSteps": 104,
      "PercentPhaseFieldOfView": 100.0,
      "PercentSampling": 100.0,
      "PerformedProcedureStepStartTime": "172637.057000",
      "PhotometricInterpretation": "MONOCHROME2",
      "PixelBandwidth": 2290.0,
      "PixelRepresentation": 0,
      "PixelSpacing": [2.0, 2.0],
      "ProtocolName": "func_task-friends-s05e10a",
      "RepetitionTime": 1490.0,
      "Rows": 832,
      "SAR": 0.04907338691911,
      "SamplesPerPixel": 1,
      "ScanOptions": "FS",
      "ScanningSequence": "EP",
      "SequenceName": "epfid2d1_104",
      "SequenceVariant": [
        "SK",
        "SS"
],
      "SeriesDescription": "func_task-friends-s05e10a",
      "SeriesNumber": 13,
      "SeriesTime": "180014.650000",
      "SliceLocation": -37.65730853575,
      "SliceThickness": 2.0,
      "SmallestImagePixelValue": 0,
      "SoftwareVersions": "syngo MR E11",
      "SpacingBetweenSlices": 2.0000000328419,
      "SpecificCharacterSet": "ISO_IR 100",
      "StudyID": "1",
      "StudyTime": "172636.933000",
      "TransmitCoilName": "Body",
      "VariableFlipAngleFlag": "N",
      "WindowCenterWidthExplanation": "Algo1",
      "dBdt": 0.0},
    "slices": {}
  },
  "time": {
    "samples": {
      "AcquisitionNumber": [1, 2, 3, 4, 5, 6, 7, 8, 9, 10, 11, 12, 13, 14, 15, 16, 17, 18, 19, 20, 21, 22, 23, 24, 25, 26, 27, 28, 29, 30, 31, 32, 33, 34, 35, 36, 37, 38, 39, 40, 41, 42, 43, 44, 45, 46, 47, 48, 49, 50, 51, 52, 53, 54, 55, 56, 57, 58, 59, 60, 61, 62, 63, 64, 65, 66, 67, 68, 69, 70, 71, 72, 73, 74, 75, 76, 77, 78, 79, 80, 81, 82, 83, 84, 85, 86, 87, 88, 89, 90, 91, 92, 93, 94, 95, 96, 97, 98, 99, 100, 101, 102, 103, 104, 105, 106, 107, 108, 109, 110, 111, 112, 113, 114, 115, 116, 117, 118, 119, 120, 121, 122, 123, 124, 125, 126, 127, 128, 129, 130, 131, 132, 133, 134, 135, 136, 137, 138, 139, 140, 141, 142, 143, 144, 145, 146, 147, 148, 149, 150, 151, 152, 153, 154, 155, 156, 157, 158, 159, 160, 161, 162, 163, 164, 165, 166, 167, 168, 169, 170, 171, 172, 173, 174, 175, 176, 177, 178, 179, 180, 181, 182, 183, 184, 185, 186, 187, 188, 189, 190, 191, 192, 193, 194, 195, 196, 197, 198, 199, 200, 201, 202, 203, 204, 205, 206, 207, 208, 209, 210, 211, 212, 213, 214, 215, 216, 217, 218, 219, 220, 221, 222, 223, 224, 225, 226, 227, 228, 229, 230, 231, 232, 233, 234, 235, 236, 237, 238, 239, 240, 241, 242, 243, 244, 245, 246, 247, 248, 249, 250, 251, 252, 253, 254, 255, 256, 257, 258, 259, 260, 261, 262, 263, 264, 265, 266, 267, 268, 269, 270, 271, 272, 273, 274, 275, 276, 277, 278, 279, 280, 281, 282, 283, 284, 285, 286, 287, 288, 289, 290, 291, 292, 293, 294, 295, 296, 297, 298, 299, 300, 301, 302, 303, 304, 305, 306, 307, 308, 309, 310, 311, 312, 313, 314, 315, 316, 317, 318, 319, 320, 321, 322, 323, 324, 325, 326, 327, 328, 329, 330, 331, 332, 333, 334, 335, 336, 337, 338, 339, 340, 341, 342, 343, 344, 345, 346, 347, 348, 349, 350, 351, 352, 353, 354, 355, 356, 357, 358, 359, 360, 361, 362, 363, 364, 365, 366, 367, 368, 369, 370, 371, 372, 373, 374, 375, 376, 377, 378, 379, 380, 381, 382, 383, 384, 385, 386, 387, 388, 389, 390, 391, 392, 393, 394, 395, 396, 397, 398, 399, 400, 401, 402, 403, 404, 405, 406, 407, 408, 409, 410, 411, 412, 413, 414, 415, 416, 417, 418, 419, 420, 421, 422, 423, 424, 425, 426, 427, 428, 429, 430, 431, 432, 433, 434, 435, 436, 437, 438, 439, 440, 441, 442, 443, 444, 445, 446, 447, 448, 449, 450],
      "AcquisitionTime": ["175842.302500", "175843.792500", "175845.282500", "175846.772500", "175848.262500", "175849.752500", "175851.242500", "175852.732500", "175854.222500", "175855.712500", "175857.202500", "175858.692500", "175900.182500", "175901.672500", "175903.162500", "175904.652500", "175906.142500", "175907.632500", "175909.122500", "175910.612500", "175912.102500", "175913.592500", "175915.082500", "175916.572500", "175918.062500", "175919.552500", "175921.042500", "175922.532500", "175924.022500", "175925.512500", "175927.002500", "175928.492500", "175929.982500", "175931.472500", "175932.962500", "175934.452500", "175935.942500", "175937.432500", "175938.922500", "175940.412500", "175941.902500", "175943.392500", "175944.882500", "175946.372500", "175947.862500", "175949.352500", "175950.842500", "175952.332500", "175953.822500", "175955.312500", "175956.802500", "175958.292500", "175959.782500", "180001.272500", "180002.762500", "180004.252500", "180005.742500", "180007.232500", "180008.722500", "180010.212500", "180011.702500", "180013.192500", "180014.682500", "180016.172500", "180017.662500", "180019.152500", "180020.642500", "180022.132500", "180023.622500", "180025.112500", "180026.602500", "180028.092500", "180029.582500", "180031.072500", "180032.562500", "180034.052500", "180035.542500", "180037.032500", "180038.522500", "180040.012500", "180041.502500", "180042.992500", "180044.482500", "180045.972500", "180047.462500", "180048.952500", "180050.442500", "180051.932500", "180053.422500", "180054.912500", "180056.402500", "180057.892500", "180059.382500", "180100.872500", "180102.362500", "180103.852500", "180105.342500", "180106.832500", "180108.322500", "180109.812500", "180111.302500", "180112.792500", "180114.282500", "180115.772500", "180117.262500", "180118.752500", "180120.242500", "180121.732500", "180123.222500", "180124.712500", "180126.202500", "180127.692500", "180129.182500", "180130.672500", "180132.162500", "180133.652500", "180135.142500", "180136.632500", "180138.122500", "180139.612500", "180141.102500", "180142.592500", "180144.082500", "180145.572500", "180147.062500", "180148.552500", "180150.042500", "180151.532500", "180153.022500", "180154.512500", "180156.002500", "180157.492500", "180158.982500", "180200.472500", "180201.962500", "180203.452500", "180204.942500", "180206.432500", "180207.922500", "180209.412500", "180210.902500", "180212.392500", "180213.882500", "180215.372500", "180216.862500", "180218.352500", "180219.842500", "180221.332500", "180222.822500", "180224.312500", "180225.802500", "180227.292500", "180228.782500", "180230.272500", "180231.762500", "180233.252500", "180234.742500", "180236.232500", "180237.722500", "180239.212500", "180240.702500", "180242.192500", "180243.682500", "180245.172500", "180246.662500", "180248.152500", "180249.642500", "180251.132500", "180252.622500", "180254.112500", "180255.602500", "180257.092500", "180258.582500", "180300.072500", "180301.562500", "180303.052500", "180304.542500", "180306.032500", "180307.522500", "180309.012500", "180310.502500", "180311.992500", "180313.482500", "180314.972500", "180316.462500", "180317.952500", "180319.442500", "180320.932500", "180322.422500", "180323.912500", "180325.402500", "180326.892500", "180328.382500", "180329.872500", "180331.362500", "180332.852500", "180334.342500", "180335.832500", "180337.322500", "180338.812500", "180340.302500", "180341.792500", "180343.282500", "180344.772500", "180346.262500", "180347.752500", "180349.242500", "180350.732500", "180352.222500", "180353.712500", "180355.202500", "180356.692500", "180358.182500", "180359.672500", "180401.162500", "180402.652500", "180404.142500", "180405.632500", "180407.122500", "180408.612500", "180410.102500", "180411.592500", "180413.082500", "180414.572500", "180416.062500", "180417.552500", "180419.042500", "180420.532500", "180422.022500", "180423.512500", "180425.002500", "180426.492500", "180427.982500", "180429.472500", "180430.962500", "180432.452500", "180433.942500", "180435.432500", "180436.922500", "180438.412500", "180439.902500", "180441.392500", "180442.882500", "180444.372500", "180445.862500", "180447.352500", "180448.842500", "180450.332500", "180451.822500", "180453.312500", "180454.802500", "180456.292500", "180457.782500", "180459.272500", "180500.762500", "180502.252500", "180503.742500", "180505.232500", "180506.722500", "180508.212500", "180509.702500", "180511.192500", "180512.682500", "180514.172500", "180515.662500", "180517.152500", "180518.642500", "180520.132500", "180521.622500", "180523.112500", "180524.602500", "180526.092500", "180527.582500", "180529.072500", "180530.562500", "180532.052500", "180533.542500", "180535.032500", "180536.522500", "180538.012500", "180539.502500", "180540.992500", "180542.482500", "180543.972500", "180545.462500", "180546.952500", "180548.442500", "180549.932500", "180551.422500", "180552.912500", "180554.402500", "180555.892500", "180557.382500", "180558.872500", "180600.362500", "180601.852500", "180603.342500", "180604.832500", "180606.322500", "180607.812500", "180609.302500", "180610.792500", "180612.282500", "180613.772500", "180615.262500", "180616.752500", "180618.242500", "180619.732500", "180621.222500", "180622.712500", "180624.202500", "180625.692500", "180627.182500", "180628.672500", "180630.162500", "180631.652500", "180633.142500", "180634.632500", "180636.122500", "180637.612500", "180639.102500", "180640.592500", "180642.082500", "180643.572500", "180645.062500", "180646.552500", "180648.042500", "180649.532500", "180651.022500", "180652.512500", "180654.002500", "180655.492500", "180656.982500", "180658.472500", "180659.962500", "180701.452500", "180702.942500", "180704.432500", "180705.922500", "180707.412500", "180708.902500", "180710.392500", "180711.882500", "180713.372500", "180714.862500", "180716.352500", "180717.842500", "180719.332500", "180720.822500", "180722.312500", "180723.802500", "180725.292500", "180726.782500", "180728.272500", "180729.762500", "180731.252500", "180732.742500", "180734.232500", "180735.722500", "180737.212500", "180738.702500", "180740.192500", "180741.682500", "180743.172500", "180744.662500", "180746.152500", "180747.642500", "180749.132500", "180750.622500", "180752.112500", "180753.602500", "180755.092500", "180756.582500", "180758.072500", "180759.562500", "180801.052500", "180802.542500", "180804.032500", "180805.522500", "180807.012500", "180808.502500", "180809.992500", "180811.482500", "180812.972500", "180814.462500", "180815.952500", "180817.442500", "180818.932500", "180820.422500", "180821.912500", "180823.402500", "180824.892500", "180826.382500", "180827.872500", "180829.362500", "180830.852500", "180832.342500", "180833.832500", "180835.322500", "180836.812500", "180838.302500", "180839.792500", "180841.282500", "180842.772500", "180844.262500", "180845.752500", "180847.242500", "180848.732500", "180850.222500", "180851.712500", "180853.202500", "180854.692500", "180856.182500", "180857.672500", "180859.162500", "180900.652500", "180902.142500", "180903.632500", "180905.122500", "180906.612500", "180908.102500", "180909.592500", "180911.082500", "180912.572500", "180914.062500", "180915.552500", "180917.042500", "180918.532500", "180920.022500", "180921.512500", "180923.002500", "180924.492500", "180925.982500", "180927.472500", "180928.962500", "180930.452500", "180931.942500", "180933.432500", "180934.922500", "180936.412500", "180937.902500", "180939.392500", "180940.882500", "180942.372500", "180943.862500", "180945.352500", "180946.842500", "180948.332500", "180949.822500", "180951.312500"],
      "ContentTime": ["180014.653000", "180014.662000", "180014.665000", "180014.668000", "180014.670000", "180014.673000", "180014.676000", "180014.679000", "180014.682000", "180014.685000", "180014.688000", "180014.691000", "180014.694000", "180014.697000", "180014.700000", "180014.703000", "180014.706000", "180014.709000", "180014.712000", "180014.715000", "180014.718000", "180014.721000", "180014.724000", "180014.726000", "180014.729000", "180014.732000", "180014.735000", "180014.738000", "180014.741000", "180014.744000", "180014.750000", "180014.753000", "180014.756000", "180014.759000", "180014.762000", "180014.765000", "180014.768000", "180014.771000", "180014.774000", "180034.619000", "180034.622000", "180034.625000", "180034.628000", "180034.631000", "180034.634000", "180034.637000", "180034.640000", "180034.643000", "180034.652000", "180034.655000", "180034.657000", "180034.660000", "180034.663000", "180034.666000", "180034.669000", "180034.672000", "180034.675000", "180034.678000", "180034.681000", "180054.619000", "180054.622000", "180054.625000", "180054.628000", "180054.631000", "180054.634000", "180054.637000", "180054.640000", "180054.643000", "180054.645000", "180054.648000", "180054.651000", "180054.654000", "180054.657000", "180054.660000", "180054.663000", "180054.666000", "180054.669000", "180054.672000", "180054.674000", "180054.677000", "180114.619000", "180114.622000", "180114.625000", "180114.628000", "180114.631000", "180114.634000", "180114.637000", "180114.640000", "180114.642000", "180114.645000", "180114.648000", "180114.651000", "180114.654000", "180114.657000", "180114.660000", "180114.663000", "180114.666000", "180114.669000", "180114.672000", "180114.675000", "180154.619000", "180154.622000", "180154.625000", "180154.628000", "180154.631000", "180154.634000", "180154.651000", "180154.654000", "180154.656000", "180154.659000", "180154.662000", "180154.665000", "180154.668000", "180154.671000", "180154.674000", "180154.677000", "180154.680000", "180154.683000", "180154.686000", "180154.689000", "180154.692000", "180154.695000", "180154.698000", "180154.701000", "180154.703000", "180154.706000", "180154.709000", "180154.712000", "180234.619000", "180234.622000", "180234.625000", "180234.628000", "180234.631000", "180234.634000", "180234.637000", "180234.640000", "180234.643000", "180234.646000", "180234.649000", "180234.652000", "180234.663000", "180234.666000", "180234.669000", "180234.671000", "180234.675000", "180234.677000", "180234.680000", "180234.683000", "180234.686000", "180234.689000", "180234.692000", "180234.695000", "180234.698000", "180234.701000", "180234.704000", "180314.619000", "180314.622000", "180314.625000", "180314.628000", "180314.631000", "180314.634000", "180314.637000", "180314.640000", "180314.643000", "180314.646000", "180314.649000", "180314.652000", "180314.655000", "180314.658000", "180314.661000", "180314.664000", "180314.667000", "180314.670000", "180314.673000", "180314.676000", "180314.679000", "180314.682000", "180314.685000", "180314.688000", "180314.691000", "180314.694000", "180314.696000", "180334.619000", "180334.622000", "180334.625000", "180334.628000", "180334.631000", "180334.634000", "180334.637000", "180334.640000", "180334.643000", "180334.646000", "180334.649000", "180334.652000", "180334.654000", "180414.619000", "180414.622000", "180414.625000", "180414.628000", "180414.631000", "180414.634000", "180414.637000", "180414.640000", "180414.643000", "180414.653000", "180414.656000", "180414.659000", "180414.662000", "180414.665000", "180414.668000", "180414.671000", "180414.674000", "180414.677000", "180414.680000", "180414.683000", "180414.686000", "180414.689000", "180414.692000", "180414.695000", "180414.698000", "180414.701000", "180414.704000", "180454.619000", "180454.622000", "180454.625000", "180454.628000", "180454.631000", "180454.634000", "180454.637000", "180454.640000", "180454.643000", "180454.646000", "180454.649000", "180454.652000", "180454.655000", "180454.658000", "180454.661000", "180454.664000", "180454.667000", "180454.670000", "180454.673000", "180454.676000", "180454.679000", "180454.682000", "180454.685000", "180454.688000", "180454.690000", "180454.693000", "180454.696000", "180534.619000", "180534.622000", "180534.625000", "180534.628000", "180534.631000", "180534.634000", "180534.637000", "180534.640000", "180534.643000", "180534.646000", "180534.649000", "180534.652000", "180534.654000", "180534.657000", "180534.660000", "180534.663000", "180534.666000", "180534.669000", "180534.672000", "180534.675000", "180534.678000", "180534.681000", "180534.684000", "180534.687000", "180534.690000", "180534.693000", "180534.696000", "180614.619000", "180614.622000", "180614.625000", "180614.628000", "180614.631000", "180614.634000", "180614.637000", "180614.640000", "180614.643000", "180614.646000", "180614.649000", "180614.652000", "180614.654000", "180614.657000", "180614.660000", "180614.663000", "180614.666000", "180614.669000", "180614.672000", "180614.675000", "180614.678000", "180614.681000", "180614.684000", "180614.687000", "180614.689000", "180614.692000", "180614.695000", "180654.618000", "180654.621000", "180654.624000", "180654.627000", "180654.630000", "180654.643000", "180654.646000", "180654.649000", "180654.652000", "180654.655000", "180654.658000", "180654.661000", "180654.664000", "180654.667000", "180654.670000", "180654.673000", "180654.676000", "180654.678000", "180654.681000", "180654.685000", "180654.687000", "180654.690000", "180654.693000", "180654.696000", "180654.699000", "180654.702000", "180654.705000", "180734.619000", "180734.622000", "180734.625000", "180734.628000", "180734.631000", "180734.634000", "180734.637000", "180734.640000", "180734.643000", "180734.646000", "180734.649000", "180734.652000", "180734.655000", "180734.657000", "180734.660000", "180734.663000", "180734.666000", "180734.669000", "180734.672000", "180734.675000", "180734.679000", "180734.682000", "180734.685000", "180734.688000", "180734.691000", "180734.694000", "180814.619000", "180814.622000", "180814.625000", "180814.628000", "180814.631000", "180814.634000", "180814.637000", "180814.640000", "180814.643000", "180814.646000", "180814.649000", "180814.652000", "180814.655000", "180814.657000", "180814.660000", "180814.663000", "180814.666000", "180814.669000", "180814.672000", "180814.675000", "180814.678000", "180814.681000", "180814.684000", "180814.687000", "180814.690000", "180814.693000", "180814.696000", "180854.619000", "180854.622000", "180854.625000", "180854.628000", "180854.631000", "180854.634000", "180854.637000", "180854.640000", "180854.643000", "180854.646000", "180854.649000", "180854.652000", "180854.655000", "180854.658000", "180854.661000", "180854.664000", "180854.666000", "180854.669000", "180854.672000", "180854.675000", "180854.678000", "180854.681000", "180854.684000", "180854.687000", "180854.690000", "180854.693000", "180854.696000", "180934.619000", "180934.622000", "180934.625000", "180934.628000", "180934.631000", "180934.634000", "180934.637000", "180934.640000", "180934.643000", "180934.646000", "180934.649000", "180934.652000", "180934.655000", "180934.658000", "180934.661000", "180934.664000", "180934.667000", "180934.669000", "180934.672000", "180934.675000", "180934.678000", "180934.682000", "180934.685000", "180934.688000", "180934.691000", "180934.694000", "180934.697000", "180953.424000", "180953.427000", "180953.430000", "180953.433000", "180953.436000", "180953.439000", "180953.442000", "180953.445000", "180953.448000", "180953.451000", "180953.455000", "180953.458000", "180953.462000"],
