{
  "AcquisitionMatrixPE": 104,
  "AcquisitionNumber": 1,
  "AcquisitionTime": "17:44:2.357500",
  "BandwidthPerPixelPhaseEncode": 17.17,
  "BaseResolution": 104,
  "BodyPartExamined": "BRAIN",
  "CoilCombinationMethod": "Sum of Squares",
  "ConsistencyInfo": "N4_VE11C_LATEST_20160120",
  "ConversionSoftware": "dcm2niix",
  "ConversionSoftwareVersion": "v1.0.20211006",
  "DerivedVendorReportedEchoSpacing": 0.000560011,
  "DeviceSerialNumber": "167006",
  "DwellTime": 2.1e-06,
  "EchoTime": 0.037,
  "EchoTrainLength": 104,
  "EffectiveEchoSpacing": 0.000560011,
  "FlipAngle": 52,
  "HeudiconvVersion": "0.5.3.post569+g418601f",
  "ImageComments": "Unaliased MB4/PE3/LB",
  "ImageOrientationPatientDICOM": [0.999697, -0.0241785, -0.00464481, 0.0202425, 0.914556, -0.403953],
  "ImageOrientationText": "Tra>Cor(-23.8)>Sag(-0.8)",
  "ImageType": [
    "ORIGINAL",
    "PRIMARY",
    "M",
    "MB",
    "ND",
    "MOSAIC"
],
  "ImagingFrequency": 123.259,
  "InPlanePhaseEncodingDirectionDICOM": "COL",
  "InstitutionAddress": "Chemin Queen-Mary 4565,Montreal,District,CA,H3W 1W5",
  "InstitutionName": "IUGM",
  "InstitutionalDepartmentName": "Department",
  "MRAcquisitionType": "2D",
  "MagneticFieldStrength": 3,
  "Manufacturer": "Siemens",
  "ManufacturersModelName": "Prisma_fit",
  "MatrixCoilMode": "SENSE",
  "Modality": "MR",
  "MultibandAccelerationFactor": 4,
  "PartialFourier": 1,
  "PatientPosition": "HFS",
  "PercentPhaseFOV": 100,
  "PercentSampling": 100,
  "PhaseEncodingDirection": "j",
  "PhaseEncodingSteps": 104,
  "PhaseResolution": 1,
  "PixelBandwidth": 2290,
  "ProcedureStepDescription": "video^friends",
  "ProtocolName": "func_task-friends-s05e09b",
  "PulseSequenceDetails": "%CustomerSeq%\\cmrr_mbep2d_bold",
  "ReceiveCoilActiveElements": "HC1-7;NC1,2",
  "ReceiveCoilName": "HeadNeck_64",
  "ReconMatrixPE": 104,
  "RepetitionTime": 1.49,
  "SAR": 0.049091,
  "ScanOptions": "FS",
  "ScanningSequence": "EP",
  "SequenceName": "epfid2d1_104",
  "SequenceVariant": "SK\\SS",
  "SeriesDescription": "func_task-friends-s05e09b",
  "SeriesNumber": 11,
  "ShimSetting": [615, -7261, -8838, 381, 13, -384, 34, 15],
  "SliceThickness": 2,
  "SliceTiming": [0, 0.7825, 0.0975, 0.88, 0.195, 0.98, 0.2925, 1.0775, 0.3925, 1.175, 0.49, 1.2725, 0.5875, 1.37, 0.685, 0, 0.7825, 0.0975, 0.88, 0.195, 0.98, 0.2925, 1.0775, 0.3925, 1.175, 0.49, 1.2725, 0.5875, 1.37, 0.685, 0, 0.7825, 0.0975, 0.88, 0.195, 0.98, 0.2925, 1.0775, 0.3925, 1.175, 0.49, 1.2725, 0.5875, 1.37, 0.685, 0, 0.7825, 0.0975, 0.88, 0.195, 0.98, 0.2925, 1.0775, 0.3925, 1.175, 0.49, 1.2725, 0.5875, 1.37, 0.685],
  "SoftwareVersions": "syngo MR E11",
  "SpacingBetweenSlices": 2,
  "StationName": "MRC35049",
  "TaskName": "s05e09b",
  "TotalReadoutTime": 0.0576811,
  "TxRefAmp": 265.233,
  "WipMemBlock": "e59164a9-7eb5-471f-a0d6-a7161d8ed0cd||Sequence: R016 ve11c/master r/e634e98; Dec 19 2017 11:00:25 by eja",
  "dcmmeta_affine": [
    [-1.9993937015533447, 0.04048492759466171, -0.02802983857691288, 98.36537170410156],
    [0.048357050865888596, 1.8291115760803223, -0.8074727654457092, -69.43266296386719],
    [-0.009289612993597984, 0.8079056739807129, 1.8295360803604126, -70.30330657958984],
    [0.0, 0.0, 0.0, 1.0]
],
  "dcmmeta_reorient_transform": [
    [0.0, -1.0, 0.0, 103.0],
    [1.0, 0.0, 0.0, 0.0],
    [0.0, 0.0, 1.0, 0.0],
    [0.0, 0.0, 0.0, 1.0]
],
  "dcmmeta_shape": [104, 104, 60, 490],
  "dcmmeta_slice_dim": 2,
  "dcmmeta_version": 0.6,
  "global": {
    "const": {
      "AcquisitionMatrix": [104, 0, 0, 104],
      "AngioFlag": "N",
      "BitsAllocated": 16,
      "BitsStored": 16,
      "BodyPartExamined": "BRAIN",
      "Columns": 832,
      "EchoNumbers": 1,
      "EchoTime": 37.0,
      "EchoTrainLength": 104,
      "FlipAngle": 52.0,
      "HighBit": 15,
      "ImageOrientationPatient": [0.99969686640762, -0.0241785249453, -0.0046448063756, 0.0202424640452, 0.91455581656264, -0.4039528450708],
      "ImagePositionPatient": [-845.05114946644, -767.16050284758, 310.37006843693],
      "ImageType": [
        "ORIGINAL",
        "PRIMARY",
        "M",
        "MB",
        "ND",
        "MOSAIC"
],
      "ImagedNucleus": "1H",
      "ImagingFrequency": 123.258847,
      "InPlanePhaseEncodingDirection": "COL",
      "MRAcquisitionType": "2D",
      "MagneticFieldStrength": 3.0,
      "Manufacturer": "SIEMENS",
      "ManufacturerModelName": "Prisma_fit",
      "Modality": "MR",
      "NumberOfAverages": 1.0,
      "NumberOfPhaseEncodingSteps": 104,
      "PercentPhaseFieldOfView": 100.0,
      "PercentSampling": 100.0,
      "PerformedProcedureStepStartTime": "172637.057000",
      "PhotometricInterpretation": "MONOCHROME2",
      "PixelBandwidth": 2290.0,
      "PixelRepresentation": 0,
      "PixelSpacing": [2.0, 2.0],
      "ProtocolName": "func_task-friends-s05e09b",
      "RepetitionTime": 1490.0,
      "Rows": 832,
      "SAR": 0.04909097141569,
      "SamplesPerPixel": 1,
      "ScanOptions": "FS",
      "ScanningSequence": "EP",
      "SequenceName": "epfid2d1_104",
      "SequenceVariant": [
        "SK",
        "SS"
],
      "SeriesDescription": "func_task-friends-s05e09b",
      "SeriesNumber": 11,
      "SeriesTime": "174514.024000",
      "SliceLocation": -37.65730853575,
      "SliceThickness": 2.0,
      "SmallestImagePixelValue": 0,
      "SoftwareVersions": "syngo MR E11",
      "SpacingBetweenSlices": 2.0000000328419,
      "SpecificCharacterSet": "ISO_IR 100",
      "StudyID": "1",
      "StudyTime": "172636.933000",
      "TransmitCoilName": "Body",
      "VariableFlipAngleFlag": "N",
      "WindowCenterWidthExplanation": "Algo1",
      "dBdt": 0.0},
    "slices": {}
  },
  "time": {
    "samples": {
      "AcquisitionNumber": [1, 2, 3, 4, 5, 6, 7, 8, 9, 10, 11, 12, 13, 14, 15, 16, 17, 18, 19, 20, 21, 22, 23, 24, 25, 26, 27, 28, 29, 30, 31, 32, 33, 34, 35, 36, 37, 38, 39, 40, 41, 42, 43, 44, 45, 46, 47, 48, 49, 50, 51, 52, 53, 54, 55, 56, 57, 58, 59, 60, 61, 62, 63, 64, 65, 66, 67, 68, 69, 70, 71, 72, 73, 74, 75, 76, 77, 78, 79, 80, 81, 82, 83, 84, 85, 86, 87, 88, 89, 90, 91, 92, 93, 94, 95, 96, 97, 98, 99, 100, 101, 102, 103, 104, 105, 106, 107, 108, 109, 110, 111, 112, 113, 114, 115, 116, 117, 118, 119, 120, 121, 122, 123, 124, 125, 126, 127, 128, 129, 130, 131, 132, 133, 134, 135, 136, 137, 138, 139, 140, 141, 142, 143, 144, 145, 146, 147, 148, 149, 150, 151, 152, 153, 154, 155, 156, 157, 158, 159, 160, 161, 162, 163, 164, 165, 166, 167, 168, 169, 170, 171, 172, 173, 174, 175, 176, 177, 178, 179, 180, 181, 182, 183, 184, 185, 186, 187, 188, 189, 190, 191, 192, 193, 194, 195, 196, 197, 198, 199, 200, 201, 202, 203, 204, 205, 206, 207, 208, 209, 210, 211, 212, 213, 214, 215, 216, 217, 218, 219, 220, 221, 222, 223, 224, 225, 226, 227, 228, 229, 230, 231, 232, 233, 234, 235, 236, 237, 238, 239, 240, 241, 242, 243, 244, 245, 246, 247, 248, 249, 250, 251, 252, 253, 254, 255, 256, 257, 258, 259, 260, 261, 262, 263, 264, 265, 266, 267, 268, 269, 270, 271, 272, 273, 274, 275, 276, 277, 278, 279, 280, 281, 282, 283, 284, 285, 286, 287, 288, 289, 290, 291, 292, 293, 294, 295, 296, 297, 298, 299, 300, 301, 302, 303, 304, 305, 306, 307, 308, 309, 310, 311, 312, 313, 314, 315, 316, 317, 318, 319, 320, 321, 322, 323, 324, 325, 326, 327, 328, 329, 330, 331, 332, 333, 334, 335, 336, 337, 338, 339, 340, 341, 342, 343, 344, 345, 346, 347, 348, 349, 350, 351, 352, 353, 354, 355, 356, 357, 358, 359, 360, 361, 362, 363, 364, 365, 366, 367, 368, 369, 370, 371, 372, 373, 374, 375, 376, 377, 378, 379, 380, 381, 382, 383, 384, 385, 386, 387, 388, 389, 390, 391, 392, 393, 394, 395, 396, 397, 398, 399, 400, 401, 402, 403, 404, 405, 406, 407, 408, 409, 410, 411, 412, 413, 414, 415, 416, 417, 418, 419, 420, 421, 422, 423, 424, 425, 426, 427, 428, 429, 430, 431, 432, 433, 434, 435, 436, 437, 438, 439, 440, 441, 442, 443, 444, 445, 446, 447, 448, 449, 450, 451, 452, 453, 454, 455, 456, 457, 458, 459, 460, 461, 462, 463, 464, 465, 466, 467, 468, 469, 470, 471, 472, 473, 474, 475, 476, 477, 478, 479, 480, 481, 482, 483, 484, 485, 486, 487, 488, 489, 490],
      "AcquisitionTime": ["174402.357500", "174403.847500", "174405.337500", "174406.827500", "174408.317500", "174409.807500", "174411.297500", "174412.787500", "174414.277500", "174415.767500", "174417.257500", "174418.747500", "174420.237500", "174421.727500", "174423.217500", "174424.707500", "174426.197500", "174427.687500", "174429.177500", "174430.667500", "174432.157500", "174433.647500", "174435.137500", "174436.627500", "174438.117500", "174439.607500", "174441.097500", "174442.587500", "174444.077500", "174445.567500", "174447.057500", "174448.547500", "174450.037500", "174451.527500", "174453.017500", "174454.507500", "174455.997500", "174457.487500", "174458.977500", "174500.467500", "174501.957500", "174503.447500", "174504.937500", "174506.427500", "174507.917500", "174509.407500", "174510.897500", "174512.387500", "174513.877500", "174515.367500", "174516.857500", "174518.347500", "174519.837500", "174521.327500", "174522.817500", "174524.307500", "174525.797500", "174527.287500", "174528.777500", "174530.267500", "174531.757500", "174533.247500", "174534.737500", "174536.227500", "174537.717500", "174539.207500", "174540.697500", "174542.187500", "174543.677500", "174545.167500", "174546.657500", "174548.147500", "174549.637500", "174551.127500", "174552.617500", "174554.107500", "174555.597500", "174557.087500", "174558.577500", "174600.067500", "174601.557500", "174603.047500", "174604.537500", "174606.027500", "174607.517500", "174609.007500", "174610.497500", "174611.987500", "174613.477500", "174614.967500", "174616.457500", "174617.947500", "174619.437500", "174620.927500", "174622.417500", "174623.907500", "174625.397500", "174626.887500", "174628.377500", "174629.867500", "174631.357500", "174632.847500", "174634.337500", "174635.827500", "174637.317500", "174638.807500", "174640.297500", "174641.787500", "174643.277500", "174644.767500", "174646.257500", "174647.747500", "174649.237500", "174650.727500", "174652.217500", "174653.707500", "174655.197500", "174656.687500", "174658.177500", "174659.667500", "174701.157500", "174702.647500", "174704.137500", "174705.627500", "174707.117500", "174708.607500", "174710.097500", "174711.587500", "174713.077500", "174714.567500", "174716.057500", "174717.547500", "174719.037500", "174720.527500", "174722.017500", "174723.507500", "174724.997500", "174726.487500", "174727.977500", "174729.467500", "174730.957500", "174732.447500", "174733.937500", "174735.427500", "174736.917500", "174738.407500", "174739.897500", "174741.387500", "174742.877500", "174744.367500", "174745.857500", "174747.347500", "174748.837500", "174750.327500", "174751.817500", "174753.307500", "174754.797500", "174756.287500", "174757.777500", "174759.267500", "174800.757500", "174802.247500", "174803.737500", "174805.227500", "174806.717500", "174808.207500", "174809.697500", "174811.187500", "174812.677500", "174814.167500", "174815.657500", "174817.147500", "174818.637500", "174820.127500", "174821.617500", "174823.107500", "174824.597500", "174826.087500", "174827.577500", "174829.067500", "174830.557500", "174832.047500", "174833.537500", "174835.027500", "174836.517500", "174838.007500", "174839.497500", "174840.987500", "174842.477500", "174843.967500", "174845.457500", "174846.947500", "174848.437500", "174849.927500", "174851.417500", "174852.907500", "174854.397500", "174855.887500", "174857.377500", "174858.867500", "174900.357500", "174901.847500", "174903.337500", "174904.827500", "174906.317500", "174907.807500", "174909.297500", "174910.787500", "174912.277500", "174913.767500", "174915.257500", "174916.747500", "174918.237500", "174919.727500", "174921.217500", "174922.707500", "174924.197500", "174925.687500", "174927.177500", "174928.667500", "174930.157500", "174931.647500", "174933.137500", "174934.627500", "174936.117500", "174937.607500", "174939.097500", "174940.587500", "174942.077500", "174943.567500", "174945.057500", "174946.547500", "174948.037500", "174949.527500", "174951.017500", "174952.507500", "174953.997500", "174955.487500", "174956.977500", "174958.467500", "174959.957500", "175001.447500", "175002.937500", "175004.427500", "175005.917500", "175007.407500", "175008.897500", "175010.387500", "175011.877500", "175013.367500", "175014.857500", "175016.347500", "175017.837500", "175019.327500", "175020.817500", "175022.307500", "175023.797500", "175025.287500", "175026.777500", "175028.267500", "175029.757500", "175031.247500", "175032.737500", "175034.227500", "175035.717500", "175037.207500", "175038.697500", "175040.187500", "175041.677500", "175043.167500", "175044.657500", "175046.147500", "175047.637500", "175049.127500", "175050.617500", "175052.107500", "175053.597500", "175055.087500", "175056.577500", "175058.067500", "175059.557500", "175101.047500", "175102.537500", "175104.027500", "175105.517500", "175107.007500", "175108.497500", "175109.987500", "175111.477500", "175112.967500", "175114.457500", "175115.947500", "175117.437500", "175118.927500", "175120.417500", "175121.907500", "175123.397500", "175124.887500", "175126.377500", "175127.867500", "175129.357500", "175130.847500", "175132.337500", "175133.827500", "175135.317500", "175136.807500", "175138.297500", "175139.787500", "175141.277500", "175142.767500", "175144.257500", "175145.747500", "175147.237500", "175148.727500", "175150.217500", "175151.707500", "175153.197500", "175154.687500", "175156.177500", "175157.667500", "175159.157500", "175200.647500", "175202.137500", "175203.627500", "175205.117500", "175206.607500", "175208.097500", "175209.587500", "175211.077500", "175212.567500", "175214.057500", "175215.547500", "175217.037500", "175218.527500", "175220.017500", "175221.507500", "175222.997500", "175224.487500", "175225.977500", "175227.467500", "175228.957500", "175230.447500", "175231.937500", "175233.427500", "175234.917500", "175236.407500", "175237.897500", "175239.387500", "175240.877500", "175242.367500", "175243.857500", "175245.347500", "175246.837500", "175248.327500", "175249.817500", "175251.307500", "175252.797500", "175254.287500", "175255.777500", "175257.267500", "175258.757500", "175300.247500", "175301.737500", "175303.227500", "175304.717500", "175306.207500", "175307.697500", "175309.187500", "175310.677500", "175312.167500", "175313.657500", "175315.147500", "175316.637500", "175318.127500", "175319.617500", "175321.107500", "175322.597500", "175324.087500", "175325.577500", "175327.067500", "175328.557500", "175330.047500", "175331.537500", "175333.027500", "175334.517500", "175336.007500", "175337.497500", "175338.987500", "175340.477500", "175341.967500", "175343.457500", "175344.947500", "175346.437500", "175347.927500", "175349.417500", "175350.907500", "175352.397500", "175353.887500", "175355.377500", "175356.867500", "175358.357500", "175359.847500", "175401.337500", "175402.827500", "175404.317500", "175405.807500", "175407.297500", "175408.787500", "175410.277500", "175411.767500", "175413.257500", "175414.747500", "175416.237500", "175417.727500", "175419.217500", "175420.707500", "175422.197500", "175423.687500", "175425.177500", "175426.667500", "175428.157500", "175429.647500", "175431.137500", "175432.627500", "175434.117500", "175435.607500", "175437.097500", "175438.587500", "175440.077500", "175441.567500", "175443.057500", "175444.547500", "175446.037500", "175447.527500", "175449.017500", "175450.507500", "175451.997500", "175453.487500", "175454.977500", "175456.467500", "175457.957500", "175459.447500", "175500.937500", "175502.427500", "175503.917500", "175505.407500", "175506.897500", "175508.387500", "175509.877500", "175511.367500", "175512.857500", "175514.347500", "175515.837500", "175517.327500", "175518.817500", "175520.307500", "175521.797500", "175523.287500", "175524.777500", "175526.267500", "175527.757500", "175529.247500", "175530.737500", "175532.227500", "175533.717500", "175535.207500", "175536.697500", "175538.187500", "175539.677500", "175541.167500", "175542.657500", "175544.147500", "175545.637500", "175547.127500", "175548.617500", "175550.107500", "175551.597500", "175553.087500", "175554.577500", "175556.067500", "175557.557500", "175559.047500", "175600.537500", "175602.027500", "175603.517500", "175605.007500", "175606.497500", "175607.987500", "175609.477500", "175610.967500"],
      "ContentTime": ["174514.027000", "174514.030000", "174514.033000", "174514.036000", "174514.039000", "174514.042000", "174514.045000", "174514.048000", "174514.051000", "174514.054000", "174514.057000", "174514.060000", "174514.063000", "174514.066000", "174514.068000", "174514.071000", "174514.074000", "174514.077000", "174533.993000", "174533.996000", "174534.000000", "174534.003000", "174534.006000", "174534.009000", "174534.012000", "174534.015000", "174534.017000", "174534.020000", "174534.023000", "174534.026000", "174534.029000", "174534.032000", "174534.035000", "174534.038000", "174534.041000", "174534.044000", "174534.047000", "174534.049000", "174553.993000", "174554.012000", "174554.015000", "174554.018000", "174554.021000", "174554.023000", "174554.026000", "174554.029000", "174554.032000", "174554.035000", "174554.038000", "174554.041000", "174554.044000", "174554.047000", "174554.050000", "174554.064000", "174554.067000", "174554.069000", "174554.072000", "174554.075000", "174613.993000", "174613.996000", "174614.000000", "174614.003000", "174614.006000", "174614.009000", "174614.011000", "174614.014000", "174614.017000", "174614.020000", "174614.023000", "174614.026000", "174614.029000", "174614.032000", "174614.035000", "174614.038000", "174614.040000", "174614.043000", "174614.046000", "174614.049000", "174614.052000", "174633.994000", "174633.997000", "174634.001000", "174634.004000", "174634.006000", "174634.009000", "174634.012000", "174634.015000", "174634.018000", "174634.021000", "174634.024000", "174634.027000", "174634.030000", "174634.033000", "174634.036000", "174634.039000", "174634.041000", "174634.044000", "174634.047000", "174634.050000", "174713.994000", "174713.997000", "174714.001000", "174714.005000", "174714.008000", "174714.011000", "174714.014000", "174714.017000", "174714.029000", "174714.032000", "174714.035000", "174714.038000", "174714.041000", "174714.044000", "174714.047000", "174714.051000", "174714.054000", "174714.057000", "174714.061000", "174714.064000", "174714.067000", "174714.071000", "174714.074000", "174714.077000", "174714.079000", "174714.082000", "174714.085000", "174714.088000", "174753.993000", "174753.996000", "174754.000000", "174754.003000", "174754.006000", "174754.009000", "174754.011000", "174754.014000", "174754.017000", "174754.020000", "174754.023000", "174754.026000", "174754.029000", "174754.032000", "174754.035000", "174754.038000", "174754.041000", "174754.044000", "174754.047000", "174754.050000", "174754.053000", "174754.055000", "174754.058000", "174754.061000", "174754.064000", "174754.067000", "174754.070000", "174833.993000", "174833.996000", "174834.000000", "174834.003000", "174834.006000", "174834.009000", "174834.012000", "174834.015000", "174834.018000", "174834.021000", "174834.024000", "174834.027000", "174834.030000", "174834.033000", "174834.036000", "174834.038000", "174834.041000", "174834.044000", "174834.047000", "174834.050000", "174834.053000", "174834.056000", "174834.059000", "174834.062000", "174834.065000", "174834.068000", "174834.070000", "174913.994000", "174913.997000", "174914.000000", "174914.003000", "174914.006000", "174914.009000", "174914.012000", "174914.015000", "174914.018000", "174914.021000", "174914.023000", "174914.026000", "174914.029000", "174914.032000", "174914.035000", "174914.038000", "174914.041000", "174914.044000", "174914.047000", "174914.050000", "174914.053000", "174914.056000", "174914.059000", "174914.062000", "174914.065000", "174914.068000", "174914.071000", "174953.994000", "174953.997000", "174954.001000", "174954.004000", "174954.007000", "174954.010000", "174954.013000", "174954.016000", "174954.019000", "174954.022000", "174954.024000", "174954.027000", "174954.030000", "174954.033000", "174954.036000", "174954.039000", "174954.042000", "174954.045000", "174954.048000", "174954.051000", "174954.054000", "174954.057000", "174954.060000", "174954.063000", "174954.066000", "174954.069000", "174954.071000", "175033.993000", "175033.996000", "175034.000000", "175034.003000", "175034.006000", "175034.009000", "175034.012000", "175034.015000", "175034.018000", "175034.021000", "175034.024000", "175034.026000", "175034.029000", "175034.032000", "175034.035000", "175034.038000", "175034.041000", "175034.044000", "175034.047000", "175034.050000", "175034.053000", "175034.062000", "175034.065000", "175034.068000", "175034.071000", "175034.073000", "175034.076000", "175113.994000", "175113.997000", "175114.001000", "175114.004000", "175114.007000", "175114.010000", "175114.013000", "175114.016000", "175114.019000", "175114.022000", "175114.024000", "175114.027000", "175114.030000", "175114.033000", "175114.036000", "175114.039000", "175114.042000", "175114.045000", "175114.048000", "175114.051000", "175114.054000", "175114.057000", "175114.060000", "175114.062000", "175114.065000", "175114.068000", "175114.071000", "175153.994000", "175153.997000", "175154.001000", "175154.004000", "175154.007000", "175154.010000", "175154.013000", "175154.016000", "175154.019000", "175154.022000", "175154.025000", "175154.028000", "175154.031000", "175154.033000", "175154.036000", "175154.039000", "175154.042000", "175154.045000", "175154.049000", "175154.053000", "175154.055000", "175154.058000", "175154.061000", "175154.064000", "175154.067000", "175154.070000", "175233.993000", "175233.996000", "175234.000000", "175234.003000", "175234.006000", "175234.009000", "175234.012000", "175234.015000", "175234.018000", "175234.021000", "175234.024000", "175234.027000", "175234.030000", "175234.032000", "175234.035000", "175234.038000", "175234.041000", "175234.044000", "175234.047000", "175234.050000", "175234.053000", "175234.056000", "175234.059000", "175234.062000", "175234.065000", "175234.068000", "175234.071000", "175313.993000", "175313.996000", "175314.000000", "175314.003000", "175314.006000", "175314.009000", "175314.012000", "175314.015000", "175314.018000", "175314.021000", "175314.023000", "175314.026000", "175314.029000", "175314.032000", "175314.035000", "175314.038000", "175314.041000", "175314.044000", "175314.047000", "175314.050000", "175314.053000", "175314.056000", "175314.059000", "175314.062000", "175314.065000", "175314.068000", "175314.071000", "175333.994000", "175333.997000", "175334.001000", "175334.004000", "175334.008000", "175334.011000", "175334.014000", "175334.017000", "175334.020000", "175334.023000", "175334.026000", "175334.029000", "175334.032000", "175413.994000", "175413.997000", "175414.001000", "175414.004000", "175414.007000", "175414.010000", "175414.013000", "175414.016000", "175414.019000", "175414.022000", "175414.025000", "175414.028000", "175414.031000", "175414.033000", "175414.036000", "175414.039000", "175414.042000", "175414.045000", "175414.048000", "175414.051000", "175414.054000", "175414.057000", "175414.067000", "175414.070000", "175414.072000", "175414.075000", "175414.078000", "175453.993000", "175453.996000", "175454.000000", "175454.003000", "175454.006000", "175454.009000", "175454.025000", "175454.028000", "175454.030000", "175454.033000", "175454.036000", "175454.039000", "175454.042000", "175454.045000", "175454.048000", "175454.051000", "175454.054000", "175454.057000", "175454.060000", "175454.063000", "175454.066000", "175454.069000", "175454.072000", "175454.074000", "175454.077000", "175454.080000", "175454.083000", "175533.993000", "175533.996000", "175534.000000", "175534.003000", "175534.006000", "175534.009000", "175534.012000", "175534.015000", "175534.017000", "175534.020000", "175534.023000", "175534.026000", "175534.029000", "175534.032000", "175534.035000", "175534.038000", "175534.041000", "175534.044000", "175534.046000", "175534.049000", "175534.052000", "175534.055000", "175534.058000", "175534.061000", "175534.064000", "175534.067000", "175534.070000", "175613.482000", "175613.485000", "175613.488000", "175613.491000", "175613.494000", "175613.497000", "175613.500000", "175613.503000", "175613.506000", "175613.509000", "175613.513000", "175613.516000", "175613.519000", "175613.522000", "175613.525000", "175613.528000", "175613.531000", "175613.534000", "175613.537000", "175613.540000", "175613.543000", "175613.546000", "175613.549000", "175613.552000", "175613.555000", "175613.558000", "175613.561000"],
