{
  "AcquisitionMatrixPE": 104,
  "AcquisitionNumber": 1,
  "AcquisitionTime": "18:44:20.065000",
  "BandwidthPerPixelPhaseEncode": 17.17,
  "BaseResolution": 104,
  "BodyPartExamined": "BRAIN",
  "CoilCombinationMethod": "Sum of Squares",
  "ConsistencyInfo": "N4_VE11C_LATEST_20160120",
  "ConversionSoftware": "dcm2niix",
  "ConversionSoftwareVersion": "v1.0.20211006",
  "DerivedVendorReportedEchoSpacing": 0.000560011,
  "DeviceSerialNumber": "167006",
  "DwellTime": 2.1e-06,
  "EchoTime": 0.037,
  "EchoTrainLength": 104,
  "EffectiveEchoSpacing": 0.000560011,
  "FlipAngle": 52,
  "HeudiconvVersion": "0.5.3.post569+g418601f",
  "ImageComments": "Unaliased MB4/PE3/LB",
  "ImageOrientationPatientDICOM": [0.999697, -0.0241785, -0.00464481, 0.0202425, 0.914556, -0.403953],
  "ImageOrientationText": "Tra>Cor(-23.8)>Sag(-0.8)",
  "ImageType": [
    "ORIGINAL",
    "PRIMARY",
    "M",
    "MB",
    "ND",
    "MOSAIC"
],
  "ImagingFrequency": 123.259,
  "InPlanePhaseEncodingDirectionDICOM": "COL",
  "InstitutionAddress": "Chemin Queen-Mary 4565,Montreal,District,CA,H3W 1W5",
  "InstitutionName": "IUGM",
  "InstitutionalDepartmentName": "Department",
  "MRAcquisitionType": "2D",
  "MagneticFieldStrength": 3,
  "Manufacturer": "Siemens",
  "ManufacturersModelName": "Prisma_fit",
  "MatrixCoilMode": "SENSE",
  "Modality": "MR",
  "MultibandAccelerationFactor": 4,
  "PartialFourier": 1,
  "PatientPosition": "HFS",
  "PercentPhaseFOV": 100,
  "PercentSampling": 100,
  "PhaseEncodingDirection": "j",
  "PhaseEncodingSteps": 104,
  "PhaseResolution": 1,
  "PixelBandwidth": 2290,
  "ProcedureStepDescription": "video^friends",
  "ProtocolName": "func_task-friends-s05e11b",
  "PulseSequenceDetails": "%CustomerSeq%\\cmrr_mbep2d_bold",
  "ReceiveCoilActiveElements": "HC1-7;NC1,2",
  "ReceiveCoilName": "HeadNeck_64",
  "ReconMatrixPE": 104,
  "RepetitionTime": 1.49,
  "SAR": 0.0490991,
  "ScanOptions": "FS",
  "ScanningSequence": "EP",
  "SequenceName": "epfid2d1_104",
  "SequenceVariant": "SK\\SS",
  "SeriesDescription": "func_task-friends-s05e11b",
  "SeriesNumber": 19,
  "ShimSetting": [615, -7261, -8838, 381, 13, -384, 34, 15],
  "SliceThickness": 2,
  "SliceTiming": [0, 0.7825, 0.0975, 0.8825, 0.195, 0.98, 0.2925, 1.0775, 0.3925, 1.175, 0.49, 1.2725, 0.5875, 1.3725, 0.685, 0, 0.7825, 0.0975, 0.8825, 0.195, 0.98, 0.2925, 1.0775, 0.3925, 1.175, 0.49, 1.2725, 0.5875, 1.3725, 0.685, 0, 0.7825, 0.0975, 0.8825, 0.195, 0.98, 0.2925, 1.0775, 0.3925, 1.175, 0.49, 1.2725, 0.5875, 1.3725, 0.685, 0, 0.7825, 0.0975, 0.8825, 0.195, 0.98, 0.2925, 1.0775, 0.3925, 1.175, 0.49, 1.2725, 0.5875, 1.3725, 0.685],
  "SoftwareVersions": "syngo MR E11",
  "SpacingBetweenSlices": 2,
  "StationName": "MRC35049",
  "TaskName": "s05e11b",
  "TotalReadoutTime": 0.0576811,
  "TxRefAmp": 265.233,
  "WipMemBlock": "0ad446f0-1046-45fa-bb55-33f8258e4209||Sequence: R016 ve11c/master r/e634e98; Dec 19 2017 11:00:25 by eja",
  "dcmmeta_affine": [
    [-1.9993937015533447, 0.04048492759466171, -0.02802983857691288, 98.36537170410156],
    [0.048357050865888596, 1.8291115760803223, -0.8074727654457092, -69.43266296386719],
    [-0.009289612993597984, 0.8079056739807129, 1.8295360803604126, -70.30330657958984],
    [0.0, 0.0, 0.0, 1.0]
],
  "dcmmeta_reorient_transform": [
    [0.0, -1.0, 0.0, 103.0],
    [1.0, 0.0, 0.0, 0.0],
    [0.0, 0.0, 1.0, 0.0],
    [0.0, 0.0, 0.0, 1.0]
],
  "dcmmeta_shape": [104, 104, 60, 511],
  "dcmmeta_slice_dim": 2,
  "dcmmeta_version": 0.6,
  "global": {
    "const": {
      "AcquisitionMatrix": [104, 0, 0, 104],
      "AngioFlag": "N",
      "BitsAllocated": 16,
      "BitsStored": 16,
      "BodyPartExamined": "BRAIN",
      "Columns": 832,
      "EchoNumbers": 1,
      "EchoTime": 37.0,
      "EchoTrainLength": 104,
      "FlipAngle": 52.0,
      "HighBit": 15,
      "ImageOrientationPatient": [0.99969686640762, -0.0241785249453, -0.0046448063756, 0.0202424640452, 0.91455581656264, -0.4039528450708],
      "ImagePositionPatient": [-845.05114946644, -767.16050284758, 310.37006843693],
      "ImageType": [
        "ORIGINAL",
        "PRIMARY",
        "M",
        "MB",
        "ND",
        "MOSAIC"
],
      "ImagedNucleus": "1H",
      "ImagingFrequency": 123.258851,
      "InPlanePhaseEncodingDirection": "COL",
      "MRAcquisitionType": "2D",
      "MagneticFieldStrength": 3.0,
      "Manufacturer": "SIEMENS",
      "ManufacturerModelName": "Prisma_fit",
      "Modality": "MR",
      "NumberOfAverages": 1.0,
      "NumberOfPhaseEncodingSteps": 104,
      "PercentPhaseFieldOfView": 100.0,
      "PercentSampling": 100.0,
      "PerformedProcedureStepStartTime": "172637.057000",
      "PhotometricInterpretation": "MONOCHROME2",
      "PixelBandwidth": 2290.0,
      "PixelRepresentation": 0,
      "PixelSpacing": [2.0, 2.0],
      "ProtocolName": "func_task-friends-s05e11b",
      "RepetitionTime": 1490.0,
      "Rows": 832,
      "SAR": 0.0490991224333,
      "SamplesPerPixel": 1,
      "ScanOptions": "FS",
      "ScanningSequence": "EP",
      "SequenceName": "epfid2d1_104",
      "SequenceVariant": [
        "SK",
        "SS"
],
      "SeriesDescription": "func_task-friends-s05e11b",
      "SeriesNumber": 19,
      "SeriesTime": "184534.618000",
      "SliceLocation": -37.65730853575,
      "SliceThickness": 2.0,
      "SmallestImagePixelValue": 0,
      "SoftwareVersions": "syngo MR E11",
      "SpacingBetweenSlices": 2.0000000328419,
      "SpecificCharacterSet": "ISO_IR 100",
      "StudyID": "1",
      "StudyTime": "172636.933000",
      "TransmitCoilName": "Body",
      "VariableFlipAngleFlag": "N",
      "WindowCenterWidthExplanation": "Algo1",
      "dBdt": 0.0},
    "slices": {}
  },
  "time": {
    "samples": {
      "AcquisitionNumber": [1, 2, 3, 4, 5, 6, 7, 8, 9, 10, 11, 12, 13, 14, 15, 16, 17, 18, 19, 20, 21, 22, 23, 24, 25, 26, 27, 28, 29, 30, 31, 32, 33, 34, 35, 36, 37, 38, 39, 40, 41, 42, 43, 44, 45, 46, 47, 48, 49, 50, 51, 52, 53, 54, 55, 56, 57, 58, 59, 60, 61, 62, 63, 64, 65, 66, 67, 68, 69, 70, 71, 72, 73, 74, 75, 76, 77, 78, 79, 80, 81, 82, 83, 84, 85, 86, 87, 88, 89, 90, 91, 92, 93, 94, 95, 96, 97, 98, 99, 100, 101, 102, 103, 104, 105, 106, 107, 108, 109, 110, 111, 112, 113, 114, 115, 116, 117, 118, 119, 120, 121, 122, 123, 124, 125, 126, 127, 128, 129, 130, 131, 132, 133, 134, 135, 136, 137, 138, 139, 140, 141, 142, 143, 144, 145, 146, 147, 148, 149, 150, 151, 152, 153, 154, 155, 156, 157, 158, 159, 160, 161, 162, 163, 164, 165, 166, 167, 168, 169, 170, 171, 172, 173, 174, 175, 176, 177, 178, 179, 180, 181, 182, 183, 184, 185, 186, 187, 188, 189, 190, 191, 192, 193, 194, 195, 196, 197, 198, 199, 200, 201, 202, 203, 204, 205, 206, 207, 208, 209, 210, 211, 212, 213, 214, 215, 216, 217, 218, 219, 220, 221, 222, 223, 224, 225, 226, 227, 228, 229, 230, 231, 232, 233, 234, 235, 236, 237, 238, 239, 240, 241, 242, 243, 244, 245, 246, 247, 248, 249, 250, 251, 252, 253, 254, 255, 256, 257, 258, 259, 260, 261, 262, 263, 264, 265, 266, 267, 268, 269, 270, 271, 272, 273, 274, 275, 276, 277, 278, 279, 280, 281, 282, 283, 284, 285, 286, 287, 288, 289, 290, 291, 292, 293, 294, 295, 296, 297, 298, 299, 300, 301, 302, 303, 304, 305, 306, 307, 308, 309, 310, 311, 312, 313, 314, 315, 316, 317, 318, 319, 320, 321, 322, 323, 324, 325, 326, 327, 328, 329, 330, 331, 332, 333, 334, 335, 336, 337, 338, 339, 340, 341, 342, 343, 344, 345, 346, 347, 348, 349, 350, 351, 352, 353, 354, 355, 356, 357, 358, 359, 360, 361, 362, 363, 364, 365, 366, 367, 368, 369, 370, 371, 372, 373, 374, 375, 376, 377, 378, 379, 380, 381, 382, 383, 384, 385, 386, 387, 388, 389, 390, 391, 392, 393, 394, 395, 396, 397, 398, 399, 400, 401, 402, 403, 404, 405, 406, 407, 408, 409, 410, 411, 412, 413, 414, 415, 416, 417, 418, 419, 420, 421, 422, 423, 424, 425, 426, 427, 428, 429, 430, 431, 432, 433, 434, 435, 436, 437, 438, 439, 440, 441, 442, 443, 444, 445, 446, 447, 448, 449, 450, 451, 452, 453, 454, 455, 456, 457, 458, 459, 460, 461, 462, 463, 464, 465, 466, 467, 468, 469, 470, 471, 472, 473, 474, 475, 476, 477, 478, 479, 480, 481, 482, 483, 484, 485, 486, 487, 488, 489, 490, 491, 492, 493, 494, 495, 496, 497, 498, 499, 500, 501, 502, 503, 504, 505, 506, 507, 508, 509, 510, 511],
      "AcquisitionTime": ["184420.065000", "184421.555000", "184423.045000", "184424.535000", "184426.025000", "184427.515000", "184429.005000", "184430.495000", "184431.985000", "184433.475000", "184434.965000", "184436.455000", "184437.945000", "184439.435000", "184440.925000", "184442.415000", "184443.905000", "184445.395000", "184446.885000", "184448.375000", "184449.865000", "184451.355000", "184452.845000", "184454.335000", "184455.825000", "184457.315000", "184458.805000", "184500.295000", "184501.785000", "184503.275000", "184504.765000", "184506.255000", "184507.745000", "184509.235000", "184510.725000", "184512.215000", "184513.705000", "184515.195000", "184516.685000", "184518.175000", "184519.665000", "184521.155000", "184522.645000", "184524.135000", "184525.625000", "184527.115000", "184528.605000", "184530.095000", "184531.585000", "184533.075000", "184534.565000", "184536.055000", "184537.545000", "184539.035000", "184540.525000", "184542.015000", "184543.505000", "184544.995000", "184546.485000", "184547.975000", "184549.465000", "184550.955000", "184552.445000", "184553.935000", "184555.425000", "184556.915000", "184558.405000", "184559.895000", "184601.385000", "184602.875000", "184604.365000", "184605.855000", "184607.345000", "184608.835000", "184610.325000", "184611.815000", "184613.305000", "184614.795000", "184616.285000", "184617.775000", "184619.265000", "184620.755000", "184622.245000", "184623.735000", "184625.225000", "184626.715000", "184628.205000", "184629.695000", "184631.185000", "184632.675000", "184634.165000", "184635.655000", "184637.145000", "184638.635000", "184640.125000", "184641.615000", "184643.105000", "184644.595000", "184646.085000", "184647.575000", "184649.065000", "184650.555000", "184652.045000", "184653.535000", "184655.025000", "184656.515000", "184658.005000", "184659.495000", "184700.985000", "184702.475000", "184703.965000", "184705.455000", "184706.945000", "184708.435000", "184709.925000", "184711.415000", "184712.905000", "184714.395000", "184715.885000", "184717.375000", "184718.865000", "184720.355000", "184721.845000", "184723.335000", "184724.825000", "184726.315000", "184727.805000", "184729.295000", "184730.785000", "184732.275000", "184733.765000", "184735.255000", "184736.745000", "184738.235000", "184739.725000", "184741.215000", "184742.705000", "184744.195000", "184745.685000", "184747.175000", "184748.665000", "184750.155000", "184751.645000", "184753.135000", "184754.625000", "184756.115000", "184757.605000", "184759.095000", "184800.585000", "184802.075000", "184803.565000", "184805.055000", "184806.545000", "184808.035000", "184809.525000", "184811.015000", "184812.505000", "184813.995000", "184815.485000", "184816.975000", "184818.465000", "184819.955000", "184821.445000", "184822.935000", "184824.425000", "184825.915000", "184827.405000", "184828.895000", "184830.385000", "184831.875000", "184833.365000", "184834.855000", "184836.345000", "184837.835000", "184839.325000", "184840.815000", "184842.305000", "184843.795000", "184845.285000", "184846.775000", "184848.265000", "184849.755000", "184851.245000", "184852.735000", "184854.225000", "184855.715000", "184857.205000", "184858.695000", "184900.185000", "184901.675000", "184903.165000", "184904.655000", "184906.145000", "184907.635000", "184909.125000", "184910.615000", "184912.105000", "184913.595000", "184915.085000", "184916.575000", "184918.065000", "184919.555000", "184921.045000", "184922.535000", "184924.025000", "184925.515000", "184927.005000", "184928.495000", "184929.985000", "184931.475000", "184932.965000", "184934.455000", "184935.945000", "184937.435000", "184938.925000", "184940.415000", "184941.905000", "184943.395000", "184944.885000", "184946.375000", "184947.865000", "184949.355000", "184950.845000", "184952.335000", "184953.825000", "184955.315000", "184956.805000", "184958.295000", "184959.785000", "185001.275000", "185002.765000", "185004.255000", "185005.745000", "185007.235000", "185008.725000", "185010.215000", "185011.705000", "185013.195000", "185014.685000", "185016.175000", "185017.665000", "185019.155000", "185020.645000", "185022.135000", "185023.625000", "185025.115000", "185026.605000", "185028.095000", "185029.585000", "185031.075000", "185032.565000", "185034.055000", "185035.545000", "185037.035000", "185038.525000", "185040.015000", "185041.505000", "185042.995000", "185044.485000", "185045.975000", "185047.465000", "185048.955000", "185050.445000", "185051.935000", "185053.425000", "185054.915000", "185056.405000", "185057.895000", "185059.385000", "185100.875000", "185102.365000", "185103.855000", "185105.345000", "185106.835000", "185108.325000", "185109.815000", "185111.305000", "185112.795000", "185114.285000", "185115.775000", "185117.265000", "185118.755000", "185120.245000", "185121.735000", "185123.225000", "185124.715000", "185126.205000", "185127.695000", "185129.185000", "185130.675000", "185132.165000", "185133.655000", "185135.145000", "185136.635000", "185138.125000", "185139.615000", "185141.105000", "185142.595000", "185144.085000", "185145.575000", "185147.065000", "185148.555000", "185150.045000", "185151.535000", "185153.025000", "185154.515000", "185156.005000", "185157.495000", "185158.985000", "185200.475000", "185201.965000", "185203.455000", "185204.945000", "185206.435000", "185207.925000", "185209.415000", "185210.905000", "185212.395000", "185213.885000", "185215.375000", "185216.865000", "185218.355000", "185219.845000", "185221.335000", "185222.825000", "185224.315000", "185225.805000", "185227.295000", "185228.785000", "185230.275000", "185231.765000", "185233.255000", "185234.745000", "185236.235000", "185237.725000", "185239.215000", "185240.705000", "185242.195000", "185243.685000", "185245.175000", "185246.665000", "185248.155000", "185249.645000", "185251.135000", "185252.625000", "185254.115000", "185255.605000", "185257.095000", "185258.585000", "185300.075000", "185301.565000", "185303.055000", "185304.545000", "185306.035000", "185307.525000", "185309.015000", "185310.505000", "185311.995000", "185313.485000", "185314.975000", "185316.465000", "185317.955000", "185319.445000", "185320.935000", "185322.425000", "185323.915000", "185325.405000", "185326.895000", "185328.385000", "185329.875000", "185331.365000", "185332.855000", "185334.345000", "185335.835000", "185337.325000", "185338.815000", "185340.305000", "185341.795000", "185343.285000", "185344.775000", "185346.265000", "185347.755000", "185349.245000", "185350.735000", "185352.225000", "185353.715000", "185355.205000", "185356.695000", "185358.185000", "185359.675000", "185401.165000", "185402.655000", "185404.145000", "185405.635000", "185407.125000", "185408.615000", "185410.105000", "185411.595000", "185413.085000", "185414.575000", "185416.065000", "185417.555000", "185419.045000", "185420.535000", "185422.025000", "185423.515000", "185425.005000", "185426.495000", "185427.985000", "185429.475000", "185430.965000", "185432.455000", "185433.945000", "185435.435000", "185436.925000", "185438.415000", "185439.905000", "185441.395000", "185442.885000", "185444.375000", "185445.865000", "185447.355000", "185448.845000", "185450.335000", "185451.825000", "185453.315000", "185454.805000", "185456.295000", "185457.785000", "185459.275000", "185500.765000", "185502.255000", "185503.745000", "185505.235000", "185506.725000", "185508.215000", "185509.705000", "185511.195000", "185512.685000", "185514.175000", "185515.665000", "185517.155000", "185518.645000", "185520.135000", "185521.625000", "185523.115000", "185524.605000", "185526.095000", "185527.585000", "185529.075000", "185530.565000", "185532.055000", "185533.545000", "185535.035000", "185536.525000", "185538.015000", "185539.505000", "185540.995000", "185542.485000", "185543.975000", "185545.465000", "185546.955000", "185548.445000", "185549.935000", "185551.425000", "185552.915000", "185554.405000", "185555.895000", "185557.385000", "185558.875000", "185600.365000", "185601.855000", "185603.345000", "185604.835000", "185606.325000", "185607.815000", "185609.305000", "185610.795000", "185612.285000", "185613.775000", "185615.265000", "185616.755000", "185618.245000", "185619.735000", "185621.225000", "185622.715000", "185624.205000", "185625.695000", "185627.185000", "185628.675000", "185630.165000", "185631.655000", "185633.145000", "185634.635000", "185636.125000", "185637.615000", "185639.105000", "185640.595000", "185642.085000", "185643.575000", "185645.065000", "185646.555000", "185648.045000", "185649.535000", "185651.025000", "185652.515000", "185654.005000", "185655.495000", "185656.985000", "185658.475000", "185659.965000"],
      "ContentTime": ["184534.621000", "184534.624000", "184534.627000", "184534.630000", "184534.639000", "184534.642000", "184534.645000", "184534.648000", "184534.657000", "184534.660000", "184534.663000", "184534.668000", "184534.671000", "184534.674000", "184534.677000", "184534.680000", "184534.683000", "184534.686000", "184534.689000", "184534.691000", "184554.619000", "184554.622000", "184554.625000", "184554.628000", "184554.631000", "184554.634000", "184554.637000", "184554.640000", "184554.643000", "184554.646000", "184554.649000", "184554.652000", "184554.655000", "184554.658000", "184554.661000", "184554.664000", "184554.667000", "184554.670000", "184554.672000", "184554.675000", "184614.618000", "184614.621000", "184614.624000", "184614.627000", "184614.630000", "184614.633000", "184614.636000", "184614.639000", "184614.642000", "184614.645000", "184614.648000", "184614.651000", "184614.654000", "184614.657000", "184614.659000", "184614.662000", "184614.665000", "184614.668000", "184614.671000", "184614.674000", "184634.619000", "184634.622000", "184634.625000", "184634.628000", "184634.631000", "184634.634000", "184634.637000", "184634.640000", "184634.643000", "184634.646000", "184634.649000", "184634.652000", "184634.655000", "184634.658000", "184634.660000", "184634.664000", "184634.666000", "184634.669000", "184634.672000", "184634.675000", "184634.678000", "184654.619000", "184654.622000", "184654.625000", "184654.628000", "184654.631000", "184654.634000", "184654.637000", "184654.640000", "184654.643000", "184654.646000", "184654.649000", "184654.652000", "184654.655000", "184654.658000", "184654.661000", "184654.664000", "184654.667000", "184654.669000", "184654.672000", "184654.675000", "184734.619000", "184734.622000", "184734.625000", "184734.628000", "184734.631000", "184734.634000", "184734.637000", "184734.640000", "184734.643000", "184734.646000", "184734.649000", "184734.652000", "184734.655000", "184734.658000", "184734.661000", "184734.664000", "184734.667000", "184734.670000", "184734.673000", "184734.675000", "184734.679000", "184734.681000", "184734.684000", "184734.687000", "184734.690000", "184734.693000", "184734.700000", "184734.703000", "184734.706000", "184814.619000", "184814.622000", "184814.625000", "184814.628000", "184814.631000", "184814.634000", "184814.637000", "184814.640000", "184814.643000", "184814.646000", "184814.649000", "184814.652000", "184814.655000", "184814.658000", "184814.661000", "184814.664000", "184814.667000", "184814.670000", "184814.673000", "184814.676000", "184814.679000", "184814.682000", "184814.685000", "184814.688000", "184814.691000", "184814.694000", "184814.697000", "184854.619000", "184854.622000", "184854.625000", "184854.628000", "184854.631000", "184854.634000", "184854.637000", "184854.640000", "184854.643000", "184854.646000", "184854.649000", "184854.652000", "184854.655000", "184854.658000", "184854.661000", "184854.664000", "184854.667000", "184854.670000", "184854.673000", "184854.676000", "184854.679000", "184854.682000", "184854.685000", "184854.688000", "184854.691000", "184854.694000", "184854.696000", "184934.619000", "184934.622000", "184934.625000", "184934.634000", "184934.637000", "184934.640000", "184934.643000", "184934.646000", "184934.649000", "184934.652000", "184934.655000", "184934.658000", "184934.661000", "184934.664000", "184934.667000", "184934.670000", "184934.673000", "184934.677000", "184934.680000", "184934.683000", "184934.686000", "184934.689000", "184934.692000", "184934.695000", "184934.698000", "184934.700000", "185014.619000", "185014.622000", "185014.625000", "185014.628000", "185014.631000", "185014.634000", "185014.637000", "185014.640000", "185014.643000", "185014.646000", "185014.649000", "185014.652000", "185014.655000", "185014.658000", "185014.661000", "185014.664000", "185014.667000", "185014.670000", "185014.673000", "185014.676000", "185014.679000", "185014.682000", "185014.685000", "185014.688000", "185014.690000", "185014.694000", "185014.696000", "185054.618000", "185054.621000", "185054.624000", "185054.627000", "185054.630000", "185054.633000", "185054.636000", "185054.639000", "185054.642000", "185054.645000", "185054.648000", "185054.651000", "185054.654000", "185054.657000", "185054.660000", "185054.663000", "185054.666000", "185054.669000", "185054.672000", "185054.675000", "185054.678000", "185054.681000", "185054.684000", "185054.699000", "185054.703000", "185054.705000", "185054.708000", "185134.619000", "185134.622000", "185134.625000", "185134.628000", "185134.631000", "185134.634000", "185134.637000", "185134.640000", "185134.643000", "185134.646000", "185134.649000", "185134.652000", "185134.655000", "185134.658000", "185134.661000", "185134.664000", "185134.667000", "185134.670000", "185134.673000", "185134.676000", "185134.679000", "185134.682000", "185134.685000", "185134.688000", "185134.691000", "185134.694000", "185134.697000", "185214.619000", "185214.622000", "185214.625000", "185214.628000", "185214.631000", "185214.634000", "185214.637000", "185214.640000", "185214.644000", "185214.647000", "185214.650000", "185214.653000", "185214.656000", "185214.658000", "185214.662000", "185214.664000", "185214.667000", "185214.670000", "185214.674000", "185214.676000", "185214.679000", "185214.682000", "185214.685000", "185214.688000", "185214.691000", "185214.694000", "185214.697000", "185254.619000", "185254.622000", "185254.625000", "185254.628000", "185254.631000", "185254.634000", "185254.637000", "185254.640000", "185254.643000", "185254.646000", "185254.649000", "185254.652000", "185254.655000", "185254.658000", "185254.661000", "185254.664000", "185254.667000", "185254.670000", "185254.673000", "185254.676000", "185254.679000", "185254.682000", "185254.685000", "185254.688000", "185254.691000", "185254.694000", "185254.697000", "185334.619000", "185334.622000", "185334.625000", "185334.628000", "185334.631000", "185334.634000", "185334.637000", "185334.640000", "185334.643000", "185334.646000", "185334.649000", "185334.652000", "185334.655000", "185334.658000", "185334.661000", "185334.664000", "185334.667000", "185334.670000", "185334.673000", "185334.676000", "185334.679000", "185334.682000", "185334.685000", "185334.688000", "185334.691000", "185334.694000", "185334.697000", "185414.619000", "185414.622000", "185414.625000", "185414.642000", "185414.645000", "185414.648000", "185414.651000", "185414.654000", "185414.657000", "185414.660000", "185414.663000", "185414.667000", "185414.670000", "185414.673000", "185414.676000", "185414.679000", "185414.682000", "185414.685000", "185414.688000", "185414.691000", "185414.694000", "185414.697000", "185414.700000", "185414.703000", "185414.706000", "185414.709000", "185454.619000", "185454.622000", "185454.625000", "185454.628000", "185454.631000", "185454.634000", "185454.637000", "185454.640000", "185454.643000", "185454.646000", "185454.649000", "185454.652000", "185454.655000", "185454.658000", "185454.661000", "185454.664000", "185454.667000", "185454.670000", "185454.673000", "185454.676000", "185454.679000", "185454.682000", "185454.685000", "185454.688000", "185454.691000", "185454.694000", "185454.697000", "185534.618000", "185534.621000", "185534.624000", "185534.627000", "185534.630000", "185534.633000", "185534.636000", "185534.639000", "185534.642000", "185534.645000", "185534.648000", "185534.651000", "185534.654000", "185534.657000", "185534.660000", "185534.663000", "185534.666000", "185534.669000", "185534.672000", "185534.675000", "185534.678000", "185534.681000", "185534.684000", "185534.687000", "185534.690000", "185534.693000", "185534.696000", "185614.619000", "185614.622000", "185614.625000", "185614.628000", "185614.631000", "185614.634000", "185614.637000", "185614.640000", "185614.643000", "185614.646000", "185614.649000", "185614.652000", "185614.655000", "185614.658000", "185614.661000", "185614.664000", "185614.667000", "185614.670000", "185614.673000", "185614.676000", "185614.679000", "185614.682000", "185614.685000", "185614.688000", "185614.691000", "185614.694000", "185614.696000", "185654.619000", "185654.622000", "185654.625000", "185654.628000", "185654.631000", "185654.634000", "185654.637000", "185654.640000", "185654.643000", "185654.646000", "185654.649000", "185654.652000", "185654.655000", "185654.658000", "185654.661000", "185654.664000", "185654.667000", "185654.670000", "185654.673000", "185654.676000", "185654.679000", "185654.682000", "185654.685000", "185654.688000", "185654.691000", "185654.694000", "185654.697000", "185701.731000", "185701.745000", "185701.748000", "185701.751000", "185701.754000"],
