{
  "AcquisitionMatrixPE": 104,
  "AcquisitionNumber": 1,
  "AcquisitionTime": "16:47:41.620000",
  "BandwidthPerPixelPhaseEncode": 17.17,
  "BaseResolution": 104,
  "BodyPartExamined": "BRAIN",
  "CoilString": "HC1-7;NC1_2",
  "ConsistencyInfo": "N4_VE11C_LATEST_20160120",
  "ConversionSoftware": "dcm2niix",
  "ConversionSoftwareVersion": "v1.0.20190902",
  "DerivedVendorReportedEchoSpacing": 0.000560011,
  "DeviceSerialNumber": "167006",
  "DwellTime": 2.1e-06,
  "EchoTime": 0.037,
  "EchoTrainLength": 104,
  "EffectiveEchoSpacing": 0.000560011,
  "FlipAngle": 52,
  "ImageComments": "Unaliased_MB4_PE3_LB",
  "ImageOrientationPatientDICOM": [0.998872, -0.04744, 0.00198596, 0.0446598, 0.924485, -0.378592],
  "ImageType": [
    "ORIGINAL",
    "PRIMARY",
    "M",
    "MB",
    "ND",
    "MOSAIC"
],
  "ImagingFrequency": 123.259,
  "InPlanePhaseEncodingDirectionDICOM": "COL",
  "InstitutionAddress": "Chemin_Queen-Mary_4565_Montreal_District_CA_H3W_1W5",
  "InstitutionName": "IUGM",
  "InstitutionalDepartmentName": "Department",
  "MRAcquisitionType": "2D",
  "MagneticFieldStrength": 3,
  "Manufacturer": "Siemens",
  "ManufacturersModelName": "Prisma_fit",
  "Modality": "MR",
  "MultibandAccelerationFactor": 4,
  "PartialFourier": 1,
  "PatientPosition": "HFS",
  "PercentPhaseFOV": 100,
  "PhaseEncodingDirection": "j",
  "PhaseEncodingSteps": 104,
  "PhaseResolution": 1,
  "PixelBandwidth": 2290,
  "ProcedureStepDescription": "video_friends",
  "ProtocolName": "func_task-friends-s03e01b",
  "PulseSequenceDetails": "%CustomerSeq%_cmrr_mbep2d_bold",
  "ReceiveCoilActiveElements": "HC1-7;NC1,2",
  "ReceiveCoilName": "HeadNeck_64",
  "ReconMatrixPE": 104,
  "RepetitionTime": 1.49,
  "SAR": 0.0360348,
  "ScanOptions": "FS",
  "ScanningSequence": "EP",
  "SequenceName": "epfid2d1_104",
  "SequenceVariant": "SK_SS",
  "SeriesDescription": "func_task-friends-s03e01b",
  "SeriesNumber": 13,
  "ShimSetting": [616, -7277, -8830, 404, 23, -465, 66, 31],
  "SliceThickness": 2,
  "SliceTiming": [0, 0.7825, 0.0975, 0.8825, 0.195, 0.98, 0.2925, 1.0775, 0.3925, 1.175, 0.49, 1.2725, 0.5875, 1.3725, 0.685, 0, 0.7825, 0.0975, 0.8825, 0.195, 0.98, 0.2925, 1.0775, 0.3925, 1.175, 0.49, 1.2725, 0.5875, 1.3725, 0.685, 0, 0.7825, 0.0975, 0.8825, 0.195, 0.98, 0.2925, 1.0775, 0.3925, 1.175, 0.49, 1.2725, 0.5875, 1.3725, 0.685, 0, 0.7825, 0.0975, 0.8825, 0.195, 0.98, 0.2925, 1.0775, 0.3925, 1.175, 0.49, 1.2725, 0.5875, 1.3725, 0.685],
  "SoftwareVersions": "syngo_MR_E11",
  "SpacingBetweenSlices": 2,
  "StationName": "MRC35049",
  "TaskName": "s03e01b",
  "TotalReadoutTime": 0.0576811,
  "TxRefAmp": 236.309,
  "WipMemBlock": "6a7478e5-2dab-4cfe-8c16-b049e9cc8d78||Sequence: R016 ve11c/master r/e634e98; Dec 19 2017 11:00:25 by eja",
  "dcmmeta_affine": [
    [-1.9977442026138306, 0.08931966125965118, -0.03224887326359749, 96.69943237304688],
    [0.09488000720739365, 1.8489707708358765, -0.7565082311630249, -73.2999038696289],
    [0.003971916623413563, 0.7571848630905151, 1.8511227369308472, -67.06394958496094],
    [0.0, 0.0, 0.0, 1.0]
],
  "dcmmeta_reorient_transform": [
    [0.0, -1.0, 0.0, 103.0],
    [1.0, 0.0, 0.0, 0.0],
    [0.0, 0.0, 1.0, 0.0],
    [0.0, 0.0, 0.0, 1.0]
],
  "dcmmeta_shape": [104, 104, 60, 491],
  "dcmmeta_slice_dim": 2,
  "dcmmeta_version": 0.6,
  "global": {
    "const": {
      "AcquisitionMatrix": [104, 0, 0, 104],
      "AngioFlag": "N",
      "BitsAllocated": 16,
      "BitsStored": 16,
      "BodyPartExamined": "BRAIN",
      "Columns": 832,
      "EchoNumbers": 1,
      "EchoTime": 37.0,
      "EchoTrainLength": 104,
      "FlipAngle": 52.0,
      "HighBit": 15,
      "ImageOrientationPatient": [0.9988721149258, -0.0474400041421, 0.00198595837116, 0.04465983180173, 0.92448541384559, -0.3785924180569],
      "ImagePositionPatient": [-865.59061351176, -755.63314874747, 285.09559049554],
      "ImageType": [
        "ORIGINAL",
        "PRIMARY",
        "M",
        "MB",
        "ND",
        "MOSAIC"
],
      "ImagedNucleus": "1H",
      "ImagingFrequency": 123.258971,
      "InPlanePhaseEncodingDirection": "COL",
      "MRAcquisitionType": "2D",
      "MagneticFieldStrength": 3.0,
      "Manufacturer": "SIEMENS",
      "ManufacturerModelName": "Prisma_fit",
      "Modality": "MR",
      "NumberOfAverages": 1.0,
      "NumberOfPhaseEncodingSteps": 104,
      "PercentPhaseFieldOfView": 100.0,
      "PercentSampling": 100.0,
      "PerformedProcedureStepStartTime": "160107.299000",
      "PhotometricInterpretation": "MONOCHROME2",
      "PixelBandwidth": 2290.0,
      "PixelRepresentation": 0,
      "PixelSpacing": [2.0, 2.0],
      "ProtocolName": "func_task-friends-s03e01b",
      "RepetitionTime": 1490.0,
      "Rows": 832,
      "SAR": 0.03603476408794,
      "SamplesPerPixel": 1,
      "ScanOptions": "FS",
      "ScanningSequence": "EP",
      "SequenceName": "epfid2d1_104",
      "SequenceVariant": [
        "SK",
        "SS"
],
      "SeriesDescription": "func_task-friends-s03e01b",
      "SeriesNumber": 13,
      "SeriesTime": "164904.596000",
      "SliceLocation": -35.905035406341,
      "SliceThickness": 2.0,
      "SmallestImagePixelValue": 0,
      "SoftwareVersions": "syngo MR E11",
      "SpacingBetweenSlices": 2.0000000128173,
      "SpecificCharacterSet": "ISO_IR 100",
      "StudyID": "1",
      "StudyTime": "160107.154000",
      "TransmitCoilName": "Body",
      "VariableFlipAngleFlag": "N",
      "WindowCenterWidthExplanation": "Algo1",
      "dBdt": 0.0},
    "slices": {}
  },
  "time": {
    "samples": {
      "AcquisitionNumber": [1, 2, 3, 4, 5, 6, 7, 8, 9, 10, 11, 12, 13, 14, 15, 16, 17, 18, 19, 20, 21, 22, 23, 24, 25, 26, 27, 28, 29, 30, 31, 32, 33, 34, 35, 36, 37, 38, 39, 40, 41, 42, 43, 44, 45, 46, 47, 48, 49, 50, 51, 52, 53, 54, 55, 56, 57, 58, 59, 60, 61, 62, 63, 64, 65, 66, 67, 68, 69, 70, 71, 72, 73, 74, 75, 76, 77, 78, 79, 80, 81, 82, 83, 84, 85, 86, 87, 88, 89, 90, 91, 92, 93, 94, 95, 96, 97, 98, 99, 100, 101, 102, 103, 104, 105, 106, 107, 108, 109, 110, 111, 112, 113, 114, 115, 116, 117, 118, 119, 120, 121, 122, 123, 124, 125, 126, 127, 128, 129, 130, 131, 132, 133, 134, 135, 136, 137, 138, 139, 140, 141, 142, 143, 144, 145, 146, 147, 148, 149, 150, 151, 152, 153, 154, 155, 156, 157, 158, 159, 160, 161, 162, 163, 164, 165, 166, 167, 168, 169, 170, 171, 172, 173, 174, 175, 176, 177, 178, 179, 180, 181, 182, 183, 184, 185, 186, 187, 188, 189, 190, 191, 192, 193, 194, 195, 196, 197, 198, 199, 200, 201, 202, 203, 204, 205, 206, 207, 208, 209, 210, 211, 212, 213, 214, 215, 216, 217, 218, 219, 220, 221, 222, 223, 224, 225, 226, 227, 228, 229, 230, 231, 232, 233, 234, 235, 236, 237, 238, 239, 240, 241, 242, 243, 244, 245, 246, 247, 248, 249, 250, 251, 252, 253, 254, 255, 256, 257, 258, 259, 260, 261, 262, 263, 264, 265, 266, 267, 268, 269, 270, 271, 272, 273, 274, 275, 276, 277, 278, 279, 280, 281, 282, 283, 284, 285, 286, 287, 288, 289, 290, 291, 292, 293, 294, 295, 296, 297, 298, 299, 300, 301, 302, 303, 304, 305, 306, 307, 308, 309, 310, 311, 312, 313, 314, 315, 316, 317, 318, 319, 320, 321, 322, 323, 324, 325, 326, 327, 328, 329, 330, 331, 332, 333, 334, 335, 336, 337, 338, 339, 340, 341, 342, 343, 344, 345, 346, 347, 348, 349, 350, 351, 352, 353, 354, 355, 356, 357, 358, 359, 360, 361, 362, 363, 364, 365, 366, 367, 368, 369, 370, 371, 372, 373, 374, 375, 376, 377, 378, 379, 380, 381, 382, 383, 384, 385, 386, 387, 388, 389, 390, 391, 392, 393, 394, 395, 396, 397, 398, 399, 400, 401, 402, 403, 404, 405, 406, 407, 408, 409, 410, 411, 412, 413, 414, 415, 416, 417, 418, 419, 420, 421, 422, 423, 424, 425, 426, 427, 428, 429, 430, 431, 432, 433, 434, 435, 436, 437, 438, 439, 440, 441, 442, 443, 444, 445, 446, 447, 448, 449, 450, 451, 452, 453, 454, 455, 456, 457, 458, 459, 460, 461, 462, 463, 464, 465, 466, 467, 468, 469, 470, 471, 472, 473, 474, 475, 476, 477, 478, 479, 480, 481, 482, 483, 484, 485, 486, 487, 488, 489, 490, 491],
      "AcquisitionTime": ["164741.620000", "164743.110000", "164744.600000", "164746.090000", "164747.580000", "164749.070000", "164750.560000", "164752.050000", "164753.540000", "164755.030000", "164756.520000", "164758.010000", "164759.500000", "164800.990000", "164802.480000", "164803.970000", "164805.460000", "164806.950000", "164808.440000", "164809.930000", "164811.420000", "164812.910000", "164814.400000", "164815.890000", "164817.380000", "164818.870000", "164820.360000", "164821.850000", "164823.340000", "164824.830000", "164826.320000", "164827.810000", "164829.300000", "164830.790000", "164832.280000", "164833.770000", "164835.260000", "164836.750000", "164838.240000", "164839.730000", "164841.220000", "164842.710000", "164844.200000", "164845.690000", "164847.180000", "164848.670000", "164850.160000", "164851.650000", "164853.140000", "164854.630000", "164856.120000", "164857.610000", "164859.100000", "164900.590000", "164902.080000", "164903.570000", "164905.060000", "164906.550000", "164908.040000", "164909.530000", "164911.020000", "164912.510000", "164914.000000", "164915.490000", "164916.980000", "164918.470000", "164919.960000", "164921.450000", "164922.940000", "164924.430000", "164925.920000", "164927.410000", "164928.900000", "164930.390000", "164931.880000", "164933.370000", "164934.860000", "164936.350000", "164937.840000", "164939.330000", "164940.820000", "164942.310000", "164943.800000", "164945.290000", "164946.780000", "164948.270000", "164949.760000", "164951.250000", "164952.740000", "164954.230000", "164955.720000", "164957.210000", "164958.700000", "165000.190000", "165001.680000", "165003.170000", "165004.660000", "165006.150000", "165007.640000", "165009.130000", "165010.620000", "165012.110000", "165013.600000", "165015.090000", "165016.580000", "165018.070000", "165019.560000", "165021.050000", "165022.540000", "165024.030000", "165025.520000", "165027.010000", "165028.500000", "165029.990000", "165031.480000", "165032.970000", "165034.460000", "165035.950000", "165037.440000", "165038.930000", "165040.420000", "165041.910000", "165043.400000", "165044.890000", "165046.380000", "165047.870000", "165049.360000", "165050.850000", "165052.340000", "165053.830000", "165055.320000", "165056.810000", "165058.300000", "165059.790000", "165101.280000", "165102.770000", "165104.260000", "165105.750000", "165107.240000", "165108.730000", "165110.220000", "165111.710000", "165113.200000", "165114.690000", "165116.180000", "165117.670000", "165119.160000", "165120.650000", "165122.140000", "165123.630000", "165125.120000", "165126.610000", "165128.100000", "165129.590000", "165131.080000", "165132.570000", "165134.060000", "165135.550000", "165137.040000", "165138.530000", "165140.020000", "165141.510000", "165143.000000", "165144.490000", "165145.980000", "165147.470000", "165148.960000", "165150.450000", "165151.940000", "165153.430000", "165154.920000", "165156.410000", "165157.900000", "165159.390000", "165200.880000", "165202.370000", "165203.860000", "165205.350000", "165206.840000", "165208.330000", "165209.820000", "165211.310000", "165212.800000", "165214.290000", "165215.780000", "165217.270000", "165218.760000", "165220.250000", "165221.740000", "165223.230000", "165224.720000", "165226.210000", "165227.700000", "165229.190000", "165230.680000", "165232.170000", "165233.660000", "165235.150000", "165236.640000", "165238.130000", "165239.620000", "165241.110000", "165242.600000", "165244.090000", "165245.580000", "165247.070000", "165248.560000", "165250.050000", "165251.540000", "165253.030000", "165254.520000", "165256.010000", "165257.500000", "165258.990000", "165300.480000", "165301.970000", "165303.460000", "165304.950000", "165306.440000", "165307.930000", "165309.420000", "165310.910000", "165312.400000", "165313.890000", "165315.380000", "165316.870000", "165318.360000", "165319.850000", "165321.340000", "165322.830000", "165324.320000", "165325.810000", "165327.300000", "165328.790000", "165330.280000", "165331.770000", "165333.260000", "165334.750000", "165336.240000", "165337.730000", "165339.220000", "165340.710000", "165342.200000", "165343.690000", "165345.180000", "165346.670000", "165348.160000", "165349.650000", "165351.140000", "165352.630000", "165354.120000", "165355.610000", "165357.100000", "165358.590000", "165400.080000", "165401.570000", "165403.060000", "165404.550000", "165406.040000", "165407.530000", "165409.020000", "165410.510000", "165412.000000", "165413.490000", "165414.980000", "165416.470000", "165417.960000", "165419.450000", "165420.940000", "165422.430000", "165423.920000", "165425.410000", "165426.900000", "165428.390000", "165429.880000", "165431.370000", "165432.860000", "165434.350000", "165435.840000", "165437.330000", "165438.820000", "165440.310000", "165441.800000", "165443.290000", "165444.780000", "165446.270000", "165447.760000", "165449.250000", "165450.740000", "165452.230000", "165453.720000", "165455.210000", "165456.700000", "165458.190000", "165459.680000", "165501.170000", "165502.660000", "165504.150000", "165505.640000", "165507.130000", "165508.620000", "165510.110000", "165511.600000", "165513.090000", "165514.580000", "165516.070000", "165517.560000", "165519.050000", "165520.540000", "165522.030000", "165523.520000", "165525.010000", "165526.500000", "165527.990000", "165529.480000", "165530.970000", "165532.460000", "165533.950000", "165535.440000", "165536.930000", "165538.420000", "165539.910000", "165541.400000", "165542.890000", "165544.380000", "165545.870000", "165547.360000", "165548.850000", "165550.340000", "165551.830000", "165553.320000", "165554.810000", "165556.300000", "165557.790000", "165559.280000", "165600.770000", "165602.260000", "165603.750000", "165605.240000", "165606.730000", "165608.220000", "165609.710000", "165611.200000", "165612.690000", "165614.180000", "165615.670000", "165617.160000", "165618.650000", "165620.140000", "165621.630000", "165623.120000", "165624.610000", "165626.100000", "165627.590000", "165629.080000", "165630.570000", "165632.060000", "165633.550000", "165635.040000", "165636.530000", "165638.020000", "165639.510000", "165641.000000", "165642.490000", "165643.980000", "165645.470000", "165646.960000", "165648.450000", "165649.940000", "165651.430000", "165652.920000", "165654.410000", "165655.900000", "165657.390000", "165658.880000", "165700.370000", "165701.860000", "165703.350000", "165704.840000", "165706.330000", "165707.820000", "165709.310000", "165710.800000", "165712.290000", "165713.780000", "165715.270000", "165716.760000", "165718.250000", "165719.740000", "165721.230000", "165722.720000", "165724.210000", "165725.700000", "165727.190000", "165728.680000", "165730.170000", "165731.660000", "165733.150000", "165734.640000", "165736.130000", "165737.620000", "165739.110000", "165740.600000", "165742.090000", "165743.580000", "165745.070000", "165746.560000", "165748.050000", "165749.540000", "165751.030000", "165752.520000", "165754.010000", "165755.500000", "165756.990000", "165758.480000", "165759.970000", "165801.460000", "165802.950000", "165804.440000", "165805.930000", "165807.420000", "165808.910000", "165810.400000", "165811.890000", "165813.380000", "165814.870000", "165816.360000", "165817.850000", "165819.340000", "165820.830000", "165822.320000", "165823.810000", "165825.300000", "165826.790000", "165828.280000", "165829.770000", "165831.260000", "165832.750000", "165834.240000", "165835.730000", "165837.220000", "165838.710000", "165840.200000", "165841.690000", "165843.180000", "165844.670000", "165846.160000", "165847.650000", "165849.140000", "165850.630000", "165852.120000", "165853.610000", "165855.100000", "165856.590000", "165858.080000", "165859.570000", "165901.060000", "165902.550000", "165904.040000", "165905.530000", "165907.020000", "165908.510000", "165910.000000", "165911.490000", "165912.980000", "165914.470000", "165915.960000", "165917.450000", "165918.940000", "165920.430000", "165921.920000", "165923.410000", "165924.900000", "165926.390000", "165927.880000", "165929.370000", "165930.860000", "165932.350000", "165933.840000", "165935.330000", "165936.820000", "165938.310000", "165939.800000", "165941.290000", "165942.780000", "165944.270000", "165945.760000", "165947.250000", "165948.740000", "165950.230000", "165951.720000"],
      "ContentTime": ["164904.599000", "164904.603000", "164904.606000", "164904.609000", "164904.613000", "164904.616000", "164904.619000", "164904.622000", "164904.625000", "164904.628000", "164904.631000", "164904.634000", "164904.637000", "164904.640000", "164904.643000", "164904.646000", "164904.649000", "164904.652000", "164904.655000", "164904.658000", "164904.661000", "164904.664000", "164904.667000", "164904.670000", "164904.673000", "164904.677000", "164904.680000", "164904.683000", "164904.686000", "164904.689000", "164924.566000", "164924.569000", "164924.572000", "164924.575000", "164924.578000", "164924.581000", "164924.584000", "164924.587000", "164924.590000", "164924.593000", "164924.596000", "164924.599000", "164924.602000", "164924.605000", "164924.608000", "164924.611000", "164924.614000", "164924.617000", "164924.620000", "164924.623000", "164924.626000", "164944.566000", "164944.569000", "164944.572000", "164944.575000", "164944.578000", "164944.581000", "164944.584000", "164944.587000", "164944.590000", "164944.593000", "164944.596000", "164944.599000", "164944.602000", "164944.605000", "164944.608000", "164944.611000", "164944.614000", "164944.617000", "164944.620000", "164944.623000", "165004.566000", "165004.569000", "165004.572000", "165004.575000", "165004.578000", "165004.581000", "165004.584000", "165004.587000", "165004.590000", "165004.593000", "165004.596000", "165004.599000", "165004.602000", "165004.605000", "165004.608000", "165004.611000", "165004.614000", "165004.617000", "165004.620000", "165004.623000", "165044.566000", "165044.569000", "165044.572000", "165044.575000", "165044.578000", "165044.581000", "165044.584000", "165044.587000", "165044.590000", "165044.593000", "165044.596000", "165044.599000", "165044.602000", "165044.605000", "165044.608000", "165044.611000", "165044.614000", "165044.617000", "165044.620000", "165044.623000", "165044.626000", "165044.629000", "165044.632000", "165044.635000", "165044.638000", "165044.641000", "165044.644000", "165044.647000", "165044.650000", "165044.652000", "165044.655000", "165124.566000", "165124.569000", "165124.572000", "165124.575000", "165124.578000", "165124.581000", "165124.584000", "165124.587000", "165124.590000", "165124.593000", "165124.596000", "165124.599000", "165124.602000", "165124.605000", "165124.608000", "165124.611000", "165124.614000", "165124.617000", "165124.620000", "165124.623000", "165124.626000", "165124.629000", "165124.632000", "165124.635000", "165124.638000", "165124.641000", "165124.644000", "165204.566000", "165204.569000", "165204.572000", "165204.575000", "165204.578000", "165204.581000", "165204.584000", "165204.587000", "165204.590000", "165204.593000", "165204.596000", "165204.612000", "165204.615000", "165204.618000", "165204.621000", "165204.624000", "165204.627000", "165204.630000", "165204.633000", "165204.636000", "165204.639000", "165204.642000", "165204.645000", "165204.648000", "165204.651000", "165204.654000", "165204.657000", "165244.566000", "165244.569000", "165244.572000", "165244.575000", "165244.578000", "165244.585000", "165244.588000", "165244.591000", "165244.594000", "165244.597000", "165244.600000", "165244.603000", "165244.607000", "165244.609000", "165244.612000", "165244.615000", "165244.618000", "165244.621000", "165244.624000", "165244.627000", "165244.630000", "165244.633000", "165244.636000", "165244.639000", "165244.658000", "165244.661000", "165244.664000", "165324.566000", "165324.569000", "165324.572000", "165324.575000", "165324.578000", "165324.581000", "165324.584000", "165324.587000", "165324.590000", "165324.593000", "165324.596000", "165324.599000", "165324.602000", "165324.605000", "165324.608000", "165324.611000", "165324.614000", "165324.617000", "165324.620000", "165324.623000", "165324.626000", "165324.629000", "165324.632000", "165324.635000", "165324.638000", "165324.641000", "165324.644000", "165404.566000", "165404.569000", "165404.572000", "165404.575000", "165404.578000", "165404.581000", "165404.584000", "165404.587000", "165404.590000", "165404.593000", "165404.596000", "165404.606000", "165404.610000", "165404.613000", "165404.616000", "165404.618000", "165404.622000", "165404.625000", "165404.628000", "165404.630000", "165404.634000", "165404.637000", "165404.639000", "165404.642000", "165404.646000", "165404.649000", "165444.566000", "165444.569000", "165444.572000", "165444.575000", "165444.578000", "165444.581000", "165444.584000", "165444.587000", "165444.590000", "165444.593000", "165444.596000", "165444.599000", "165444.602000", "165444.605000", "165444.608000", "165444.611000", "165444.614000", "165444.617000", "165444.620000", "165444.623000", "165444.626000", "165444.629000", "165444.632000", "165444.635000", "165444.638000", "165444.641000", "165444.644000", "165524.566000", "165524.569000", "165524.573000", "165524.576000", "165524.579000", "165524.582000", "165524.585000", "165524.588000", "165524.591000", "165524.594000", "165524.597000", "165524.600000", "165524.603000", "165524.606000", "165524.609000", "165524.612000", "165524.615000", "165524.618000", "165524.621000", "165524.624000", "165524.627000", "165524.630000", "165524.633000", "165524.636000", "165524.639000", "165524.642000", "165524.645000", "165604.566000", "165604.569000", "165604.572000", "165604.575000", "165604.578000", "165604.581000", "165604.584000", "165604.587000", "165604.590000", "165604.593000", "165604.596000", "165604.599000", "165604.602000", "165604.605000", "165604.608000", "165604.611000", "165604.614000", "165604.617000", "165604.620000", "165604.623000", "165604.626000", "165604.628000", "165604.631000", "165604.634000", "165604.637000", "165604.640000", "165604.643000", "165644.566000", "165644.569000", "165644.572000", "165644.575000", "165644.578000", "165644.581000", "165644.584000", "165644.587000", "165644.590000", "165644.593000", "165644.596000", "165644.599000", "165644.602000", "165644.605000", "165644.608000", "165644.611000", "165644.614000", "165644.617000", "165644.620000", "165644.623000", "165644.626000", "165644.629000", "165644.632000", "165644.635000", "165644.638000", "165644.641000", "165644.644000", "165704.566000", "165704.569000", "165704.572000", "165704.575000", "165704.578000", "165704.581000", "165704.584000", "165704.587000", "165704.590000", "165704.593000", "165704.596000", "165704.599000", "165704.602000", "165744.566000", "165744.569000", "165744.572000", "165744.575000", "165744.578000", "165744.581000", "165744.584000", "165744.587000", "165744.590000", "165744.593000", "165744.596000", "165744.599000", "165744.602000", "165744.605000", "165744.612000", "165744.615000", "165744.618000", "165744.621000", "165744.624000", "165744.627000", "165744.630000", "165744.633000", "165744.636000", "165744.639000", "165744.642000", "165744.645000", "165744.648000", "165824.566000", "165824.569000", "165824.572000", "165824.575000", "165824.578000", "165824.581000", "165824.584000", "165824.587000", "165824.590000", "165824.593000", "165824.596000", "165824.599000", "165824.602000", "165824.605000", "165824.608000", "165824.611000", "165824.614000", "165824.617000", "165824.620000", "165824.623000", "165824.626000", "165824.629000", "165824.632000", "165824.635000", "165824.638000", "165824.641000", "165824.644000", "165904.566000", "165904.569000", "165904.572000", "165904.575000", "165904.578000", "165904.581000", "165904.584000", "165904.587000", "165904.590000", "165904.593000", "165904.596000", "165904.599000", "165904.602000", "165904.605000", "165904.608000", "165904.611000", "165904.614000", "165904.617000", "165904.620000", "165904.623000", "165904.626000", "165904.629000", "165904.632000", "165904.635000", "165904.638000", "165904.641000", "165904.644000", "165944.566000", "165944.569000", "165944.572000", "165944.575000", "165944.578000", "165944.581000", "165944.584000", "165944.587000", "165944.590000", "165944.595000", "165944.598000", "165944.601000", "165944.604000", "165944.607000", "165944.611000", "165944.613000", "165944.616000", "165944.619000", "165944.622000", "165944.625000", "165944.628000", "165944.631000", "165944.634000", "165944.637000", "165944.640000", "165944.643000", "165944.646000", "165953.381000", "165953.384000", "165953.387000", "165953.394000", "165953.397000", "165953.400000"],
