{
  "AcquisitionMatrixPE": 104,
  "AcquisitionNumber": 1,
  "AcquisitionTime": "18:26:19.432500",
  "BandwidthPerPixelPhaseEncode": 17.17,
  "BaseResolution": 104,
  "BodyPartExamined": "BRAIN",
  "CoilString": "HC1-7;NC1_2",
  "ConsistencyInfo": "N4_VE11C_LATEST_20160120",
  "ConversionSoftware": "dcm2niix",
  "ConversionSoftwareVersion": "v1.0.20190902",
  "DerivedVendorReportedEchoSpacing": 0.000560011,
  "DeviceSerialNumber": "167006",
  "DwellTime": 2.1e-06,
  "EchoTime": 0.037,
  "EchoTrainLength": 104,
  "EffectiveEchoSpacing": 0.000560011,
  "FlipAngle": 52,
  "ImageComments": "Unaliased_MB4_PE3_LB",
  "ImageOrientationPatientDICOM": [0.998872, -0.04744, 0.00198596, 0.0446598, 0.924485, -0.378592],
  "ImageType": [
    "ORIGINAL",
    "PRIMARY",
    "M",
    "MB",
    "ND",
    "MOSAIC"
],
  "ImagingFrequency": 123.259,
  "InPlanePhaseEncodingDirectionDICOM": "COL",
  "InstitutionAddress": "Chemin_Queen-Mary_4565_Montreal_District_CA_H3W_1W5",
  "InstitutionName": "IUGM",
  "InstitutionalDepartmentName": "Department",
  "MRAcquisitionType": "2D",
  "MagneticFieldStrength": 3,
  "Manufacturer": "Siemens",
  "ManufacturersModelName": "Prisma_fit",
  "Modality": "MR",
  "MultibandAccelerationFactor": 4,
  "PartialFourier": 1,
  "PatientPosition": "HFS",
  "PercentPhaseFOV": 100,
  "PhaseEncodingDirection": "j",
  "PhaseEncodingSteps": 104,
  "PhaseResolution": 1,
  "PixelBandwidth": 2290,
  "ProcedureStepDescription": "video_friends",
  "ProtocolName": "func_task-friends-s03e05b",
  "PulseSequenceDetails": "%CustomerSeq%_cmrr_mbep2d_bold",
  "ReceiveCoilActiveElements": "HC1-7;NC1,2",
  "ReceiveCoilName": "HeadNeck_64",
  "ReconMatrixPE": 104,
  "RepetitionTime": 1.49,
  "SAR": 0.0360327,
  "ScanOptions": "FS",
  "ScanningSequence": "EP",
  "SequenceName": "epfid2d1_104",
  "SequenceVariant": "SK_SS",
  "SeriesDescription": "func_task-friends-s03e05b",
  "SeriesNumber": 29,
  "ShimSetting": [616, -7277, -8830, 404, 23, -465, 66, 31],
  "SliceThickness": 2,
  "SliceTiming": [0, 0.785, 0.0975, 0.8825, 0.1975, 0.98, 0.295, 1.0775, 0.3925, 1.1775, 0.49, 1.275, 0.5875, 1.3725, 0.6875, 0, 0.785, 0.0975, 0.8825, 0.1975, 0.98, 0.295, 1.0775, 0.3925, 1.1775, 0.49, 1.275, 0.5875, 1.3725, 0.6875, 0, 0.785, 0.0975, 0.8825, 0.1975, 0.98, 0.295, 1.0775, 0.3925, 1.1775, 0.49, 1.275, 0.5875, 1.3725, 0.6875, 0, 0.785, 0.0975, 0.8825, 0.1975, 0.98, 0.295, 1.0775, 0.3925, 1.1775, 0.49, 1.275, 0.5875, 1.3725, 0.6875],
  "SoftwareVersions": "syngo_MR_E11",
  "SpacingBetweenSlices": 2,
  "StationName": "MRC35049",
  "TaskName": "s03e05b",
  "TotalReadoutTime": 0.0576811,
  "TxRefAmp": 236.309,
  "WipMemBlock": "85c4231e-4edc-44e5-853f-ef24dc1b669c||Sequence: R016 ve11c/master r/e634e98; Dec 19 2017 11:00:25 by eja",
  "dcmmeta_affine": [
    [-1.9977442026138306, 0.08931966125965118, -0.03224887326359749, 96.69943237304688],
    [0.09488000720739365, 1.8489707708358765, -0.7565082311630249, -73.2999038696289],
    [0.003971916623413563, 0.7571848630905151, 1.8511227369308472, -67.06394958496094],
    [0.0, 0.0, 0.0, 1.0]
],
  "dcmmeta_reorient_transform": [
    [0.0, -1.0, 0.0, 103.0],
    [1.0, 0.0, 0.0, 0.0],
    [0.0, 0.0, 1.0, 0.0],
    [0.0, 0.0, 0.0, 1.0]
],
  "dcmmeta_shape": [104, 104, 60, 484],
  "dcmmeta_slice_dim": 2,
  "dcmmeta_version": 0.6,
  "global": {
    "const": {
      "AcquisitionMatrix": [104, 0, 0, 104],
      "AngioFlag": "N",
      "BitsAllocated": 16,
      "BitsStored": 16,
      "BodyPartExamined": "BRAIN",
      "Columns": 832,
      "EchoNumbers": 1,
      "EchoTime": 37.0,
      "EchoTrainLength": 104,
      "FlipAngle": 52.0,
      "HighBit": 15,
      "ImageOrientationPatient": [0.9988721149258, -0.0474400041421, 0.00198595837116, 0.04465983180173, 0.92448541384559, -0.3785924180569],
      "ImagePositionPatient": [-865.59061351176, -755.63314874747, 285.09559049554],
      "ImageType": [
        "ORIGINAL",
        "PRIMARY",
        "M",
        "MB",
        "ND",
        "MOSAIC"
],
      "ImagedNucleus": "1H",
      "ImagingFrequency": 123.258992,
      "InPlanePhaseEncodingDirection": "COL",
      "MRAcquisitionType": "2D",
      "MagneticFieldStrength": 3.0,
      "Manufacturer": "SIEMENS",
      "ManufacturerModelName": "Prisma_fit",
      "Modality": "MR",
      "NumberOfAverages": 1.0,
      "NumberOfPhaseEncodingSteps": 104,
      "PercentPhaseFieldOfView": 100.0,
      "PercentSampling": 100.0,
      "PerformedProcedureStepStartTime": "160107.299000",
      "PhotometricInterpretation": "MONOCHROME2",
      "PixelBandwidth": 2290.0,
      "PixelRepresentation": 0,
      "PixelSpacing": [2.0, 2.0],
      "ProtocolName": "func_task-friends-s03e05b",
      "RepetitionTime": 1490.0,
      "Rows": 832,
      "SAR": 0.03603266455406,
      "SamplesPerPixel": 1,
      "ScanOptions": "FS",
      "ScanningSequence": "EP",
      "SequenceName": "epfid2d1_104",
      "SequenceVariant": [
        "SK",
        "SS"
],
      "SeriesDescription": "func_task-friends-s03e05b",
      "SeriesNumber": 29,
      "SeriesTime": "182726.562000",
      "SliceLocation": -35.905035406341,
      "SliceThickness": 2.0,
      "SmallestImagePixelValue": 0,
      "SoftwareVersions": "syngo MR E11",
      "SpacingBetweenSlices": 2.0000000128173,
      "SpecificCharacterSet": "ISO_IR 100",
      "StudyID": "1",
      "StudyTime": "160107.154000",
      "TransmitCoilName": "Body",
      "VariableFlipAngleFlag": "N",
      "WindowCenterWidthExplanation": "Algo1",
      "dBdt": 0.0},
    "slices": {}
  },
  "time": {
    "samples": {
      "AcquisitionNumber": [1, 2, 3, 4, 5, 6, 7, 8, 9, 10, 11, 12, 13, 14, 15, 16, 17, 18, 19, 20, 21, 22, 23, 24, 25, 26, 27, 28, 29, 30, 31, 32, 33, 34, 35, 36, 37, 38, 39, 40, 41, 42, 43, 44, 45, 46, 47, 48, 49, 50, 51, 52, 53, 54, 55, 56, 57, 58, 59, 60, 61, 62, 63, 64, 65, 66, 67, 68, 69, 70, 71, 72, 73, 74, 75, 76, 77, 78, 79, 80, 81, 82, 83, 84, 85, 86, 87, 88, 89, 90, 91, 92, 93, 94, 95, 96, 97, 98, 99, 100, 101, 102, 103, 104, 105, 106, 107, 108, 109, 110, 111, 112, 113, 114, 115, 116, 117, 118, 119, 120, 121, 122, 123, 124, 125, 126, 127, 128, 129, 130, 131, 132, 133, 134, 135, 136, 137, 138, 139, 140, 141, 142, 143, 144, 145, 146, 147, 148, 149, 150, 151, 152, 153, 154, 155, 156, 157, 158, 159, 160, 161, 162, 163, 164, 165, 166, 167, 168, 169, 170, 171, 172, 173, 174, 175, 176, 177, 178, 179, 180, 181, 182, 183, 184, 185, 186, 187, 188, 189, 190, 191, 192, 193, 194, 195, 196, 197, 198, 199, 200, 201, 202, 203, 204, 205, 206, 207, 208, 209, 210, 211, 212, 213, 214, 215, 216, 217, 218, 219, 220, 221, 222, 223, 224, 225, 226, 227, 228, 229, 230, 231, 232, 233, 234, 235, 236, 237, 238, 239, 240, 241, 242, 243, 244, 245, 246, 247, 248, 249, 250, 251, 252, 253, 254, 255, 256, 257, 258, 259, 260, 261, 262, 263, 264, 265, 266, 267, 268, 269, 270, 271, 272, 273, 274, 275, 276, 277, 278, 279, 280, 281, 282, 283, 284, 285, 286, 287, 288, 289, 290, 291, 292, 293, 294, 295, 296, 297, 298, 299, 300, 301, 302, 303, 304, 305, 306, 307, 308, 309, 310, 311, 312, 313, 314, 315, 316, 317, 318, 319, 320, 321, 322, 323, 324, 325, 326, 327, 328, 329, 330, 331, 332, 333, 334, 335, 336, 337, 338, 339, 340, 341, 342, 343, 344, 345, 346, 347, 348, 349, 350, 351, 352, 353, 354, 355, 356, 357, 358, 359, 360, 361, 362, 363, 364, 365, 366, 367, 368, 369, 370, 371, 372, 373, 374, 375, 376, 377, 378, 379, 380, 381, 382, 383, 384, 385, 386, 387, 388, 389, 390, 391, 392, 393, 394, 395, 396, 397, 398, 399, 400, 401, 402, 403, 404, 405, 406, 407, 408, 409, 410, 411, 412, 413, 414, 415, 416, 417, 418, 419, 420, 421, 422, 423, 424, 425, 426, 427, 428, 429, 430, 431, 432, 433, 434, 435, 436, 437, 438, 439, 440, 441, 442, 443, 444, 445, 446, 447, 448, 449, 450, 451, 452, 453, 454, 455, 456, 457, 458, 459, 460, 461, 462, 463, 464, 465, 466, 467, 468, 469, 470, 471, 472, 473, 474, 475, 476, 477, 478, 479, 480, 481, 482, 483, 484],
      "AcquisitionTime": ["182619.432500", "182620.922500", "182622.412500", "182623.902500", "182625.392500", "182626.882500", "182628.372500", "182629.862500", "182631.352500", "182632.842500", "182634.332500", "182635.822500", "182637.312500", "182638.802500", "182640.292500", "182641.782500", "182643.272500", "182644.762500", "182646.252500", "182647.742500", "182649.232500", "182650.722500", "182652.212500", "182653.702500", "182655.192500", "182656.682500", "182658.172500", "182659.662500", "182701.152500", "182702.642500", "182704.132500", "182705.622500", "182707.112500", "182708.602500", "182710.092500", "182711.582500", "182713.072500", "182714.562500", "182716.052500", "182717.542500", "182719.032500", "182720.522500", "182722.012500", "182723.502500", "182724.992500", "182726.482500", "182727.972500", "182729.462500", "182730.952500", "182732.442500", "182733.932500", "182735.422500", "182736.912500", "182738.402500", "182739.892500", "182741.382500", "182742.872500", "182744.362500", "182745.852500", "182747.342500", "182748.832500", "182750.322500", "182751.812500", "182753.302500", "182754.792500", "182756.282500", "182757.772500", "182759.262500", "182800.752500", "182802.242500", "182803.732500", "182805.222500", "182806.712500", "182808.202500", "182809.692500", "182811.182500", "182812.672500", "182814.162500", "182815.652500", "182817.142500", "182818.632500", "182820.122500", "182821.612500", "182823.102500", "182824.592500", "182826.082500", "182827.572500", "182829.062500", "182830.552500", "182832.042500", "182833.532500", "182835.022500", "182836.512500", "182838.002500", "182839.492500", "182840.982500", "182842.472500", "182843.962500", "182845.452500", "182846.942500", "182848.432500", "182849.922500", "182851.412500", "182852.902500", "182854.392500", "182855.882500", "182857.372500", "182858.862500", "182900.352500", "182901.842500", "182903.332500", "182904.822500", "182906.312500", "182907.802500", "182909.292500", "182910.782500", "182912.272500", "182913.762500", "182915.252500", "182916.742500", "182918.232500", "182919.722500", "182921.212500", "182922.702500", "182924.192500", "182925.682500", "182927.172500", "182928.662500", "182930.152500", "182931.642500", "182933.132500", "182934.622500", "182936.112500", "182937.602500", "182939.092500", "182940.582500", "182942.072500", "182943.562500", "182945.052500", "182946.542500", "182948.032500", "182949.522500", "182951.012500", "182952.502500", "182953.992500", "182955.482500", "182956.972500", "182958.462500", "182959.952500", "183001.442500", "183002.932500", "183004.422500", "183005.912500", "183007.402500", "183008.892500", "183010.382500", "183011.872500", "183013.362500", "183014.852500", "183016.342500", "183017.832500", "183019.322500", "183020.812500", "183022.302500", "183023.792500", "183025.282500", "183026.772500", "183028.262500", "183029.752500", "183031.242500", "183032.732500", "183034.222500", "183035.712500", "183037.202500", "183038.692500", "183040.182500", "183041.672500", "183043.162500", "183044.652500", "183046.142500", "183047.632500", "183049.122500", "183050.612500", "183052.102500", "183053.592500", "183055.082500", "183056.572500", "183058.062500", "183059.552500", "183101.042500", "183102.532500", "183104.022500", "183105.512500", "183107.002500", "183108.492500", "183109.982500", "183111.472500", "183112.962500", "183114.452500", "183115.942500", "183117.432500", "183118.922500", "183120.412500", "183121.902500", "183123.392500", "183124.882500", "183126.372500", "183127.862500", "183129.352500", "183130.842500", "183132.332500", "183133.822500", "183135.312500", "183136.802500", "183138.292500", "183139.782500", "183141.272500", "183142.762500", "183144.252500", "183145.742500", "183147.232500", "183148.722500", "183150.212500", "183151.702500", "183153.192500", "183154.682500", "183156.172500", "183157.662500", "183159.152500", "183200.642500", "183202.132500", "183203.622500", "183205.112500", "183206.602500", "183208.092500", "183209.582500", "183211.072500", "183212.562500", "183214.052500", "183215.542500", "183217.032500", "183218.522500", "183220.012500", "183221.502500", "183222.992500", "183224.482500", "183225.972500", "183227.462500", "183228.952500", "183230.442500", "183231.932500", "183233.422500", "183234.912500", "183236.402500", "183237.892500", "183239.382500", "183240.872500", "183242.362500", "183243.852500", "183245.342500", "183246.832500", "183248.322500", "183249.812500", "183251.302500", "183252.792500", "183254.282500", "183255.772500", "183257.262500", "183258.752500", "183300.242500", "183301.732500", "183303.222500", "183304.712500", "183306.202500", "183307.692500", "183309.182500", "183310.672500", "183312.162500", "183313.652500", "183315.142500", "183316.632500", "183318.122500", "183319.612500", "183321.102500", "183322.592500", "183324.082500", "183325.572500", "183327.062500", "183328.552500", "183330.042500", "183331.532500", "183333.022500", "183334.512500", "183336.002500", "183337.492500", "183338.982500", "183340.472500", "183341.962500", "183343.452500", "183344.942500", "183346.432500", "183347.922500", "183349.412500", "183350.902500", "183352.392500", "183353.882500", "183355.372500", "183356.862500", "183358.352500", "183359.842500", "183401.332500", "183402.822500", "183404.312500", "183405.802500", "183407.292500", "183408.782500", "183410.272500", "183411.762500", "183413.252500", "183414.742500", "183416.232500", "183417.722500", "183419.212500", "183420.702500", "183422.192500", "183423.682500", "183425.172500", "183426.662500", "183428.152500", "183429.642500", "183431.132500", "183432.622500", "183434.112500", "183435.602500", "183437.092500", "183438.582500", "183440.072500", "183441.562500", "183443.052500", "183444.542500", "183446.032500", "183447.522500", "183449.012500", "183450.502500", "183451.992500", "183453.482500", "183454.972500", "183456.462500", "183457.952500", "183459.442500", "183500.932500", "183502.422500", "183503.912500", "183505.402500", "183506.892500", "183508.382500", "183509.872500", "183511.362500", "183512.852500", "183514.342500", "183515.832500", "183517.322500", "183518.812500", "183520.302500", "183521.792500", "183523.282500", "183524.772500", "183526.262500", "183527.752500", "183529.242500", "183530.732500", "183532.222500", "183533.712500", "183535.202500", "183536.692500", "183538.182500", "183539.672500", "183541.162500", "183542.652500", "183544.142500", "183545.632500", "183547.122500", "183548.612500", "183550.102500", "183551.592500", "183553.082500", "183554.572500", "183556.062500", "183557.552500", "183559.042500", "183600.532500", "183602.022500", "183603.512500", "183605.002500", "183606.492500", "183607.982500", "183609.472500", "183610.962500", "183612.452500", "183613.942500", "183615.432500", "183616.922500", "183618.412500", "183619.902500", "183621.392500", "183622.882500", "183624.372500", "183625.862500", "183627.352500", "183628.842500", "183630.332500", "183631.822500", "183633.312500", "183634.802500", "183636.292500", "183637.782500", "183639.272500", "183640.762500", "183642.252500", "183643.742500", "183645.232500", "183646.722500", "183648.212500", "183649.702500", "183651.192500", "183652.682500", "183654.172500", "183655.662500", "183657.152500", "183658.642500", "183700.132500", "183701.622500", "183703.112500", "183704.602500", "183706.092500", "183707.582500", "183709.072500", "183710.562500", "183712.052500", "183713.542500", "183715.032500", "183716.522500", "183718.012500", "183719.502500", "183720.992500", "183722.482500", "183723.972500", "183725.462500", "183726.952500", "183728.442500", "183729.932500", "183731.422500", "183732.912500", "183734.402500", "183735.892500", "183737.382500", "183738.872500", "183740.362500", "183741.852500", "183743.342500", "183744.832500", "183746.322500", "183747.812500", "183749.302500", "183750.792500", "183752.282500", "183753.772500", "183755.262500", "183756.752500", "183758.242500", "183759.732500", "183801.222500", "183802.712500", "183804.202500", "183805.692500", "183807.182500", "183808.672500", "183810.162500", "183811.652500", "183813.142500", "183814.632500", "183816.122500", "183817.612500", "183819.102500"],
      "ContentTime": ["182726.565000", "182726.568000", "182726.571000", "182726.574000", "182726.577000", "182726.580000", "182726.583000", "182726.586000", "182726.592000", "182726.595000", "182726.598000", "182726.601000", "182726.604000", "182726.607000", "182726.611000", "182746.524000", "182746.527000", "182746.530000", "182746.533000", "182746.536000", "182746.539000", "182746.542000", "182746.545000", "182746.551000", "182746.554000", "182746.557000", "182746.560000", "182746.563000", "182746.566000", "182746.569000", "182746.572000", "182746.575000", "182746.577000", "182746.580000", "182746.583000", "182806.524000", "182806.527000", "182806.530000", "182806.533000", "182806.536000", "182806.539000", "182806.542000", "182806.545000", "182806.548000", "182806.568000", "182806.571000", "182806.574000", "182806.577000", "182806.580000", "182806.583000", "182806.586000", "182806.589000", "182806.592000", "182806.595000", "182806.598000", "182826.524000", "182826.527000", "182826.530000", "182826.533000", "182826.536000", "182826.539000", "182826.542000", "182826.544000", "182826.547000", "182826.554000", "182826.557000", "182826.560000", "182826.563000", "182826.566000", "182826.569000", "182826.572000", "182826.575000", "182826.578000", "182826.581000", "182826.584000", "182846.524000", "182846.527000", "182846.530000", "182846.533000", "182846.536000", "182846.539000", "182846.554000", "182846.557000", "182846.560000", "182846.563000", "182846.566000", "182846.569000", "182846.572000", "182846.575000", "182846.578000", "182846.580000", "182846.583000", "182846.586000", "182846.589000", "182846.592000", "182926.524000", "182926.527000", "182926.530000", "182926.533000", "182926.536000", "182926.539000", "182926.542000", "182926.545000", "182926.548000", "182926.551000", "182926.553000", "182926.557000", "182926.559000", "182926.562000", "182926.565000", "182926.568000", "182926.571000", "182926.574000", "182926.577000", "182926.580000", "182926.583000", "182926.586000", "182926.589000", "182926.592000", "182926.595000", "182926.598000", "182926.601000", "182926.604000", "182926.607000", "182926.610000", "183006.524000", "183006.527000", "183006.530000", "183006.533000", "183006.536000", "183006.539000", "183006.542000", "183006.545000", "183006.547000", "183006.550000", "183006.553000", "183006.556000", "183006.559000", "183006.562000", "183006.565000", "183006.568000", "183006.571000", "183006.574000", "183006.577000", "183006.580000", "183006.583000", "183006.586000", "183006.589000", "183006.592000", "183006.594000", "183006.597000", "183006.600000", "183046.524000", "183046.527000", "183046.530000", "183046.533000", "183046.536000", "183046.539000", "183046.542000", "183046.545000", "183046.548000", "183046.551000", "183046.554000", "183046.557000", "183046.560000", "183046.563000", "183046.566000", "183046.568000", "183046.572000", "183046.574000", "183046.577000", "183046.580000", "183046.583000", "183046.586000", "183046.589000", "183046.592000", "183046.602000", "183046.605000", "183046.608000", "183126.524000", "183126.527000", "183126.530000", "183126.533000", "183126.536000", "183126.539000", "183126.542000", "183126.545000", "183126.562000", "183126.565000", "183126.567000", "183126.570000", "183126.573000", "183126.576000", "183126.579000", "183126.582000", "183126.585000", "183126.588000", "183126.591000", "183126.594000", "183126.597000", "183126.600000", "183126.603000", "183126.606000", "183126.609000", "183126.612000", "183206.523000", "183206.526000", "183206.529000", "183206.532000", "183206.535000", "183206.538000", "183206.541000", "183206.544000", "183206.547000", "183206.550000", "183206.553000", "183206.556000", "183206.559000", "183206.562000", "183206.565000", "183206.568000", "183206.571000", "183206.574000", "183206.577000", "183206.580000", "183206.582000", "183206.585000", "183206.588000", "183206.591000", "183206.594000", "183206.597000", "183206.600000", "183246.524000", "183246.527000", "183246.530000", "183246.533000", "183246.536000", "183246.539000", "183246.542000", "183246.545000", "183246.548000", "183246.556000", "183246.559000", "183246.562000", "183246.565000", "183246.568000", "183246.571000", "183246.574000", "183246.577000", "183246.580000", "183246.583000", "183246.586000", "183246.589000", "183246.591000", "183246.594000", "183246.597000", "183246.600000", "183246.603000", "183246.606000", "183326.524000", "183326.527000", "183326.530000", "183326.533000", "183326.536000", "183326.539000", "183326.542000", "183326.545000", "183326.548000", "183326.551000", "183326.554000", "183326.557000", "183326.560000", "183326.563000", "183326.566000", "183326.569000", "183326.572000", "183326.575000", "183326.577000", "183326.580000", "183326.583000", "183326.586000", "183326.589000", "183326.592000", "183326.595000", "183326.598000", "183326.601000", "183406.524000", "183406.527000", "183406.530000", "183406.533000", "183406.536000", "183406.539000", "183406.542000", "183406.545000", "183406.548000", "183406.551000", "183406.554000", "183406.557000", "183406.560000", "183406.563000", "183406.566000", "183406.569000", "183406.572000", "183406.575000", "183406.578000", "183406.581000", "183406.583000", "183406.586000", "183406.589000", "183406.592000", "183406.595000", "183406.598000", "183406.601000", "183446.524000", "183446.527000", "183446.530000", "183446.533000", "183446.536000", "183446.539000", "183446.542000", "183446.545000", "183446.548000", "183446.551000", "183446.554000", "183446.557000", "183446.560000", "183446.563000", "183446.566000", "183446.569000", "183446.571000", "183446.574000", "183446.577000", "183446.580000", "183446.583000", "183446.586000", "183446.589000", "183446.592000", "183446.595000", "183446.598000", "183446.601000", "183526.524000", "183526.527000", "183526.530000", "183526.533000", "183526.536000", "183526.539000", "183526.542000", "183526.545000", "183526.548000", "183526.551000", "183526.554000", "183526.557000", "183526.560000", "183526.563000", "183526.566000", "183526.569000", "183526.572000", "183526.575000", "183526.578000", "183526.581000", "183526.584000", "183526.587000", "183526.590000", "183526.593000", "183526.596000", "183526.599000", "183606.524000", "183606.527000", "183606.530000", "183606.533000", "183606.536000", "183606.539000", "183606.542000", "183606.545000", "183606.548000", "183606.563000", "183606.566000", "183606.569000", "183606.572000", "183606.575000", "183606.578000", "183606.581000", "183606.584000", "183606.587000", "183606.590000", "183606.593000", "183606.596000", "183606.599000", "183606.602000", "183606.605000", "183606.608000", "183606.610000", "183606.614000", "183646.523000", "183646.526000", "183646.529000", "183646.532000", "183646.535000", "183646.538000", "183646.541000", "183646.544000", "183646.547000", "183646.550000", "183646.553000", "183646.556000", "183646.559000", "183646.562000", "183646.565000", "183646.568000", "183646.571000", "183646.573000", "183646.576000", "183646.579000", "183646.582000", "183646.585000", "183646.588000", "183646.591000", "183646.594000", "183646.597000", "183646.600000", "183706.524000", "183706.527000", "183706.530000", "183706.533000", "183706.536000", "183706.539000", "183706.542000", "183706.545000", "183706.548000", "183706.551000", "183706.554000", "183706.557000", "183706.560000", "183706.563000", "183746.524000", "183746.527000", "183746.530000", "183746.533000", "183746.536000", "183746.539000", "183746.542000", "183746.545000", "183746.548000", "183746.551000", "183746.554000", "183746.557000", "183746.560000", "183746.564000", "183746.567000", "183746.570000", "183746.574000", "183746.577000", "183746.580000", "183746.584000", "183746.586000", "183746.589000", "183746.593000", "183746.596000", "183746.599000", "183746.602000", "183820.901000", "183820.905000", "183820.908000", "183820.911000", "183820.914000", "183820.917000", "183820.920000", "183820.923000", "183820.926000", "183820.929000", "183820.932000", "183820.935000", "183820.938000", "183820.941000", "183820.944000", "183820.947000", "183820.950000", "183820.953000", "183820.956000", "183820.959000", "183820.962000", "183820.965000", "183820.968000", "183820.971000"],
