{
  "AcquisitionMatrixPE": 104,
  "AcquisitionNumber": 1,
  "AcquisitionTime": "17:49:15.545000",
  "BandwidthPerPixelPhaseEncode": 17.17,
  "BaseResolution": 104,
  "BodyPartExamined": "BRAIN",
  "CoilString": "HC1-7;NC1_2",
  "ConsistencyInfo": "N4_VE11C_LATEST_20160120",
  "ConversionSoftware": "dcm2niix",
  "ConversionSoftwareVersion": "v1.0.20190902",
  "DerivedVendorReportedEchoSpacing": 0.000560011,
  "DeviceSerialNumber": "167006",
  "DwellTime": 2.1e-06,
  "EchoTime": 0.037,
  "EchoTrainLength": 104,
  "EffectiveEchoSpacing": 0.000560011,
  "FlipAngle": 52,
  "ImageComments": "Unaliased_MB4_PE3_LB",
  "ImageOrientationPatientDICOM": [0.998872, -0.04744, 0.00198596, 0.0446598, 0.924485, -0.378592],
  "ImageType": [
    "ORIGINAL",
    "PRIMARY",
    "M",
    "MB",
    "ND",
    "MOSAIC"
],
  "ImagingFrequency": 123.259,
  "InPlanePhaseEncodingDirectionDICOM": "COL",
  "InstitutionAddress": "Chemin_Queen-Mary_4565_Montreal_District_CA_H3W_1W5",
  "InstitutionName": "IUGM",
  "InstitutionalDepartmentName": "Department",
  "MRAcquisitionType": "2D",
  "MagneticFieldStrength": 3,
  "Manufacturer": "Siemens",
  "ManufacturersModelName": "Prisma_fit",
  "Modality": "MR",
  "MultibandAccelerationFactor": 4,
  "PartialFourier": 1,
  "PatientPosition": "HFS",
  "PercentPhaseFOV": 100,
  "PhaseEncodingDirection": "j",
  "PhaseEncodingSteps": 104,
  "PhaseResolution": 1,
  "PixelBandwidth": 2290,
  "ProcedureStepDescription": "video_friends",
  "ProtocolName": "func_task-friends-s03e04a",
  "PulseSequenceDetails": "%CustomerSeq%_cmrr_mbep2d_bold",
  "ReceiveCoilActiveElements": "HC1-7;NC1,2",
  "ReceiveCoilName": "HeadNeck_64",
  "ReconMatrixPE": 104,
  "RepetitionTime": 1.49,
  "SAR": 0.0360292,
  "ScanOptions": "FS",
  "ScanningSequence": "EP",
  "SequenceName": "epfid2d1_104",
  "SequenceVariant": "SK_SS",
  "SeriesDescription": "func_task-friends-s03e04a",
  "SeriesNumber": 23,
  "ShimSetting": [616, -7277, -8830, 404, 23, -465, 66, 31],
  "SliceThickness": 2,
  "SliceTiming": [0, 0.7825, 0.0975, 0.8825, 0.195, 0.98, 0.2925, 1.0775, 0.3925, 1.175, 0.49, 1.2725, 0.5875, 1.3725, 0.685, 0, 0.7825, 0.0975, 0.8825, 0.195, 0.98, 0.2925, 1.0775, 0.3925, 1.175, 0.49, 1.2725, 0.5875, 1.3725, 0.685, 0, 0.7825, 0.0975, 0.8825, 0.195, 0.98, 0.2925, 1.0775, 0.3925, 1.175, 0.49, 1.2725, 0.5875, 1.3725, 0.685, 0, 0.7825, 0.0975, 0.8825, 0.195, 0.98, 0.2925, 1.0775, 0.3925, 1.175, 0.49, 1.2725, 0.5875, 1.3725, 0.685],
  "SoftwareVersions": "syngo_MR_E11",
  "SpacingBetweenSlices": 2,
  "StationName": "MRC35049",
  "TaskName": "s03e04a",
  "TotalReadoutTime": 0.0576811,
  "TxRefAmp": 236.309,
  "WipMemBlock": "f7b6c117-2074-446d-a855-b2a1f8107b28||Sequence: R016 ve11c/master r/e634e98; Dec 19 2017 11:00:25 by eja",
  "dcmmeta_affine": [
    [-1.9977442026138306, 0.08931966125965118, -0.03224887326359749, 96.69943237304688],
    [0.09488000720739365, 1.8489707708358765, -0.7565082311630249, -73.2999038696289],
    [0.003971916623413563, 0.7571848630905151, 1.8511227369308472, -67.06394958496094],
    [0.0, 0.0, 0.0, 1.0]
],
  "dcmmeta_reorient_transform": [
    [0.0, -1.0, 0.0, 103.0],
    [1.0, 0.0, 0.0, 0.0],
    [0.0, 0.0, 1.0, 0.0],
    [0.0, 0.0, 0.0, 1.0]
],
  "dcmmeta_shape": [104, 104, 60, 473],
  "dcmmeta_slice_dim": 2,
  "dcmmeta_version": 0.6,
  "global": {
    "const": {
      "AcquisitionMatrix": [104, 0, 0, 104],
      "AngioFlag": "N",
      "BitsAllocated": 16,
      "BitsStored": 16,
      "BodyPartExamined": "BRAIN",
      "Columns": 832,
      "EchoNumbers": 1,
      "EchoTime": 37.0,
      "EchoTrainLength": 104,
      "FlipAngle": 52.0,
      "HighBit": 15,
      "ImageOrientationPatient": [0.9988721149258, -0.0474400041421, 0.00198595837116, 0.04465983180173, 0.92448541384559, -0.3785924180569],
      "ImagePositionPatient": [-865.59061351176, -755.63314874747, 285.09559049554],
      "ImageType": [
        "ORIGINAL",
        "PRIMARY",
        "M",
        "MB",
        "ND",
        "MOSAIC"
],
      "ImagedNucleus": "1H",
      "ImagingFrequency": 123.258988,
      "InPlanePhaseEncodingDirection": "COL",
      "MRAcquisitionType": "2D",
      "MagneticFieldStrength": 3.0,
      "Manufacturer": "SIEMENS",
      "ManufacturerModelName": "Prisma_fit",
      "Modality": "MR",
      "NumberOfAverages": 1.0,
      "NumberOfPhaseEncodingSteps": 104,
      "PercentPhaseFieldOfView": 100.0,
      "PercentSampling": 100.0,
      "PerformedProcedureStepStartTime": "160107.299000",
      "PhotometricInterpretation": "MONOCHROME2",
      "PixelBandwidth": 2290.0,
      "PixelRepresentation": 0,
      "PixelSpacing": [2.0, 2.0],
      "ProtocolName": "func_task-friends-s03e04a",
      "RepetitionTime": 1490.0,
      "Rows": 832,
      "SAR": 0.03602924172238,
      "SamplesPerPixel": 1,
      "ScanOptions": "FS",
      "ScanningSequence": "EP",
      "SequenceName": "epfid2d1_104",
      "SequenceVariant": [
        "SK",
        "SS"
],
      "SeriesDescription": "func_task-friends-s03e04a",
      "SeriesNumber": 23,
      "SeriesTime": "175046.569000",
      "SliceLocation": -35.905035406341,
      "SliceThickness": 2.0,
      "SmallestImagePixelValue": 0,
      "SoftwareVersions": "syngo MR E11",
      "SpacingBetweenSlices": 2.0000000128173,
      "SpecificCharacterSet": "ISO_IR 100",
      "StudyID": "1",
      "StudyTime": "160107.154000",
      "TransmitCoilName": "Body",
      "VariableFlipAngleFlag": "N",
      "WindowCenterWidthExplanation": "Algo1",
      "dBdt": 0.0},
    "slices": {}
  },
  "time": {
    "samples": {
      "AcquisitionNumber": [1, 2, 3, 4, 5, 6, 7, 8, 9, 10, 11, 12, 13, 14, 15, 16, 17, 18, 19, 20, 21, 22, 23, 24, 25, 26, 27, 28, 29, 30, 31, 32, 33, 34, 35, 36, 37, 38, 39, 40, 41, 42, 43, 44, 45, 46, 47, 48, 49, 50, 51, 52, 53, 54, 55, 56, 57, 58, 59, 60, 61, 62, 63, 64, 65, 66, 67, 68, 69, 70, 71, 72, 73, 74, 75, 76, 77, 78, 79, 80, 81, 82, 83, 84, 85, 86, 87, 88, 89, 90, 91, 92, 93, 94, 95, 96, 97, 98, 99, 100, 101, 102, 103, 104, 105, 106, 107, 108, 109, 110, 111, 112, 113, 114, 115, 116, 117, 118, 119, 120, 121, 122, 123, 124, 125, 126, 127, 128, 129, 130, 131, 132, 133, 134, 135, 136, 137, 138, 139, 140, 141, 142, 143, 144, 145, 146, 147, 148, 149, 150, 151, 152, 153, 154, 155, 156, 157, 158, 159, 160, 161, 162, 163, 164, 165, 166, 167, 168, 169, 170, 171, 172, 173, 174, 175, 176, 177, 178, 179, 180, 181, 182, 183, 184, 185, 186, 187, 188, 189, 190, 191, 192, 193, 194, 195, 196, 197, 198, 199, 200, 201, 202, 203, 204, 205, 206, 207, 208, 209, 210, 211, 212, 213, 214, 215, 216, 217, 218, 219, 220, 221, 222, 223, 224, 225, 226, 227, 228, 229, 230, 231, 232, 233, 234, 235, 236, 237, 238, 239, 240, 241, 242, 243, 244, 245, 246, 247, 248, 249, 250, 251, 252, 253, 254, 255, 256, 257, 258, 259, 260, 261, 262, 263, 264, 265, 266, 267, 268, 269, 270, 271, 272, 273, 274, 275, 276, 277, 278, 279, 280, 281, 282, 283, 284, 285, 286, 287, 288, 289, 290, 291, 292, 293, 294, 295, 296, 297, 298, 299, 300, 301, 302, 303, 304, 305, 306, 307, 308, 309, 310, 311, 312, 313, 314, 315, 316, 317, 318, 319, 320, 321, 322, 323, 324, 325, 326, 327, 328, 329, 330, 331, 332, 333, 334, 335, 336, 337, 338, 339, 340, 341, 342, 343, 344, 345, 346, 347, 348, 349, 350, 351, 352, 353, 354, 355, 356, 357, 358, 359, 360, 361, 362, 363, 364, 365, 366, 367, 368, 369, 370, 371, 372, 373, 374, 375, 376, 377, 378, 379, 380, 381, 382, 383, 384, 385, 386, 387, 388, 389, 390, 391, 392, 393, 394, 395, 396, 397, 398, 399, 400, 401, 402, 403, 404, 405, 406, 407, 408, 409, 410, 411, 412, 413, 414, 415, 416, 417, 418, 419, 420, 421, 422, 423, 424, 425, 426, 427, 428, 429, 430, 431, 432, 433, 434, 435, 436, 437, 438, 439, 440, 441, 442, 443, 444, 445, 446, 447, 448, 449, 450, 451, 452, 453, 454, 455, 456, 457, 458, 459, 460, 461, 462, 463, 464, 465, 466, 467, 468, 469, 470, 471, 472, 473],
      "AcquisitionTime": ["174915.545000", "174917.035000", "174918.525000", "174920.015000", "174921.505000", "174922.995000", "174924.485000", "174925.975000", "174927.465000", "174928.955000", "174930.445000", "174931.935000", "174933.425000", "174934.915000", "174936.405000", "174937.895000", "174939.385000", "174940.875000", "174942.365000", "174943.855000", "174945.345000", "174946.835000", "174948.325000", "174949.815000", "174951.305000", "174952.795000", "174954.285000", "174955.775000", "174957.265000", "174958.755000", "175000.245000", "175001.735000", "175003.225000", "175004.715000", "175006.205000", "175007.695000", "175009.185000", "175010.675000", "175012.165000", "175013.655000", "175015.145000", "175016.635000", "175018.125000", "175019.615000", "175021.105000", "175022.595000", "175024.085000", "175025.575000", "175027.065000", "175028.555000", "175030.045000", "175031.535000", "175033.025000", "175034.515000", "175036.005000", "175037.495000", "175038.985000", "175040.475000", "175041.965000", "175043.455000", "175044.945000", "175046.435000", "175047.925000", "175049.415000", "175050.905000", "175052.395000", "175053.885000", "175055.375000", "175056.865000", "175058.355000", "175059.845000", "175101.335000", "175102.825000", "175104.315000", "175105.805000", "175107.295000", "175108.785000", "175110.275000", "175111.765000", "175113.255000", "175114.745000", "175116.235000", "175117.725000", "175119.215000", "175120.705000", "175122.195000", "175123.685000", "175125.175000", "175126.665000", "175128.155000", "175129.645000", "175131.135000", "175132.625000", "175134.115000", "175135.605000", "175137.095000", "175138.585000", "175140.075000", "175141.565000", "175143.055000", "175144.545000", "175146.035000", "175147.525000", "175149.015000", "175150.505000", "175151.995000", "175153.485000", "175154.975000", "175156.465000", "175157.955000", "175159.445000", "175200.935000", "175202.425000", "175203.915000", "175205.405000", "175206.895000", "175208.385000", "175209.875000", "175211.365000", "175212.855000", "175214.345000", "175215.835000", "175217.325000", "175218.815000", "175220.305000", "175221.795000", "175223.285000", "175224.775000", "175226.265000", "175227.755000", "175229.245000", "175230.735000", "175232.225000", "175233.715000", "175235.205000", "175236.695000", "175238.185000", "175239.675000", "175241.165000", "175242.655000", "175244.145000", "175245.635000", "175247.125000", "175248.615000", "175250.105000", "175251.595000", "175253.085000", "175254.575000", "175256.065000", "175257.555000", "175259.045000", "175300.535000", "175302.025000", "175303.515000", "175305.005000", "175306.495000", "175307.985000", "175309.475000", "175310.965000", "175312.455000", "175313.945000", "175315.435000", "175316.925000", "175318.415000", "175319.905000", "175321.395000", "175322.885000", "175324.375000", "175325.865000", "175327.355000", "175328.845000", "175330.335000", "175331.825000", "175333.315000", "175334.805000", "175336.295000", "175337.785000", "175339.275000", "175340.765000", "175342.255000", "175343.745000", "175345.235000", "175346.725000", "175348.215000", "175349.705000", "175351.195000", "175352.685000", "175354.175000", "175355.665000", "175357.155000", "175358.645000", "175400.135000", "175401.625000", "175403.115000", "175404.605000", "175406.095000", "175407.585000", "175409.075000", "175410.565000", "175412.055000", "175413.545000", "175415.035000", "175416.525000", "175418.015000", "175419.505000", "175420.995000", "175422.485000", "175423.975000", "175425.465000", "175426.955000", "175428.445000", "175429.935000", "175431.425000", "175432.915000", "175434.405000", "175435.895000", "175437.385000", "175438.875000", "175440.365000", "175441.855000", "175443.345000", "175444.835000", "175446.325000", "175447.815000", "175449.305000", "175450.795000", "175452.285000", "175453.775000", "175455.265000", "175456.755000", "175458.245000", "175459.735000", "175501.225000", "175502.715000", "175504.205000", "175505.695000", "175507.185000", "175508.675000", "175510.165000", "175511.655000", "175513.145000", "175514.635000", "175516.125000", "175517.615000", "175519.105000", "175520.595000", "175522.085000", "175523.575000", "175525.065000", "175526.555000", "175528.045000", "175529.535000", "175531.025000", "175532.515000", "175534.005000", "175535.495000", "175536.985000", "175538.475000", "175539.965000", "175541.455000", "175542.945000", "175544.435000", "175545.925000", "175547.415000", "175548.905000", "175550.395000", "175551.885000", "175553.375000", "175554.865000", "175556.355000", "175557.845000", "175559.335000", "175600.825000", "175602.315000", "175603.805000", "175605.295000", "175606.785000", "175608.275000", "175609.765000", "175611.255000", "175612.745000", "175614.235000", "175615.725000", "175617.215000", "175618.705000", "175620.195000", "175621.685000", "175623.175000", "175624.665000", "175626.155000", "175627.645000", "175629.135000", "175630.625000", "175632.115000", "175633.605000", "175635.095000", "175636.585000", "175638.075000", "175639.565000", "175641.055000", "175642.545000", "175644.035000", "175645.525000", "175647.015000", "175648.505000", "175649.995000", "175651.485000", "175652.975000", "175654.465000", "175655.955000", "175657.445000", "175658.935000", "175700.425000", "175701.915000", "175703.405000", "175704.895000", "175706.385000", "175707.875000", "175709.365000", "175710.855000", "175712.345000", "175713.835000", "175715.325000", "175716.815000", "175718.305000", "175719.795000", "175721.285000", "175722.775000", "175724.265000", "175725.755000", "175727.245000", "175728.735000", "175730.225000", "175731.715000", "175733.205000", "175734.695000", "175736.185000", "175737.675000", "175739.165000", "175740.655000", "175742.145000", "175743.635000", "175745.125000", "175746.615000", "175748.105000", "175749.595000", "175751.085000", "175752.575000", "175754.065000", "175755.555000", "175757.045000", "175758.535000", "175800.025000", "175801.515000", "175803.005000", "175804.495000", "175805.985000", "175807.475000", "175808.965000", "175810.455000", "175811.945000", "175813.435000", "175814.925000", "175816.415000", "175817.905000", "175819.395000", "175820.885000", "175822.375000", "175823.865000", "175825.355000", "175826.845000", "175828.335000", "175829.825000", "175831.315000", "175832.805000", "175834.295000", "175835.785000", "175837.275000", "175838.765000", "175840.255000", "175841.745000", "175843.235000", "175844.725000", "175846.215000", "175847.705000", "175849.195000", "175850.685000", "175852.175000", "175853.665000", "175855.155000", "175856.645000", "175858.135000", "175859.625000", "175901.115000", "175902.605000", "175904.095000", "175905.585000", "175907.075000", "175908.565000", "175910.055000", "175911.545000", "175913.035000", "175914.525000", "175916.015000", "175917.505000", "175918.995000", "175920.485000", "175921.975000", "175923.465000", "175924.955000", "175926.445000", "175927.935000", "175929.425000", "175930.915000", "175932.405000", "175933.895000", "175935.385000", "175936.875000", "175938.365000", "175939.855000", "175941.345000", "175942.835000", "175944.325000", "175945.815000", "175947.305000", "175948.795000", "175950.285000", "175951.775000", "175953.265000", "175954.755000", "175956.245000", "175957.735000", "175959.225000", "180000.715000", "180002.205000", "180003.695000", "180005.185000", "180006.675000", "180008.165000", "180009.655000", "180011.145000", "180012.635000", "180014.125000", "180015.615000", "180017.105000", "180018.595000", "180020.085000", "180021.575000", "180023.065000", "180024.555000", "180026.045000", "180027.535000", "180029.025000", "180030.515000", "180032.005000", "180033.495000", "180034.985000", "180036.475000", "180037.965000", "180039.455000", "180040.945000", "180042.435000", "180043.925000", "180045.415000", "180046.905000", "180048.395000", "180049.885000", "180051.375000", "180052.865000", "180054.355000", "180055.845000", "180057.335000", "180058.825000"],
      "ContentTime": ["175046.572000", "175046.576000", "175046.578000", "175046.581000", "175046.584000", "175046.587000", "175046.590000", "175046.593000", "175046.596000", "175046.599000", "175046.602000", "175046.605000", "175046.608000", "175046.611000", "175046.614000", "175046.621000", "175046.624000", "175046.627000", "175046.629000", "175046.632000", "175046.635000", "175046.638000", "175046.641000", "175046.654000", "175046.657000", "175046.660000", "175046.663000", "175046.666000", "175046.669000", "175046.672000", "175046.675000", "175046.678000", "175046.681000", "175046.684000", "175046.686000", "175106.524000", "175106.527000", "175106.530000", "175106.533000", "175106.536000", "175106.539000", "175106.542000", "175106.545000", "175106.548000", "175106.551000", "175106.554000", "175106.556000", "175106.560000", "175106.563000", "175106.566000", "175106.569000", "175106.572000", "175106.587000", "175106.590000", "175106.593000", "175126.524000", "175126.527000", "175126.530000", "175126.533000", "175126.536000", "175126.539000", "175126.542000", "175126.545000", "175126.548000", "175126.551000", "175126.554000", "175126.557000", "175126.559000", "175126.562000", "175126.565000", "175126.568000", "175126.571000", "175126.574000", "175126.577000", "175126.580000", "175126.583000", "175146.524000", "175146.535000", "175146.537000", "175146.540000", "175146.543000", "175146.546000", "175146.549000", "175146.552000", "175146.555000", "175146.558000", "175146.561000", "175146.564000", "175146.567000", "175146.570000", "175146.573000", "175146.576000", "175146.579000", "175146.582000", "175146.585000", "175146.588000", "175226.524000", "175226.527000", "175226.530000", "175226.533000", "175226.536000", "175226.539000", "175226.542000", "175226.545000", "175226.548000", "175226.551000", "175226.554000", "175226.556000", "175226.559000", "175226.562000", "175226.565000", "175226.568000", "175226.571000", "175226.574000", "175226.577000", "175226.580000", "175226.583000", "175226.586000", "175226.589000", "175226.592000", "175226.595000", "175226.597000", "175226.600000", "175226.603000", "175226.606000", "175226.609000", "175226.612000", "175306.524000", "175306.527000", "175306.530000", "175306.533000", "175306.536000", "175306.539000", "175306.542000", "175306.545000", "175306.548000", "175306.551000", "175306.554000", "175306.557000", "175306.559000", "175306.562000", "175306.565000", "175306.568000", "175306.571000", "175306.574000", "175306.577000", "175306.580000", "175306.583000", "175306.586000", "175306.589000", "175306.592000", "175306.595000", "175306.598000", "175306.601000", "175346.524000", "175346.527000", "175346.530000", "175346.533000", "175346.536000", "175346.539000", "175346.542000", "175346.545000", "175346.548000", "175346.551000", "175346.554000", "175346.557000", "175346.559000", "175346.562000", "175346.565000", "175346.568000", "175346.571000", "175346.574000", "175346.577000", "175346.580000", "175346.583000", "175346.586000", "175346.589000", "175346.592000", "175346.595000", "175346.598000", "175346.601000", "175426.524000", "175426.527000", "175426.530000", "175426.533000", "175426.536000", "175426.539000", "175426.542000", "175426.545000", "175426.548000", "175426.551000", "175426.554000", "175426.557000", "175426.560000", "175426.562000", "175426.565000", "175426.568000", "175426.572000", "175426.574000", "175426.577000", "175426.580000", "175426.583000", "175426.586000", "175426.589000", "175426.592000", "175426.595000", "175426.598000", "175426.601000", "175506.523000", "175506.526000", "175506.529000", "175506.532000", "175506.535000", "175506.538000", "175506.541000", "175506.544000", "175506.547000", "175506.550000", "175506.553000", "175506.556000", "175506.559000", "175506.562000", "175506.565000", "175506.568000", "175506.571000", "175506.574000", "175506.577000", "175506.580000", "175506.583000", "175506.586000", "175506.589000", "175506.592000", "175506.594000", "175506.597000", "175506.600000", "175546.524000", "175546.527000", "175546.531000", "175546.534000", "175546.537000", "175546.552000", "175546.555000", "175546.558000", "175546.561000", "175546.564000", "175546.566000", "175546.569000", "175546.572000", "175546.575000", "175546.578000", "175546.581000", "175546.584000", "175546.587000", "175546.590000", "175546.593000", "175546.596000", "175546.599000", "175546.602000", "175546.605000", "175546.608000", "175546.611000", "175626.524000", "175626.527000", "175626.530000", "175626.533000", "175626.536000", "175626.539000", "175626.542000", "175626.545000", "175626.548000", "175626.551000", "175626.554000", "175626.557000", "175626.560000", "175626.563000", "175626.565000", "175626.568000", "175626.571000", "175626.574000", "175626.577000", "175626.580000", "175626.583000", "175626.586000", "175626.589000", "175626.592000", "175626.595000", "175626.598000", "175626.601000", "175706.524000", "175706.527000", "175706.530000", "175706.533000", "175706.536000", "175706.539000", "175706.542000", "175706.545000", "175706.548000", "175706.551000", "175706.554000", "175706.557000", "175706.560000", "175706.563000", "175706.566000", "175706.569000", "175706.572000", "175706.575000", "175706.578000", "175706.581000", "175706.584000", "175706.601000", "175706.604000", "175706.607000", "175706.610000", "175706.613000", "175706.616000", "175746.524000", "175746.527000", "175746.530000", "175746.533000", "175746.547000", "175746.550000", "175746.553000", "175746.556000", "175746.559000", "175746.562000", "175746.565000", "175746.568000", "175746.571000", "175746.574000", "175746.577000", "175746.580000", "175746.583000", "175746.586000", "175746.589000", "175746.592000", "175746.595000", "175746.598000", "175746.601000", "175746.604000", "175746.607000", "175746.610000", "175746.612000", "175826.524000", "175826.527000", "175826.530000", "175826.533000", "175826.536000", "175826.539000", "175826.542000", "175826.545000", "175826.548000", "175826.551000", "175826.554000", "175826.557000", "175826.560000", "175826.563000", "175826.566000", "175826.569000", "175826.572000", "175826.575000", "175826.578000", "175826.581000", "175826.584000", "175826.586000", "175826.589000", "175826.592000", "175826.595000", "175826.598000", "175826.601000", "175906.524000", "175906.527000", "175906.530000", "175906.533000", "175906.536000", "175906.539000", "175906.542000", "175906.545000", "175906.548000", "175906.551000", "175906.554000", "175906.557000", "175906.560000", "175906.563000", "175906.565000", "175906.568000", "175906.571000", "175906.574000", "175906.577000", "175906.580000", "175906.583000", "175906.586000", "175906.589000", "175906.592000", "175906.595000", "175906.598000", "175906.601000", "175946.523000", "175946.526000", "175946.529000", "175946.532000", "175946.535000", "175946.538000", "175946.553000", "175946.556000", "175946.559000", "175946.562000", "175946.565000", "175946.568000", "175946.572000", "175946.575000", "175946.578000", "175946.581000", "175946.584000", "175946.587000", "175946.590000", "175946.593000", "175946.596000", "175946.599000", "175946.602000", "175946.605000", "175946.608000", "175946.611000", "180026.524000", "180026.527000", "180026.530000", "180026.533000", "180026.536000", "180026.539000", "180026.542000", "180026.545000", "180026.548000", "180026.551000", "180026.554000", "180026.557000", "180026.559000", "180026.562000", "180026.565000", "180026.568000", "180026.571000", "180026.574000", "180026.577000", "180026.580000", "180026.583000", "180026.586000", "180026.589000", "180026.592000", "180026.595000", "180026.598000", "180026.601000", "180101.104000", "180101.107000", "180101.110000", "180101.113000", "180101.117000", "180101.120000", "180101.123000", "180101.126000", "180101.129000", "180101.132000", "180101.135000", "180101.138000", "180101.141000", "180101.144000", "180101.147000", "180101.150000", "180101.153000", "180101.156000", "180101.159000", "180101.162000", "180101.165000", "180101.168000", "180101.171000", "180101.174000"],
