{
  "AcquisitionMatrixPE": 104,
  "AcquisitionNumber": 1,
  "AcquisitionTime": "18:13:54.245000",
  "BandwidthPerPixelPhaseEncode": 17.17,
  "BaseResolution": 104,
  "BodyPartExamined": "BRAIN",
  "CoilString": "HC1-7;NC1_2",
  "ConsistencyInfo": "N4_VE11C_LATEST_20160120",
  "ConversionSoftware": "dcm2niix",
  "ConversionSoftwareVersion": "v1.0.20190902",
  "DerivedVendorReportedEchoSpacing": 0.000560011,
  "DeviceSerialNumber": "167006",
  "DwellTime": 2.1e-06,
  "EchoTime": 0.037,
  "EchoTrainLength": 104,
  "EffectiveEchoSpacing": 0.000560011,
  "FlipAngle": 52,
  "ImageComments": "Unaliased_MB4_PE3_LB",
  "ImageOrientationPatientDICOM": [0.998872, -0.04744, 0.00198596, 0.0446598, 0.924485, -0.378592],
  "ImageType": [
    "ORIGINAL",
    "PRIMARY",
    "M",
    "MB",
    "ND",
    "MOSAIC"
],
  "ImagingFrequency": 123.259,
  "InPlanePhaseEncodingDirectionDICOM": "COL",
  "InstitutionAddress": "Chemin_Queen-Mary_4565_Montreal_District_CA_H3W_1W5",
  "InstitutionName": "IUGM",
  "InstitutionalDepartmentName": "Department",
  "MRAcquisitionType": "2D",
  "MagneticFieldStrength": 3,
  "Manufacturer": "Siemens",
  "ManufacturersModelName": "Prisma_fit",
  "Modality": "MR",
  "MultibandAccelerationFactor": 4,
  "PartialFourier": 1,
  "PatientPosition": "HFS",
  "PercentPhaseFOV": 100,
  "PhaseEncodingDirection": "j",
  "PhaseEncodingSteps": 104,
  "PhaseResolution": 1,
  "PixelBandwidth": 2290,
  "ProcedureStepDescription": "video_friends",
  "ProtocolName": "func_task-friends-s03e05a",
  "PulseSequenceDetails": "%CustomerSeq%_cmrr_mbep2d_bold",
  "ReceiveCoilActiveElements": "HC1-7;NC1,2",
  "ReceiveCoilName": "HeadNeck_64",
  "ReconMatrixPE": 104,
  "RepetitionTime": 1.49,
  "SAR": 0.0360327,
  "ScanOptions": "FS",
  "ScanningSequence": "EP",
  "SequenceName": "epfid2d1_104",
  "SequenceVariant": "SK_SS",
  "SeriesDescription": "func_task-friends-s03e05a",
  "SeriesNumber": 27,
  "ShimSetting": [616, -7277, -8830, 404, 23, -465, 66, 31],
  "SliceThickness": 2,
  "SliceTiming": [0, 0.785, 0.0975, 0.8825, 0.195, 0.98, 0.295, 1.0775, 0.3925, 1.175, 0.49, 1.275, 0.5875, 1.3725, 0.685, 0, 0.785, 0.0975, 0.8825, 0.195, 0.98, 0.295, 1.0775, 0.3925, 1.175, 0.49, 1.275, 0.5875, 1.3725, 0.685, 0, 0.785, 0.0975, 0.8825, 0.195, 0.98, 0.295, 1.0775, 0.3925, 1.175, 0.49, 1.275, 0.5875, 1.3725, 0.685, 0, 0.785, 0.0975, 0.8825, 0.195, 0.98, 0.295, 1.0775, 0.3925, 1.175, 0.49, 1.275, 0.5875, 1.3725, 0.685],
  "SoftwareVersions": "syngo_MR_E11",
  "SpacingBetweenSlices": 2,
  "StationName": "MRC35049",
  "TaskName": "s03e05a",
  "TotalReadoutTime": 0.0576811,
  "TxRefAmp": 236.309,
  "WipMemBlock": "a4570f22-08ce-44d1-a41c-d4ba2327c9b4||Sequence: R016 ve11c/master r/e634e98; Dec 19 2017 11:00:25 by eja",
  "dcmmeta_affine": [
    [-1.9977442026138306, 0.08931966125965118, -0.03224887326359749, 96.69943237304688],
    [0.09488000720739365, 1.8489707708358765, -0.7565082311630249, -73.2999038696289],
    [0.003971916623413563, 0.7571848630905151, 1.8511227369308472, -67.06394958496094],
    [0.0, 0.0, 0.0, 1.0]
],
  "dcmmeta_reorient_transform": [
    [0.0, -1.0, 0.0, 103.0],
    [1.0, 0.0, 0.0, 0.0],
    [0.0, 0.0, 1.0, 0.0],
    [0.0, 0.0, 0.0, 1.0]
],
  "dcmmeta_shape": [104, 104, 60, 484],
  "dcmmeta_slice_dim": 2,
  "dcmmeta_version": 0.6,
  "global": {
    "const": {
      "AcquisitionMatrix": [104, 0, 0, 104],
      "AngioFlag": "N",
      "BitsAllocated": 16,
      "BitsStored": 16,
      "BodyPartExamined": "BRAIN",
      "Columns": 832,
      "EchoNumbers": 1,
      "EchoTime": 37.0,
      "EchoTrainLength": 104,
      "FlipAngle": 52.0,
      "HighBit": 15,
      "ImageOrientationPatient": [0.9988721149258, -0.0474400041421, 0.00198595837116, 0.04465983180173, 0.92448541384559, -0.3785924180569],
      "ImagePositionPatient": [-865.59061351176, -755.63314874747, 285.09559049554],
      "ImageType": [
        "ORIGINAL",
        "PRIMARY",
        "M",
        "MB",
        "ND",
        "MOSAIC"
],
      "ImagedNucleus": "1H",
      "ImagingFrequency": 123.258992,
      "InPlanePhaseEncodingDirection": "COL",
      "MRAcquisitionType": "2D",
      "MagneticFieldStrength": 3.0,
      "Manufacturer": "SIEMENS",
      "ManufacturerModelName": "Prisma_fit",
      "Modality": "MR",
      "NumberOfAverages": 1.0,
      "NumberOfPhaseEncodingSteps": 104,
      "PercentPhaseFieldOfView": 100.0,
      "PercentSampling": 100.0,
      "PerformedProcedureStepStartTime": "160107.299000",
      "PhotometricInterpretation": "MONOCHROME2",
      "PixelBandwidth": 2290.0,
      "PixelRepresentation": 0,
      "PixelSpacing": [2.0, 2.0],
      "ProtocolName": "func_task-friends-s03e05a",
      "RepetitionTime": 1490.0,
      "Rows": 832,
      "SAR": 0.03603266455406,
      "SamplesPerPixel": 1,
      "ScanOptions": "FS",
      "ScanningSequence": "EP",
      "SequenceName": "epfid2d1_104",
      "SequenceVariant": [
        "SK",
        "SS"
],
      "SeriesDescription": "func_task-friends-s03e05a",
      "SeriesNumber": 27,
      "SeriesTime": "181524.733000",
      "SliceLocation": -35.905035406341,
      "SliceThickness": 2.0,
      "SmallestImagePixelValue": 0,
      "SoftwareVersions": "syngo MR E11",
      "SpacingBetweenSlices": 2.0000000128173,
      "SpecificCharacterSet": "ISO_IR 100",
      "StudyID": "1",
      "StudyTime": "160107.154000",
      "TransmitCoilName": "Body",
      "VariableFlipAngleFlag": "N",
      "WindowCenterWidthExplanation": "Algo1",
      "dBdt": 0.0},
    "slices": {}
  },
  "time": {
    "samples": {
      "AcquisitionNumber": [1, 2, 3, 4, 5, 6, 7, 8, 9, 10, 11, 12, 13, 14, 15, 16, 17, 18, 19, 20, 21, 22, 23, 24, 25, 26, 27, 28, 29, 30, 31, 32, 33, 34, 35, 36, 37, 38, 39, 40, 41, 42, 43, 44, 45, 46, 47, 48, 49, 50, 51, 52, 53, 54, 55, 56, 57, 58, 59, 60, 61, 62, 63, 64, 65, 66, 67, 68, 69, 70, 71, 72, 73, 74, 75, 76, 77, 78, 79, 80, 81, 82, 83, 84, 85, 86, 87, 88, 89, 90, 91, 92, 93, 94, 95, 96, 97, 98, 99, 100, 101, 102, 103, 104, 105, 106, 107, 108, 109, 110, 111, 112, 113, 114, 115, 116, 117, 118, 119, 120, 121, 122, 123, 124, 125, 126, 127, 128, 129, 130, 131, 132, 133, 134, 135, 136, 137, 138, 139, 140, 141, 142, 143, 144, 145, 146, 147, 148, 149, 150, 151, 152, 153, 154, 155, 156, 157, 158, 159, 160, 161, 162, 163, 164, 165, 166, 167, 168, 169, 170, 171, 172, 173, 174, 175, 176, 177, 178, 179, 180, 181, 182, 183, 184, 185, 186, 187, 188, 189, 190, 191, 192, 193, 194, 195, 196, 197, 198, 199, 200, 201, 202, 203, 204, 205, 206, 207, 208, 209, 210, 211, 212, 213, 214, 215, 216, 217, 218, 219, 220, 221, 222, 223, 224, 225, 226, 227, 228, 229, 230, 231, 232, 233, 234, 235, 236, 237, 238, 239, 240, 241, 242, 243, 244, 245, 246, 247, 248, 249, 250, 251, 252, 253, 254, 255, 256, 257, 258, 259, 260, 261, 262, 263, 264, 265, 266, 267, 268, 269, 270, 271, 272, 273, 274, 275, 276, 277, 278, 279, 280, 281, 282, 283, 284, 285, 286, 287, 288, 289, 290, 291, 292, 293, 294, 295, 296, 297, 298, 299, 300, 301, 302, 303, 304, 305, 306, 307, 308, 309, 310, 311, 312, 313, 314, 315, 316, 317, 318, 319, 320, 321, 322, 323, 324, 325, 326, 327, 328, 329, 330, 331, 332, 333, 334, 335, 336, 337, 338, 339, 340, 341, 342, 343, 344, 345, 346, 347, 348, 349, 350, 351, 352, 353, 354, 355, 356, 357, 358, 359, 360, 361, 362, 363, 364, 365, 366, 367, 368, 369, 370, 371, 372, 373, 374, 375, 376, 377, 378, 379, 380, 381, 382, 383, 384, 385, 386, 387, 388, 389, 390, 391, 392, 393, 394, 395, 396, 397, 398, 399, 400, 401, 402, 403, 404, 405, 406, 407, 408, 409, 410, 411, 412, 413, 414, 415, 416, 417, 418, 419, 420, 421, 422, 423, 424, 425, 426, 427, 428, 429, 430, 431, 432, 433, 434, 435, 436, 437, 438, 439, 440, 441, 442, 443, 444, 445, 446, 447, 448, 449, 450, 451, 452, 453, 454, 455, 456, 457, 458, 459, 460, 461, 462, 463, 464, 465, 466, 467, 468, 469, 470, 471, 472, 473, 474, 475, 476, 477, 478, 479, 480, 481, 482, 483, 484],
      "AcquisitionTime": ["181354.245000", "181355.735000", "181357.225000", "181358.715000", "181400.205000", "181401.695000", "181403.185000", "181404.675000", "181406.165000", "181407.655000", "181409.145000", "181410.635000", "181412.125000", "181413.615000", "181415.105000", "181416.595000", "181418.085000", "181419.575000", "181421.065000", "181422.555000", "181424.045000", "181425.535000", "181427.025000", "181428.515000", "181430.005000", "181431.495000", "181432.985000", "181434.475000", "181435.965000", "181437.455000", "181438.945000", "181440.435000", "181441.925000", "181443.415000", "181444.905000", "181446.395000", "181447.885000", "181449.375000", "181450.865000", "181452.355000", "181453.845000", "181455.335000", "181456.825000", "181458.315000", "181459.805000", "181501.295000", "181502.785000", "181504.275000", "181505.765000", "181507.255000", "181508.745000", "181510.235000", "181511.725000", "181513.215000", "181514.705000", "181516.195000", "181517.685000", "181519.175000", "181520.665000", "181522.155000", "181523.645000", "181525.135000", "181526.625000", "181528.115000", "181529.605000", "181531.095000", "181532.585000", "181534.075000", "181535.565000", "181537.055000", "181538.545000", "181540.035000", "181541.525000", "181543.015000", "181544.505000", "181545.995000", "181547.485000", "181548.975000", "181550.465000", "181551.955000", "181553.445000", "181554.935000", "181556.425000", "181557.915000", "181559.405000", "181600.895000", "181602.385000", "181603.875000", "181605.365000", "181606.855000", "181608.345000", "181609.835000", "181611.325000", "181612.815000", "181614.305000", "181615.795000", "181617.285000", "181618.775000", "181620.265000", "181621.755000", "181623.245000", "181624.735000", "181626.225000", "181627.715000", "181629.205000", "181630.695000", "181632.185000", "181633.675000", "181635.165000", "181636.655000", "181638.145000", "181639.635000", "181641.125000", "181642.615000", "181644.105000", "181645.595000", "181647.085000", "181648.575000", "181650.065000", "181651.555000", "181653.045000", "181654.535000", "181656.025000", "181657.515000", "181659.005000", "181700.495000", "181701.985000", "181703.475000", "181704.965000", "181706.455000", "181707.945000", "181709.435000", "181710.925000", "181712.415000", "181713.905000", "181715.395000", "181716.885000", "181718.375000", "181719.865000", "181721.355000", "181722.845000", "181724.335000", "181725.825000", "181727.315000", "181728.805000", "181730.295000", "181731.785000", "181733.275000", "181734.765000", "181736.255000", "181737.745000", "181739.235000", "181740.725000", "181742.215000", "181743.705000", "181745.195000", "181746.685000", "181748.175000", "181749.665000", "181751.155000", "181752.645000", "181754.135000", "181755.625000", "181757.115000", "181758.605000", "181800.095000", "181801.585000", "181803.075000", "181804.565000", "181806.055000", "181807.545000", "181809.035000", "181810.525000", "181812.015000", "181813.505000", "181814.995000", "181816.485000", "181817.975000", "181819.465000", "181820.955000", "181822.445000", "181823.935000", "181825.425000", "181826.915000", "181828.405000", "181829.895000", "181831.385000", "181832.875000", "181834.365000", "181835.855000", "181837.345000", "181838.835000", "181840.325000", "181841.815000", "181843.305000", "181844.795000", "181846.285000", "181847.775000", "181849.265000", "181850.755000", "181852.245000", "181853.735000", "181855.225000", "181856.715000", "181858.205000", "181859.695000", "181901.185000", "181902.675000", "181904.165000", "181905.655000", "181907.145000", "181908.635000", "181910.125000", "181911.615000", "181913.105000", "181914.595000", "181916.085000", "181917.575000", "181919.065000", "181920.555000", "181922.045000", "181923.535000", "181925.025000", "181926.515000", "181928.005000", "181929.495000", "181930.985000", "181932.475000", "181933.965000", "181935.455000", "181936.945000", "181938.435000", "181939.925000", "181941.415000", "181942.905000", "181944.395000", "181945.885000", "181947.375000", "181948.865000", "181950.355000", "181951.845000", "181953.335000", "181954.825000", "181956.315000", "181957.805000", "181959.295000", "182000.785000", "182002.275000", "182003.765000", "182005.255000", "182006.745000", "182008.235000", "182009.725000", "182011.215000", "182012.705000", "182014.195000", "182015.685000", "182017.175000", "182018.665000", "182020.155000", "182021.645000", "182023.135000", "182024.625000", "182026.115000", "182027.605000", "182029.095000", "182030.585000", "182032.075000", "182033.565000", "182035.055000", "182036.545000", "182038.035000", "182039.525000", "182041.015000", "182042.505000", "182043.995000", "182045.485000", "182046.975000", "182048.465000", "182049.955000", "182051.445000", "182052.935000", "182054.425000", "182055.915000", "182057.405000", "182058.895000", "182100.385000", "182101.875000", "182103.365000", "182104.855000", "182106.345000", "182107.835000", "182109.325000", "182110.815000", "182112.305000", "182113.795000", "182115.285000", "182116.775000", "182118.265000", "182119.755000", "182121.245000", "182122.735000", "182124.225000", "182125.715000", "182127.205000", "182128.695000", "182130.185000", "182131.675000", "182133.165000", "182134.655000", "182136.145000", "182137.635000", "182139.125000", "182140.615000", "182142.105000", "182143.595000", "182145.085000", "182146.575000", "182148.065000", "182149.555000", "182151.045000", "182152.535000", "182154.025000", "182155.515000", "182157.005000", "182158.495000", "182159.985000", "182201.475000", "182202.965000", "182204.455000", "182205.945000", "182207.435000", "182208.925000", "182210.415000", "182211.905000", "182213.395000", "182214.885000", "182216.375000", "182217.865000", "182219.355000", "182220.845000", "182222.335000", "182223.825000", "182225.315000", "182226.805000", "182228.295000", "182229.785000", "182231.275000", "182232.765000", "182234.255000", "182235.745000", "182237.235000", "182238.725000", "182240.215000", "182241.705000", "182243.195000", "182244.685000", "182246.175000", "182247.665000", "182249.155000", "182250.645000", "182252.135000", "182253.625000", "182255.115000", "182256.605000", "182258.095000", "182259.585000", "182301.075000", "182302.565000", "182304.055000", "182305.545000", "182307.035000", "182308.525000", "182310.015000", "182311.505000", "182312.995000", "182314.485000", "182315.975000", "182317.465000", "182318.955000", "182320.445000", "182321.935000", "182323.425000", "182324.915000", "182326.405000", "182327.895000", "182329.385000", "182330.875000", "182332.365000", "182333.855000", "182335.345000", "182336.835000", "182338.325000", "182339.815000", "182341.305000", "182342.795000", "182344.285000", "182345.775000", "182347.265000", "182348.755000", "182350.245000", "182351.735000", "182353.225000", "182354.715000", "182356.205000", "182357.695000", "182359.185000", "182400.675000", "182402.165000", "182403.655000", "182405.145000", "182406.635000", "182408.125000", "182409.615000", "182411.105000", "182412.595000", "182414.085000", "182415.575000", "182417.065000", "182418.555000", "182420.045000", "182421.535000", "182423.025000", "182424.515000", "182426.005000", "182427.495000", "182428.985000", "182430.475000", "182431.965000", "182433.455000", "182434.945000", "182436.435000", "182437.925000", "182439.415000", "182440.905000", "182442.395000", "182443.885000", "182445.375000", "182446.865000", "182448.355000", "182449.845000", "182451.335000", "182452.825000", "182454.315000", "182455.805000", "182457.295000", "182458.785000", "182500.275000", "182501.765000", "182503.255000", "182504.745000", "182506.235000", "182507.725000", "182509.215000", "182510.705000", "182512.195000", "182513.685000", "182515.175000", "182516.665000", "182518.155000", "182519.645000", "182521.135000", "182522.625000", "182524.115000", "182525.605000", "182527.095000", "182528.585000", "182530.075000", "182531.565000", "182533.055000", "182534.545000", "182536.035000", "182537.525000", "182539.015000", "182540.505000", "182541.995000", "182543.485000", "182544.975000", "182546.465000", "182547.955000", "182549.445000", "182550.935000", "182552.425000", "182553.915000"],
      "ContentTime": ["181524.736000", "181524.740000", "181524.743000", "181524.746000", "181524.749000", "181524.752000", "181524.755000", "181524.758000", "181524.761000", "181524.763000", "181524.766000", "181524.769000", "181524.772000", "181524.775000", "181524.778000", "181524.781000", "181524.784000", "181524.787000", "181524.793000", "181524.796000", "181524.799000", "181524.802000", "181524.805000", "181524.808000", "181524.811000", "181524.814000", "181524.817000", "181524.820000", "181524.823000", "181524.826000", "181524.835000", "181524.837000", "181524.840000", "181524.843000", "181524.846000", "181524.849000", "181544.705000", "181544.708000", "181544.711000", "181544.714000", "181544.717000", "181544.720000", "181544.723000", "181544.726000", "181544.729000", "181544.731000", "181544.734000", "181544.737000", "181544.740000", "181544.743000", "181544.746000", "181544.749000", "181544.752000", "181544.755000", "181544.758000", "181544.767000", "181604.705000", "181604.708000", "181604.711000", "181604.714000", "181604.717000", "181604.720000", "181604.723000", "181604.726000", "181604.729000", "181604.731000", "181604.734000", "181604.737000", "181604.740000", "181604.743000", "181604.746000", "181604.749000", "181604.752000", "181604.755000", "181604.758000", "181604.761000", "181624.705000", "181624.708000", "181624.711000", "181624.714000", "181624.717000", "181624.720000", "181624.734000", "181624.737000", "181624.740000", "181624.743000", "181624.746000", "181624.749000", "181624.752000", "181624.754000", "181624.757000", "181624.760000", "181624.763000", "181624.766000", "181624.769000", "181624.772000", "181704.705000", "181704.708000", "181704.711000", "181704.714000", "181704.717000", "181704.720000", "181704.723000", "181704.726000", "181704.729000", "181704.732000", "181704.735000", "181704.738000", "181704.741000", "181704.744000", "181704.747000", "181704.749000", "181704.752000", "181704.755000", "181704.758000", "181704.761000", "181704.764000", "181704.767000", "181704.770000", "181704.773000", "181704.776000", "181704.780000", "181704.783000", "181704.786000", "181704.789000", "181704.792000", "181704.795000", "181744.705000", "181744.708000", "181744.711000", "181744.714000", "181744.717000", "181744.720000", "181744.723000", "181744.726000", "181744.729000", "181744.732000", "181744.735000", "181744.738000", "181744.741000", "181744.743000", "181744.746000", "181744.749000", "181744.752000", "181744.755000", "181744.758000", "181744.771000", "181744.774000", "181744.777000", "181744.781000", "181744.784000", "181744.787000", "181744.790000", "181744.793000", "181824.705000", "181824.713000", "181824.716000", "181824.719000", "181824.722000", "181824.725000", "181824.728000", "181824.731000", "181824.735000", "181824.737000", "181824.740000", "181824.743000", "181824.746000", "181824.749000", "181824.752000", "181824.755000", "181824.758000", "181824.761000", "181824.764000", "181824.767000", "181824.770000", "181824.773000", "181824.776000", "181824.779000", "181824.782000", "181824.785000", "181824.788000", "181904.705000", "181904.708000", "181904.711000", "181904.714000", "181904.717000", "181904.720000", "181904.723000", "181904.726000", "181904.729000", "181904.732000", "181904.735000", "181904.738000", "181904.741000", "181904.744000", "181904.747000", "181904.750000", "181904.753000", "181904.756000", "181904.759000", "181904.762000", "181904.765000", "181904.768000", "181904.771000", "181904.774000", "181904.777000", "181904.780000", "181904.782000", "181944.705000", "181944.708000", "181944.711000", "181944.714000", "181944.717000", "181944.720000", "181944.723000", "181944.726000", "181944.729000", "181944.732000", "181944.735000", "181944.738000", "181944.741000", "181944.744000", "181944.746000", "181944.749000", "181944.752000", "181944.755000", "181944.758000", "181944.762000", "181944.765000", "181944.768000", "181944.911000", "181944.914000", "181944.917000", "181944.920000", "182024.705000", "182024.708000", "182024.711000", "182024.714000", "182024.717000", "182024.720000", "182024.723000", "182024.726000", "182024.729000", "182024.732000", "182024.735000", "182024.738000", "182024.750000", "182024.753000", "182024.756000", "182024.759000", "182024.761000", "182024.764000", "182024.767000", "182024.805000", "182024.808000", "182024.811000", "182024.814000", "182024.817000", "182024.819000", "182024.822000", "182024.825000", "182104.705000", "182104.708000", "182104.711000", "182104.714000", "182104.717000", "182104.720000", "182104.723000", "182104.726000", "182104.729000", "182104.732000", "182104.735000", "182104.738000", "182104.741000", "182104.744000", "182104.747000", "182104.750000", "182104.752000", "182104.755000", "182104.758000", "182104.761000", "182104.764000", "182104.767000", "182104.770000", "182104.773000", "182104.776000", "182104.779000", "182104.782000", "182144.705000", "182144.708000", "182144.711000", "182144.714000", "182144.717000", "182144.720000", "182144.723000", "182144.726000", "182144.729000", "182144.732000", "182144.735000", "182144.738000", "182144.741000", "182144.744000", "182144.747000", "182144.750000", "182144.753000", "182144.756000", "182144.759000", "182144.762000", "182144.765000", "182144.768000", "182144.771000", "182144.774000", "182144.776000", "182144.779000", "182144.782000", "182224.705000", "182224.708000", "182224.711000", "182224.714000", "182224.717000", "182224.720000", "182224.724000", "182224.727000", "182224.729000", "182224.732000", "182224.735000", "182224.738000", "182224.741000", "182224.744000", "182224.747000", "182224.750000", "182224.753000", "182224.756000", "182224.759000", "182224.762000", "182224.765000", "182224.768000", "182224.939000", "182224.942000", "182224.945000", "182224.948000", "182224.951000", "182304.705000", "182304.708000", "182304.711000", "182304.714000", "182304.717000", "182304.720000", "182304.736000", "182304.739000", "182304.742000", "182304.745000", "182304.748000", "182304.751000", "182304.754000", "182304.757000", "182304.760000", "182304.763000", "182304.766000", "182304.802000", "182304.805000", "182304.808000", "182304.811000", "182304.814000", "182304.817000", "182304.820000", "182304.823000", "182304.826000", "182304.829000", "182344.705000", "182344.708000", "182344.711000", "182344.714000", "182344.717000", "182344.720000", "182344.723000", "182344.726000", "182344.729000", "182344.732000", "182344.735000", "182344.738000", "182344.741000", "182344.744000", "182344.747000", "182344.750000", "182344.752000", "182344.755000", "182344.758000", "182344.761000", "182344.765000", "182344.770000", "182344.773000", "182344.776000", "182344.779000", "182344.782000", "182424.705000", "182424.708000", "182424.711000", "182424.714000", "182424.717000", "182424.720000", "182424.723000", "182424.726000", "182424.729000", "182424.732000", "182424.735000", "182424.738000", "182424.741000", "182424.744000", "182424.747000", "182424.750000", "182424.753000", "182424.756000", "182424.758000", "182424.761000", "182424.764000", "182424.767000", "182424.770000", "182424.773000", "182424.776000", "182424.779000", "182424.782000", "182504.705000", "182504.708000", "182504.711000", "182504.714000", "182504.717000", "182504.720000", "182504.723000", "182504.726000", "182504.729000", "182504.732000", "182504.735000", "182504.738000", "182504.741000", "182504.744000", "182504.747000", "182504.750000", "182504.753000", "182504.756000", "182504.759000", "182504.762000", "182504.765000", "182504.768000", "182504.771000", "182504.774000", "182504.777000", "182504.780000", "182504.782000", "182544.705000", "182544.708000", "182544.711000", "182544.714000", "182544.717000", "182544.720000", "182544.723000", "182544.726000", "182544.729000", "182544.732000", "182544.735000", "182544.738000", "182544.741000", "182544.744000", "182544.747000", "182544.750000", "182544.753000", "182544.755000", "182544.758000", "182544.761000", "182544.764000", "182544.767000", "182544.770000", "182544.773000", "182544.790000", "182544.793000", "182544.796000", "182555.956000", "182555.959000", "182555.962000", "182555.965000", "182555.968000", "182555.971000", "182555.974000", "182555.978000"],
