{
  "AcquisitionMatrixPE": 104,
  "AcquisitionNumber": 1,
  "AcquisitionTime": "17:00:15.462500",
  "BandwidthPerPixelPhaseEncode": 17.17,
  "BaseResolution": 104,
  "BodyPartExamined": "BRAIN",
  "CoilString": "HC1-7;NC1_2",
  "ConsistencyInfo": "N4_VE11C_LATEST_20160120",
  "ConversionSoftware": "dcm2niix",
  "ConversionSoftwareVersion": "v1.0.20190902",
  "DerivedVendorReportedEchoSpacing": 0.000560011,
  "DeviceSerialNumber": "167006",
  "DwellTime": 2.1e-06,
  "EchoTime": 0.037,
  "EchoTrainLength": 104,
  "EffectiveEchoSpacing": 0.000560011,
  "FlipAngle": 52,
  "ImageComments": "Unaliased_MB4_PE3_LB",
  "ImageOrientationPatientDICOM": [0.998872, -0.04744, 0.00198596, 0.0446598, 0.924485, -0.378592],
  "ImageType": [
    "ORIGINAL",
    "PRIMARY",
    "M",
    "MB",
    "ND",
    "MOSAIC"
],
  "ImagingFrequency": 123.259,
  "InPlanePhaseEncodingDirectionDICOM": "COL",
  "InstitutionAddress": "Chemin_Queen-Mary_4565_Montreal_District_CA_H3W_1W5",
  "InstitutionName": "IUGM",
  "InstitutionalDepartmentName": "Department",
  "MRAcquisitionType": "2D",
  "MagneticFieldStrength": 3,
  "Manufacturer": "Siemens",
  "ManufacturersModelName": "Prisma_fit",
  "Modality": "MR",
  "MultibandAccelerationFactor": 4,
  "PartialFourier": 1,
  "PatientPosition": "HFS",
  "PercentPhaseFOV": 100,
  "PhaseEncodingDirection": "j",
  "PhaseEncodingSteps": 104,
  "PhaseResolution": 1,
  "PixelBandwidth": 2290,
  "ProcedureStepDescription": "video_friends",
  "ProtocolName": "func_task-friends-s03e02a",
  "PulseSequenceDetails": "%CustomerSeq%_cmrr_mbep2d_bold",
  "ReceiveCoilActiveElements": "HC1-7;NC1,2",
  "ReceiveCoilName": "HeadNeck_64",
  "ReconMatrixPE": 104,
  "RepetitionTime": 1.49,
  "SAR": 0.0360299,
  "ScanOptions": "FS",
  "ScanningSequence": "EP",
  "SequenceName": "epfid2d1_104",
  "SequenceVariant": "SK_SS",
  "SeriesDescription": "func_task-friends-s03e02a",
  "SeriesNumber": 15,
  "ShimSetting": [616, -7277, -8830, 404, 23, -465, 66, 31],
  "SliceThickness": 2,
  "SliceTiming": [0, 0.7825, 0.0975, 0.8825, 0.195, 0.98, 0.2925, 1.0775, 0.3925, 1.175, 0.49, 1.2725, 0.5875, 1.3725, 0.685, 0, 0.7825, 0.0975, 0.8825, 0.195, 0.98, 0.2925, 1.0775, 0.3925, 1.175, 0.49, 1.2725, 0.5875, 1.3725, 0.685, 0, 0.7825, 0.0975, 0.8825, 0.195, 0.98, 0.2925, 1.0775, 0.3925, 1.175, 0.49, 1.2725, 0.5875, 1.3725, 0.685, 0, 0.7825, 0.0975, 0.8825, 0.195, 0.98, 0.2925, 1.0775, 0.3925, 1.175, 0.49, 1.2725, 0.5875, 1.3725, 0.685],
  "SoftwareVersions": "syngo_MR_E11",
  "SpacingBetweenSlices": 2,
  "StationName": "MRC35049",
  "TaskName": "s03e02a",
  "TotalReadoutTime": 0.0576811,
  "TxRefAmp": 236.309,
  "WipMemBlock": "9518233f-f874-429e-b04a-6d84c434c865||Sequence: R016 ve11c/master r/e634e98; Dec 19 2017 11:00:25 by eja",
  "dcmmeta_affine": [
    [-1.9977442026138306, 0.08931966125965118, -0.03224887326359749, 96.69943237304688],
    [0.09488000720739365, 1.8489707708358765, -0.7565082311630249, -73.2999038696289],
    [0.003971916623413563, 0.7571848630905151, 1.8511227369308472, -67.06394958496094],
    [0.0, 0.0, 0.0, 1.0]
],
  "dcmmeta_reorient_transform": [
    [0.0, -1.0, 0.0, 103.0],
    [1.0, 0.0, 0.0, 0.0],
    [0.0, 0.0, 1.0, 0.0],
    [0.0, 0.0, 0.0, 1.0]
],
  "dcmmeta_shape": [104, 104, 60, 475],
  "dcmmeta_slice_dim": 2,
  "dcmmeta_version": 0.6,
  "global": {
    "const": {
      "AcquisitionMatrix": [104, 0, 0, 104],
      "AngioFlag": "N",
      "BitsAllocated": 16,
      "BitsStored": 16,
      "BodyPartExamined": "BRAIN",
      "Columns": 832,
      "EchoNumbers": 1,
      "EchoTime": 37.0,
      "EchoTrainLength": 104,
      "FlipAngle": 52.0,
      "HighBit": 15,
      "ImageOrientationPatient": [0.9988721149258, -0.0474400041421, 0.00198595837116, 0.04465983180173, 0.92448541384559, -0.3785924180569],
      "ImagePositionPatient": [-865.59061351176, -755.63314874747, 285.09559049554],
      "ImageType": [
        "ORIGINAL",
        "PRIMARY",
        "M",
        "MB",
        "ND",
        "MOSAIC"
],
      "ImagedNucleus": "1H",
      "ImagingFrequency": 123.258975,
      "InPlanePhaseEncodingDirection": "COL",
      "MRAcquisitionType": "2D",
      "MagneticFieldStrength": 3.0,
      "Manufacturer": "SIEMENS",
      "ManufacturerModelName": "Prisma_fit",
      "Modality": "MR",
      "NumberOfAverages": 1.0,
      "NumberOfPhaseEncodingSteps": 104,
      "PercentPhaseFieldOfView": 100.0,
      "PercentSampling": 100.0,
      "PerformedProcedureStepStartTime": "160107.299000",
      "PhotometricInterpretation": "MONOCHROME2",
      "PixelBandwidth": 2290.0,
      "PixelRepresentation": 0,
      "PixelSpacing": [2.0, 2.0],
      "ProtocolName": "func_task-friends-s03e02a",
      "RepetitionTime": 1490.0,
      "Rows": 832,
      "SAR": 0.03602987715697,
      "SamplesPerPixel": 1,
      "ScanOptions": "FS",
      "ScanningSequence": "EP",
      "SequenceName": "epfid2d1_104",
      "SequenceVariant": [
        "SK",
        "SS"
],
      "SeriesDescription": "func_task-friends-s03e02a",
      "SeriesNumber": 15,
      "SeriesTime": "170144.740000",
      "SliceLocation": -35.905035406341,
      "SliceThickness": 2.0,
      "SmallestImagePixelValue": 0,
      "SoftwareVersions": "syngo MR E11",
      "SpacingBetweenSlices": 2.0000000128173,
      "SpecificCharacterSet": "ISO_IR 100",
      "StudyID": "1",
      "StudyTime": "160107.154000",
      "TransmitCoilName": "Body",
      "VariableFlipAngleFlag": "N",
      "WindowCenterWidthExplanation": "Algo1",
      "dBdt": 0.0},
    "slices": {}
  },
  "time": {
    "samples": {
      "AcquisitionNumber": [1, 2, 3, 4, 5, 6, 7, 8, 9, 10, 11, 12, 13, 14, 15, 16, 17, 18, 19, 20, 21, 22, 23, 24, 25, 26, 27, 28, 29, 30, 31, 32, 33, 34, 35, 36, 37, 38, 39, 40, 41, 42, 43, 44, 45, 46, 47, 48, 49, 50, 51, 52, 53, 54, 55, 56, 57, 58, 59, 60, 61, 62, 63, 64, 65, 66, 67, 68, 69, 70, 71, 72, 73, 74, 75, 76, 77, 78, 79, 80, 81, 82, 83, 84, 85, 86, 87, 88, 89, 90, 91, 92, 93, 94, 95, 96, 97, 98, 99, 100, 101, 102, 103, 104, 105, 106, 107, 108, 109, 110, 111, 112, 113, 114, 115, 116, 117, 118, 119, 120, 121, 122, 123, 124, 125, 126, 127, 128, 129, 130, 131, 132, 133, 134, 135, 136, 137, 138, 139, 140, 141, 142, 143, 144, 145, 146, 147, 148, 149, 150, 151, 152, 153, 154, 155, 156, 157, 158, 159, 160, 161, 162, 163, 164, 165, 166, 167, 168, 169, 170, 171, 172, 173, 174, 175, 176, 177, 178, 179, 180, 181, 182, 183, 184, 185, 186, 187, 188, 189, 190, 191, 192, 193, 194, 195, 196, 197, 198, 199, 200, 201, 202, 203, 204, 205, 206, 207, 208, 209, 210, 211, 212, 213, 214, 215, 216, 217, 218, 219, 220, 221, 222, 223, 224, 225, 226, 227, 228, 229, 230, 231, 232, 233, 234, 235, 236, 237, 238, 239, 240, 241, 242, 243, 244, 245, 246, 247, 248, 249, 250, 251, 252, 253, 254, 255, 256, 257, 258, 259, 260, 261, 262, 263, 264, 265, 266, 267, 268, 269, 270, 271, 272, 273, 274, 275, 276, 277, 278, 279, 280, 281, 282, 283, 284, 285, 286, 287, 288, 289, 290, 291, 292, 293, 294, 295, 296, 297, 298, 299, 300, 301, 302, 303, 304, 305, 306, 307, 308, 309, 310, 311, 312, 313, 314, 315, 316, 317, 318, 319, 320, 321, 322, 323, 324, 325, 326, 327, 328, 329, 330, 331, 332, 333, 334, 335, 336, 337, 338, 339, 340, 341, 342, 343, 344, 345, 346, 347, 348, 349, 350, 351, 352, 353, 354, 355, 356, 357, 358, 359, 360, 361, 362, 363, 364, 365, 366, 367, 368, 369, 370, 371, 372, 373, 374, 375, 376, 377, 378, 379, 380, 381, 382, 383, 384, 385, 386, 387, 388, 389, 390, 391, 392, 393, 394, 395, 396, 397, 398, 399, 400, 401, 402, 403, 404, 405, 406, 407, 408, 409, 410, 411, 412, 413, 414, 415, 416, 417, 418, 419, 420, 421, 422, 423, 424, 425, 426, 427, 428, 429, 430, 431, 432, 433, 434, 435, 436, 437, 438, 439, 440, 441, 442, 443, 444, 445, 446, 447, 448, 449, 450, 451, 452, 453, 454, 455, 456, 457, 458, 459, 460, 461, 462, 463, 464, 465, 466, 467, 468, 469, 470, 471, 472, 473, 474, 475],
      "AcquisitionTime": ["170015.462500", "170016.952500", "170018.442500", "170019.932500", "170021.422500", "170022.912500", "170024.402500", "170025.892500", "170027.382500", "170028.872500", "170030.362500", "170031.852500", "170033.342500", "170034.832500", "170036.322500", "170037.812500", "170039.302500", "170040.792500", "170042.282500", "170043.772500", "170045.262500", "170046.752500", "170048.242500", "170049.732500", "170051.222500", "170052.712500", "170054.202500", "170055.692500", "170057.182500", "170058.672500", "170100.162500", "170101.652500", "170103.142500", "170104.632500", "170106.122500", "170107.612500", "170109.102500", "170110.592500", "170112.082500", "170113.572500", "170115.062500", "170116.552500", "170118.042500", "170119.532500", "170121.022500", "170122.512500", "170124.002500", "170125.492500", "170126.982500", "170128.472500", "170129.962500", "170131.452500", "170132.942500", "170134.432500", "170135.922500", "170137.412500", "170138.902500", "170140.392500", "170141.882500", "170143.372500", "170144.862500", "170146.352500", "170147.842500", "170149.332500", "170150.822500", "170152.312500", "170153.802500", "170155.292500", "170156.782500", "170158.272500", "170159.762500", "170201.252500", "170202.742500", "170204.232500", "170205.722500", "170207.212500", "170208.702500", "170210.192500", "170211.682500", "170213.172500", "170214.662500", "170216.152500", "170217.642500", "170219.132500", "170220.622500", "170222.112500", "170223.602500", "170225.092500", "170226.582500", "170228.072500", "170229.562500", "170231.052500", "170232.542500", "170234.032500", "170235.522500", "170237.012500", "170238.502500", "170239.992500", "170241.482500", "170242.972500", "170244.462500", "170245.952500", "170247.442500", "170248.932500", "170250.422500", "170251.912500", "170253.402500", "170254.892500", "170256.382500", "170257.872500", "170259.362500", "170300.852500", "170302.342500", "170303.832500", "170305.322500", "170306.812500", "170308.302500", "170309.792500", "170311.282500", "170312.772500", "170314.262500", "170315.752500", "170317.242500", "170318.732500", "170320.222500", "170321.712500", "170323.202500", "170324.692500", "170326.182500", "170327.672500", "170329.162500", "170330.652500", "170332.142500", "170333.632500", "170335.122500", "170336.612500", "170338.102500", "170339.592500", "170341.082500", "170342.572500", "170344.062500", "170345.552500", "170347.042500", "170348.532500", "170350.022500", "170351.512500", "170353.002500", "170354.492500", "170355.982500", "170357.472500", "170358.962500", "170400.452500", "170401.942500", "170403.432500", "170404.922500", "170406.412500", "170407.902500", "170409.392500", "170410.882500", "170412.372500", "170413.862500", "170415.352500", "170416.842500", "170418.332500", "170419.822500", "170421.312500", "170422.802500", "170424.292500", "170425.782500", "170427.272500", "170428.762500", "170430.252500", "170431.742500", "170433.232500", "170434.722500", "170436.212500", "170437.702500", "170439.192500", "170440.682500", "170442.172500", "170443.662500", "170445.152500", "170446.642500", "170448.132500", "170449.622500", "170451.112500", "170452.602500", "170454.092500", "170455.582500", "170457.072500", "170458.562500", "170500.052500", "170501.542500", "170503.032500", "170504.522500", "170506.012500", "170507.502500", "170508.992500", "170510.482500", "170511.972500", "170513.462500", "170514.952500", "170516.442500", "170517.932500", "170519.422500", "170520.912500", "170522.402500", "170523.892500", "170525.382500", "170526.872500", "170528.362500", "170529.852500", "170531.342500", "170532.832500", "170534.322500", "170535.812500", "170537.302500", "170538.792500", "170540.282500", "170541.772500", "170543.262500", "170544.752500", "170546.242500", "170547.732500", "170549.222500", "170550.712500", "170552.202500", "170553.692500", "170555.182500", "170556.672500", "170558.162500", "170559.652500", "170601.142500", "170602.632500", "170604.122500", "170605.612500", "170607.102500", "170608.592500", "170610.082500", "170611.572500", "170613.062500", "170614.552500", "170616.042500", "170617.532500", "170619.022500", "170620.512500", "170622.002500", "170623.492500", "170624.982500", "170626.472500", "170627.962500", "170629.452500", "170630.942500", "170632.432500", "170633.922500", "170635.412500", "170636.902500", "170638.392500", "170639.882500", "170641.372500", "170642.862500", "170644.352500", "170645.842500", "170647.332500", "170648.822500", "170650.312500", "170651.802500", "170653.292500", "170654.782500", "170656.272500", "170657.762500", "170659.252500", "170700.742500", "170702.232500", "170703.722500", "170705.212500", "170706.702500", "170708.192500", "170709.682500", "170711.172500", "170712.662500", "170714.152500", "170715.642500", "170717.132500", "170718.622500", "170720.112500", "170721.602500", "170723.092500", "170724.582500", "170726.072500", "170727.562500", "170729.052500", "170730.542500", "170732.032500", "170733.522500", "170735.012500", "170736.502500", "170737.992500", "170739.482500", "170740.972500", "170742.462500", "170743.952500", "170745.442500", "170746.932500", "170748.422500", "170749.912500", "170751.402500", "170752.892500", "170754.382500", "170755.872500", "170757.362500", "170758.852500", "170800.342500", "170801.832500", "170803.322500", "170804.812500", "170806.302500", "170807.792500", "170809.282500", "170810.772500", "170812.262500", "170813.752500", "170815.242500", "170816.732500", "170818.222500", "170819.712500", "170821.202500", "170822.692500", "170824.182500", "170825.672500", "170827.162500", "170828.652500", "170830.142500", "170831.632500", "170833.122500", "170834.612500", "170836.102500", "170837.592500", "170839.082500", "170840.572500", "170842.062500", "170843.552500", "170845.042500", "170846.532500", "170848.022500", "170849.512500", "170851.002500", "170852.492500", "170853.982500", "170855.472500", "170856.962500", "170858.452500", "170859.942500", "170901.432500", "170902.922500", "170904.412500", "170905.902500", "170907.392500", "170908.882500", "170910.372500", "170911.862500", "170913.352500", "170914.842500", "170916.332500", "170917.822500", "170919.312500", "170920.802500", "170922.292500", "170923.782500", "170925.272500", "170926.762500", "170928.252500", "170929.742500", "170931.232500", "170932.722500", "170934.212500", "170935.702500", "170937.192500", "170938.682500", "170940.172500", "170941.662500", "170943.152500", "170944.642500", "170946.132500", "170947.622500", "170949.112500", "170950.602500", "170952.092500", "170953.582500", "170955.072500", "170956.562500", "170958.052500", "170959.542500", "171001.032500", "171002.522500", "171004.012500", "171005.502500", "171006.992500", "171008.482500", "171009.972500", "171011.462500", "171012.952500", "171014.442500", "171015.932500", "171017.422500", "171018.912500", "171020.402500", "171021.892500", "171023.382500", "171024.872500", "171026.362500", "171027.852500", "171029.342500", "171030.832500", "171032.322500", "171033.812500", "171035.302500", "171036.792500", "171038.282500", "171039.772500", "171041.262500", "171042.752500", "171044.242500", "171045.732500", "171047.222500", "171048.712500", "171050.202500", "171051.692500", "171053.182500", "171054.672500", "171056.162500", "171057.652500", "171059.142500", "171100.632500", "171102.122500", "171103.612500", "171105.102500", "171106.592500", "171108.082500", "171109.572500", "171111.062500", "171112.552500", "171114.042500", "171115.532500", "171117.022500", "171118.512500", "171120.002500", "171121.492500", "171122.982500", "171124.472500", "171125.962500", "171127.452500", "171128.942500", "171130.432500", "171131.922500", "171133.412500", "171134.902500", "171136.392500", "171137.882500", "171139.372500", "171140.862500", "171142.352500", "171143.842500", "171145.332500", "171146.822500", "171148.312500", "171149.802500", "171151.292500", "171152.782500", "171154.272500", "171155.762500", "171157.252500", "171158.742500", "171200.232500", "171201.722500"],
      "ContentTime": ["170144.743000", "170144.747000", "170144.750000", "170144.753000", "170144.756000", "170144.759000", "170144.762000", "170144.765000", "170144.768000", "170144.771000", "170144.774000", "170144.777000", "170144.780000", "170144.782000", "170144.786000", "170144.788000", "170144.791000", "170144.794000", "170144.798000", "170144.800000", "170144.803000", "170144.806000", "170144.809000", "170144.812000", "170144.815000", "170144.818000", "170144.821000", "170144.824000", "170144.827000", "170144.830000", "170144.833000", "170144.836000", "170144.839000", "170144.842000", "170144.845000", "170144.848000", "170144.851000", "170204.705000", "170204.708000", "170204.711000", "170204.714000", "170204.717000", "170204.720000", "170204.724000", "170204.727000", "170204.730000", "170204.733000", "170204.736000", "170204.739000", "170204.742000", "170204.745000", "170204.748000", "170204.764000", "170204.767000", "170204.770000", "170204.773000", "170204.776000", "170224.705000", "170224.708000", "170224.711000", "170224.714000", "170224.717000", "170224.720000", "170224.723000", "170224.726000", "170224.729000", "170224.732000", "170224.735000", "170224.738000", "170224.741000", "170224.744000", "170224.747000", "170224.749000", "170224.753000", "170224.756000", "170224.758000", "170224.761000", "170244.705000", "170244.708000", "170244.711000", "170244.714000", "170244.717000", "170244.720000", "170244.723000", "170244.726000", "170244.729000", "170244.732000", "170244.735000", "170244.738000", "170244.741000", "170244.744000", "170244.747000", "170244.750000", "170244.753000", "170244.756000", "170244.759000", "170244.761000", "170324.705000", "170324.708000", "170324.711000", "170324.714000", "170324.717000", "170324.720000", "170324.723000", "170324.726000", "170324.729000", "170324.732000", "170324.735000", "170324.738000", "170324.741000", "170324.744000", "170324.747000", "170324.750000", "170324.753000", "170324.756000", "170324.759000", "170324.762000", "170324.765000", "170324.768000", "170324.771000", "170324.774000", "170324.786000", "170324.789000", "170324.793000", "170324.796000", "170324.798000", "170404.705000", "170404.708000", "170404.711000", "170404.714000", "170404.717000", "170404.720000", "170404.723000", "170404.726000", "170404.729000", "170404.732000", "170404.735000", "170404.738000", "170404.741000", "170404.744000", "170404.747000", "170404.750000", "170404.753000", "170404.756000", "170404.759000", "170404.762000", "170404.765000", "170404.768000", "170404.771000", "170404.774000", "170404.777000", "170404.780000", "170404.783000", "170444.705000", "170444.708000", "170444.711000", "170444.714000", "170444.717000", "170444.720000", "170444.723000", "170444.726000", "170444.729000", "170444.732000", "170444.735000", "170444.738000", "170444.741000", "170444.744000", "170444.747000", "170444.750000", "170444.753000", "170444.756000", "170444.759000", "170444.762000", "170444.765000", "170444.769000", "170444.772000", "170444.775000", "170444.778000", "170444.781000", "170444.784000", "170524.705000", "170524.708000", "170524.711000", "170524.714000", "170524.717000", "170524.720000", "170524.723000", "170524.726000", "170524.729000", "170524.732000", "170524.735000", "170524.738000", "170524.741000", "170524.744000", "170524.747000", "170524.750000", "170524.753000", "170524.756000", "170524.759000", "170524.762000", "170524.765000", "170524.768000", "170524.771000", "170524.774000", "170524.777000", "170524.780000", "170524.783000", "170604.705000", "170604.708000", "170604.715000", "170604.718000", "170604.721000", "170604.724000", "170604.728000", "170604.732000", "170604.735000", "170604.738000", "170604.741000", "170604.744000", "170604.747000", "170604.750000", "170604.753000", "170604.756000", "170604.759000", "170604.762000", "170604.765000", "170604.768000", "170604.771000", "170604.774000", "170604.777000", "170604.780000", "170604.783000", "170604.786000", "170644.706000", "170644.709000", "170644.712000", "170644.715000", "170644.718000", "170644.721000", "170644.724000", "170644.727000", "170644.730000", "170644.733000", "170644.736000", "170644.739000", "170644.742000", "170644.745000", "170644.748000", "170644.751000", "170644.754000", "170644.757000", "170644.760000", "170644.763000", "170644.766000", "170644.781000", "170644.785000", "170644.787000", "170644.790000", "170644.793000", "170644.796000", "170704.705000", "170704.708000", "170704.711000", "170704.714000", "170704.717000", "170704.720000", "170704.723000", "170704.726000", "170704.729000", "170704.732000", "170704.735000", "170704.738000", "170704.741000", "170704.744000", "170744.705000", "170744.708000", "170744.711000", "170744.714000", "170744.717000", "170744.720000", "170744.723000", "170744.726000", "170744.729000", "170744.732000", "170744.735000", "170744.738000", "170744.741000", "170744.744000", "170744.747000", "170744.750000", "170744.753000", "170744.756000", "170744.759000", "170744.762000", "170744.765000", "170744.768000", "170744.771000", "170744.774000", "170744.777000", "170744.780000", "170744.783000", "170824.705000", "170824.708000", "170824.711000", "170824.714000", "170824.717000", "170824.720000", "170824.724000", "170824.727000", "170824.730000", "170824.733000", "170824.736000", "170824.739000", "170824.742000", "170824.745000", "170824.748000", "170824.750000", "170824.754000", "170824.756000", "170824.759000", "170824.762000", "170824.765000", "170824.768000", "170824.771000", "170824.774000", "170824.777000", "170824.780000", "170904.706000", "170904.709000", "170904.712000", "170904.715000", "170904.718000", "170904.721000", "170904.724000", "170904.727000", "170904.730000", "170904.733000", "170904.736000", "170904.739000", "170904.742000", "170904.745000", "170904.748000", "170904.751000", "170904.754000", "170904.757000", "170904.760000", "170904.763000", "170904.766000", "170904.769000", "170904.772000", "170904.775000", "170904.778000", "170904.781000", "170904.784000", "170944.705000", "170944.708000", "170944.711000", "170944.714000", "170944.717000", "170944.720000", "170944.723000", "170944.727000", "170944.730000", "170944.733000", "170944.736000", "170944.739000", "170944.742000", "170944.745000", "170944.748000", "170944.751000", "170944.754000", "170944.757000", "170944.760000", "170944.763000", "170944.766000", "170944.781000", "170944.784000", "170944.787000", "170944.790000", "170944.794000", "170944.797000", "171024.705000", "171024.708000", "171024.718000", "171024.721000", "171024.724000", "171024.727000", "171024.730000", "171024.733000", "171024.736000", "171024.739000", "171024.742000", "171024.745000", "171024.748000", "171024.751000", "171024.755000", "171024.758000", "171024.761000", "171024.764000", "171024.767000", "171024.770000", "171024.773000", "171024.776000", "171024.779000", "171024.782000", "171024.785000", "171024.788000", "171024.791000", "171104.705000", "171104.708000", "171104.712000", "171104.714000", "171104.717000", "171104.721000", "171104.723000", "171104.726000", "171104.729000", "171104.732000", "171104.735000", "171104.738000", "171104.741000", "171104.745000", "171104.747000", "171104.750000", "171104.753000", "171104.756000", "171104.759000", "171104.762000", "171104.765000", "171104.769000", "171104.772000", "171104.775000", "171104.778000", "171104.781000", "171104.784000", "171144.705000", "171144.708000", "171144.711000", "171144.714000", "171144.722000", "171144.725000", "171144.728000", "171144.731000", "171144.734000", "171144.737000", "171144.740000", "171144.743000", "171144.746000", "171144.749000", "171144.752000", "171144.755000", "171144.758000", "171144.761000", "171144.764000", "171144.767000", "171144.770000", "171144.773000", "171144.776000", "171144.779000", "171144.782000", "171144.785000", "171144.788000", "171203.865000", "171203.868000", "171203.871000", "171203.874000", "171203.877000", "171203.880000", "171203.883000", "171203.886000", "171203.889000", "171203.892000", "171203.895000", "171203.898000", "171203.901000"],
