{
  "AcquisitionMatrixPE": 104,
  "AcquisitionNumber": 1,
  "AcquisitionTime": "17:24:47.042500",
  "BandwidthPerPixelPhaseEncode": 17.17,
  "BaseResolution": 104,
  "BodyPartExamined": "BRAIN",
  "CoilString": "HC1-7;NC1_2",
  "ConsistencyInfo": "N4_VE11C_LATEST_20160120",
  "ConversionSoftware": "dcm2niix",
  "ConversionSoftwareVersion": "v1.0.20190902",
  "DerivedVendorReportedEchoSpacing": 0.000560011,
  "DeviceSerialNumber": "167006",
  "DwellTime": 2.1e-06,
  "EchoTime": 0.037,
  "EchoTrainLength": 104,
  "EffectiveEchoSpacing": 0.000560011,
  "FlipAngle": 52,
  "ImageComments": "Unaliased_MB4_PE3_LB",
  "ImageOrientationPatientDICOM": [0.998872, -0.04744, 0.00198596, 0.0446598, 0.924485, -0.378592],
  "ImageType": [
    "ORIGINAL",
    "PRIMARY",
    "M",
    "MB",
    "ND",
    "MOSAIC"
],
  "ImagingFrequency": 123.259,
  "InPlanePhaseEncodingDirectionDICOM": "COL",
  "InstitutionAddress": "Chemin_Queen-Mary_4565_Montreal_District_CA_H3W_1W5",
  "InstitutionName": "IUGM",
  "InstitutionalDepartmentName": "Department",
  "MRAcquisitionType": "2D",
  "MagneticFieldStrength": 3,
  "Manufacturer": "Siemens",
  "ManufacturersModelName": "Prisma_fit",
  "Modality": "MR",
  "MultibandAccelerationFactor": 4,
  "PartialFourier": 1,
  "PatientPosition": "HFS",
  "PercentPhaseFOV": 100,
  "PhaseEncodingDirection": "j",
  "PhaseEncodingSteps": 104,
  "PhaseResolution": 1,
  "PixelBandwidth": 2290,
  "ProcedureStepDescription": "video_friends",
  "ProtocolName": "func_task-friends-s03e03a",
  "PulseSequenceDetails": "%CustomerSeq%_cmrr_mbep2d_bold",
  "ReceiveCoilActiveElements": "HC1-7;NC1,2",
  "ReceiveCoilName": "HeadNeck_64",
  "ReconMatrixPE": 104,
  "RepetitionTime": 1.49,
  "SAR": 0.0360229,
  "ScanOptions": "FS",
  "ScanningSequence": "EP",
  "SequenceName": "epfid2d1_104",
  "SequenceVariant": "SK_SS",
  "SeriesDescription": "func_task-friends-s03e03a",
  "SeriesNumber": 19,
  "ShimSetting": [616, -7277, -8830, 404, 23, -465, 66, 31],
  "SliceThickness": 2,
  "SliceTiming": [0, 0.785, 0.1, 0.8825, 0.1975, 0.98, 0.295, 1.08, 0.3925, 1.1775, 0.49, 1.275, 0.59, 1.3725, 0.6875, 0, 0.785, 0.1, 0.8825, 0.1975, 0.98, 0.295, 1.08, 0.3925, 1.1775, 0.49, 1.275, 0.59, 1.3725, 0.6875, 0, 0.785, 0.1, 0.8825, 0.1975, 0.98, 0.295, 1.08, 0.3925, 1.1775, 0.49, 1.275, 0.59, 1.3725, 0.6875, 0, 0.785, 0.1, 0.8825, 0.1975, 0.98, 0.295, 1.08, 0.3925, 1.1775, 0.49, 1.275, 0.59, 1.3725, 0.6875],
  "SoftwareVersions": "syngo_MR_E11",
  "SpacingBetweenSlices": 2,
  "StationName": "MRC35049",
  "TaskName": "s03e03a",
  "TotalReadoutTime": 0.0576811,
  "TxRefAmp": 236.309,
  "WipMemBlock": "a3e70589-dde1-4720-9c34-078714538950||Sequence: R016 ve11c/master r/e634e98; Dec 19 2017 11:00:25 by eja",
  "dcmmeta_affine": [
    [-1.9977442026138306, 0.08931966125965118, -0.03224887326359749, 96.69943237304688],
    [0.09488000720739365, 1.8489707708358765, -0.7565082311630249, -73.2999038696289],
    [0.003971916623413563, 0.7571848630905151, 1.8511227369308472, -67.06394958496094],
    [0.0, 0.0, 0.0, 1.0]
],
  "dcmmeta_reorient_transform": [
    [0.0, -1.0, 0.0, 103.0],
    [1.0, 0.0, 0.0, 0.0],
    [0.0, 0.0, 1.0, 0.0],
    [0.0, 0.0, 0.0, 1.0]
],
  "dcmmeta_shape": [104, 104, 60, 454],
  "dcmmeta_slice_dim": 2,
  "dcmmeta_version": 0.6,
  "global": {
    "const": {
      "AcquisitionMatrix": [104, 0, 0, 104],
      "AngioFlag": "N",
      "BitsAllocated": 16,
      "BitsStored": 16,
      "BodyPartExamined": "BRAIN",
      "Columns": 832,
      "EchoNumbers": 1,
      "EchoTime": 37.0,
      "EchoTrainLength": 104,
      "FlipAngle": 52.0,
      "HighBit": 15,
      "ImageOrientationPatient": [0.9988721149258, -0.0474400041421, 0.00198595837116, 0.04465983180173, 0.92448541384559, -0.3785924180569],
      "ImagePositionPatient": [-865.59061351176, -755.63314874747, 285.09559049554],
      "ImageType": [
        "ORIGINAL",
        "PRIMARY",
        "M",
        "MB",
        "ND",
        "MOSAIC"
],
      "ImagedNucleus": "1H",
      "ImagingFrequency": 123.258983,
      "InPlanePhaseEncodingDirection": "COL",
      "MRAcquisitionType": "2D",
      "MagneticFieldStrength": 3.0,
      "Manufacturer": "SIEMENS",
      "ManufacturerModelName": "Prisma_fit",
      "Modality": "MR",
      "NumberOfAverages": 1.0,
      "NumberOfPhaseEncodingSteps": 104,
      "PercentPhaseFieldOfView": 100.0,
      "PercentSampling": 100.0,
      "PerformedProcedureStepStartTime": "160107.299000",
      "PhotometricInterpretation": "MONOCHROME2",
      "PixelBandwidth": 2290.0,
      "PixelRepresentation": 0,
      "PixelSpacing": [2.0, 2.0],
      "ProtocolName": "func_task-friends-s03e03a",
      "RepetitionTime": 1490.0,
      "Rows": 832,
      "SAR": 0.03602294606221,
      "SamplesPerPixel": 1,
      "ScanOptions": "FS",
      "ScanningSequence": "EP",
      "SequenceName": "epfid2d1_104",
      "SequenceVariant": [
        "SK",
        "SS"
],
      "SeriesDescription": "func_task-friends-s03e03a",
      "SeriesNumber": 19,
      "SeriesTime": "172604.599000",
      "SliceLocation": -35.905035406341,
      "SliceThickness": 2.0,
      "SmallestImagePixelValue": 0,
      "SoftwareVersions": "syngo MR E11",
      "SpacingBetweenSlices": 2.0000000128173,
      "SpecificCharacterSet": "ISO_IR 100",
      "StudyID": "1",
      "StudyTime": "160107.154000",
      "TransmitCoilName": "Body",
      "VariableFlipAngleFlag": "N",
      "WindowCenterWidthExplanation": "Algo1",
      "dBdt": 0.0},
    "slices": {}
  },
  "time": {
    "samples": {
      "AcquisitionNumber": [1, 2, 3, 4, 5, 6, 7, 8, 9, 10, 11, 12, 13, 14, 15, 16, 17, 18, 19, 20, 21, 22, 23, 24, 25, 26, 27, 28, 29, 30, 31, 32, 33, 34, 35, 36, 37, 38, 39, 40, 41, 42, 43, 44, 45, 46, 47, 48, 49, 50, 51, 52, 53, 54, 55, 56, 57, 58, 59, 60, 61, 62, 63, 64, 65, 66, 67, 68, 69, 70, 71, 72, 73, 74, 75, 76, 77, 78, 79, 80, 81, 82, 83, 84, 85, 86, 87, 88, 89, 90, 91, 92, 93, 94, 95, 96, 97, 98, 99, 100, 101, 102, 103, 104, 105, 106, 107, 108, 109, 110, 111, 112, 113, 114, 115, 116, 117, 118, 119, 120, 121, 122, 123, 124, 125, 126, 127, 128, 129, 130, 131, 132, 133, 134, 135, 136, 137, 138, 139, 140, 141, 142, 143, 144, 145, 146, 147, 148, 149, 150, 151, 152, 153, 154, 155, 156, 157, 158, 159, 160, 161, 162, 163, 164, 165, 166, 167, 168, 169, 170, 171, 172, 173, 174, 175, 176, 177, 178, 179, 180, 181, 182, 183, 184, 185, 186, 187, 188, 189, 190, 191, 192, 193, 194, 195, 196, 197, 198, 199, 200, 201, 202, 203, 204, 205, 206, 207, 208, 209, 210, 211, 212, 213, 214, 215, 216, 217, 218, 219, 220, 221, 222, 223, 224, 225, 226, 227, 228, 229, 230, 231, 232, 233, 234, 235, 236, 237, 238, 239, 240, 241, 242, 243, 244, 245, 246, 247, 248, 249, 250, 251, 252, 253, 254, 255, 256, 257, 258, 259, 260, 261, 262, 263, 264, 265, 266, 267, 268, 269, 270, 271, 272, 273, 274, 275, 276, 277, 278, 279, 280, 281, 282, 283, 284, 285, 286, 287, 288, 289, 290, 291, 292, 293, 294, 295, 296, 297, 298, 299, 300, 301, 302, 303, 304, 305, 306, 307, 308, 309, 310, 311, 312, 313, 314, 315, 316, 317, 318, 319, 320, 321, 322, 323, 324, 325, 326, 327, 328, 329, 330, 331, 332, 333, 334, 335, 336, 337, 338, 339, 340, 341, 342, 343, 344, 345, 346, 347, 348, 349, 350, 351, 352, 353, 354, 355, 356, 357, 358, 359, 360, 361, 362, 363, 364, 365, 366, 367, 368, 369, 370, 371, 372, 373, 374, 375, 376, 377, 378, 379, 380, 381, 382, 383, 384, 385, 386, 387, 388, 389, 390, 391, 392, 393, 394, 395, 396, 397, 398, 399, 400, 401, 402, 403, 404, 405, 406, 407, 408, 409, 410, 411, 412, 413, 414, 415, 416, 417, 418, 419, 420, 421, 422, 423, 424, 425, 426, 427, 428, 429, 430, 431, 432, 433, 434, 435, 436, 437, 438, 439, 440, 441, 442, 443, 444, 445, 446, 447, 448, 449, 450, 451, 452, 453, 454],
      "AcquisitionTime": ["172447.042500", "172448.532500", "172450.022500", "172451.512500", "172453.002500", "172454.492500", "172455.982500", "172457.472500", "172458.962500", "172500.452500", "172501.942500", "172503.432500", "172504.922500", "172506.412500", "172507.902500", "172509.392500", "172510.882500", "172512.372500", "172513.862500", "172515.352500", "172516.842500", "172518.332500", "172519.822500", "172521.312500", "172522.802500", "172524.292500", "172525.782500", "172527.272500", "172528.762500", "172530.252500", "172531.742500", "172533.232500", "172534.722500", "172536.212500", "172537.702500", "172539.192500", "172540.682500", "172542.172500", "172543.662500", "172545.152500", "172546.642500", "172548.132500", "172549.622500", "172551.112500", "172552.602500", "172554.092500", "172555.582500", "172557.072500", "172558.562500", "172600.052500", "172601.542500", "172603.032500", "172604.522500", "172606.012500", "172607.502500", "172608.992500", "172610.482500", "172611.972500", "172613.462500", "172614.952500", "172616.442500", "172617.932500", "172619.422500", "172620.912500", "172622.402500", "172623.892500", "172625.382500", "172626.872500", "172628.362500", "172629.852500", "172631.342500", "172632.832500", "172634.322500", "172635.812500", "172637.302500", "172638.792500", "172640.282500", "172641.772500", "172643.262500", "172644.752500", "172646.242500", "172647.732500", "172649.222500", "172650.712500", "172652.202500", "172653.692500", "172655.182500", "172656.672500", "172658.162500", "172659.652500", "172701.142500", "172702.632500", "172704.122500", "172705.612500", "172707.102500", "172708.592500", "172710.082500", "172711.572500", "172713.062500", "172714.552500", "172716.042500", "172717.532500", "172719.022500", "172720.512500", "172722.002500", "172723.492500", "172724.982500", "172726.472500", "172727.962500", "172729.452500", "172730.942500", "172732.432500", "172733.922500", "172735.412500", "172736.902500", "172738.392500", "172739.882500", "172741.372500", "172742.862500", "172744.352500", "172745.842500", "172747.332500", "172748.822500", "172750.312500", "172751.802500", "172753.292500", "172754.782500", "172756.272500", "172757.762500", "172759.252500", "172800.742500", "172802.232500", "172803.722500", "172805.212500", "172806.702500", "172808.192500", "172809.682500", "172811.172500", "172812.662500", "172814.152500", "172815.642500", "172817.132500", "172818.622500", "172820.112500", "172821.602500", "172823.092500", "172824.582500", "172826.072500", "172827.562500", "172829.052500", "172830.542500", "172832.032500", "172833.522500", "172835.012500", "172836.502500", "172837.992500", "172839.482500", "172840.972500", "172842.462500", "172843.952500", "172845.442500", "172846.932500", "172848.422500", "172849.912500", "172851.402500", "172852.892500", "172854.382500", "172855.872500", "172857.362500", "172858.852500", "172900.342500", "172901.832500", "172903.322500", "172904.812500", "172906.302500", "172907.792500", "172909.282500", "172910.772500", "172912.262500", "172913.752500", "172915.242500", "172916.732500", "172918.222500", "172919.712500", "172921.202500", "172922.692500", "172924.182500", "172925.672500", "172927.162500", "172928.652500", "172930.142500", "172931.632500", "172933.122500", "172934.612500", "172936.102500", "172937.592500", "172939.082500", "172940.572500", "172942.062500", "172943.552500", "172945.042500", "172946.532500", "172948.022500", "172949.512500", "172951.002500", "172952.492500", "172953.982500", "172955.472500", "172956.962500", "172958.452500", "172959.942500", "173001.432500", "173002.922500", "173004.412500", "173005.902500", "173007.392500", "173008.882500", "173010.372500", "173011.862500", "173013.352500", "173014.842500", "173016.332500", "173017.822500", "173019.312500", "173020.802500", "173022.292500", "173023.782500", "173025.272500", "173026.762500", "173028.252500", "173029.742500", "173031.232500", "173032.722500", "173034.212500", "173035.702500", "173037.192500", "173038.682500", "173040.172500", "173041.662500", "173043.152500", "173044.642500", "173046.132500", "173047.622500", "173049.112500", "173050.602500", "173052.092500", "173053.582500", "173055.072500", "173056.562500", "173058.052500", "173059.542500", "173101.032500", "173102.522500", "173104.012500", "173105.502500", "173106.992500", "173108.482500", "173109.972500", "173111.462500", "173112.952500", "173114.442500", "173115.932500", "173117.422500", "173118.912500", "173120.402500", "173121.892500", "173123.382500", "173124.872500", "173126.362500", "173127.852500", "173129.342500", "173130.832500", "173132.322500", "173133.812500", "173135.302500", "173136.792500", "173138.282500", "173139.772500", "173141.262500", "173142.752500", "173144.242500", "173145.732500", "173147.222500", "173148.712500", "173150.202500", "173151.692500", "173153.182500", "173154.672500", "173156.162500", "173157.652500", "173159.142500", "173200.632500", "173202.122500", "173203.612500", "173205.102500", "173206.592500", "173208.082500", "173209.572500", "173211.062500", "173212.552500", "173214.042500", "173215.532500", "173217.022500", "173218.512500", "173220.002500", "173221.492500", "173222.982500", "173224.472500", "173225.962500", "173227.452500", "173228.942500", "173230.432500", "173231.922500", "173233.412500", "173234.902500", "173236.392500", "173237.882500", "173239.372500", "173240.862500", "173242.352500", "173243.842500", "173245.332500", "173246.822500", "173248.312500", "173249.802500", "173251.292500", "173252.782500", "173254.272500", "173255.762500", "173257.252500", "173258.742500", "173300.232500", "173301.722500", "173303.212500", "173304.702500", "173306.192500", "173307.682500", "173309.172500", "173310.662500", "173312.152500", "173313.642500", "173315.132500", "173316.622500", "173318.112500", "173319.602500", "173321.092500", "173322.582500", "173324.072500", "173325.562500", "173327.052500", "173328.542500", "173330.032500", "173331.522500", "173333.012500", "173334.502500", "173335.992500", "173337.482500", "173338.972500", "173340.462500", "173341.952500", "173343.442500", "173344.932500", "173346.422500", "173347.912500", "173349.402500", "173350.892500", "173352.382500", "173353.872500", "173355.362500", "173356.852500", "173358.342500", "173359.832500", "173401.322500", "173402.812500", "173404.302500", "173405.792500", "173407.282500", "173408.772500", "173410.262500", "173411.752500", "173413.242500", "173414.732500", "173416.222500", "173417.712500", "173419.202500", "173420.692500", "173422.182500", "173423.672500", "173425.162500", "173426.652500", "173428.142500", "173429.632500", "173431.122500", "173432.612500", "173434.102500", "173435.592500", "173437.082500", "173438.572500", "173440.062500", "173441.552500", "173443.042500", "173444.532500", "173446.022500", "173447.512500", "173449.002500", "173450.492500", "173451.982500", "173453.472500", "173454.962500", "173456.452500", "173457.942500", "173459.432500", "173500.922500", "173502.412500", "173503.902500", "173505.392500", "173506.882500", "173508.372500", "173509.862500", "173511.352500", "173512.842500", "173514.332500", "173515.822500", "173517.312500", "173518.802500", "173520.292500", "173521.782500", "173523.272500", "173524.762500", "173526.252500", "173527.742500", "173529.232500", "173530.722500", "173532.212500", "173533.702500", "173535.192500", "173536.682500", "173538.172500", "173539.662500", "173541.152500", "173542.642500", "173544.132500", "173545.622500", "173547.112500", "173548.602500", "173550.092500", "173551.582500", "173553.072500", "173554.562500", "173556.052500", "173557.542500", "173559.032500", "173600.522500", "173602.012500"],
      "ContentTime": ["172604.602000", "172604.606000", "172604.609000", "172604.612000", "172604.615000", "172604.618000", "172604.621000", "172604.624000", "172604.627000", "172604.630000", "172604.633000", "172604.636000", "172604.639000", "172604.642000", "172604.645000", "172604.648000", "172604.651000", "172604.654000", "172604.657000", "172604.664000", "172604.667000", "172604.670000", "172604.673000", "172604.676000", "172624.566000", "172624.569000", "172624.572000", "172624.575000", "172624.578000", "172624.581000", "172624.590000", "172624.593000", "172624.595000", "172624.598000", "172624.602000", "172624.604000", "172624.607000", "172624.610000", "172624.613000", "172624.617000", "172624.619000", "172624.622000", "172624.625000", "172624.628000", "172644.566000", "172644.569000", "172644.572000", "172644.575000", "172644.578000", "172644.581000", "172644.584000", "172644.587000", "172644.590000", "172644.593000", "172644.596000", "172644.602000", "172644.605000", "172644.608000", "172644.611000", "172644.614000", "172644.617000", "172644.620000", "172644.623000", "172644.626000", "172704.566000", "172704.577000", "172704.581000", "172704.583000", "172704.586000", "172704.589000", "172704.593000", "172704.596000", "172704.599000", "172704.602000", "172704.605000", "172704.608000", "172704.611000", "172704.614000", "172704.617000", "172704.620000", "172704.623000", "172704.626000", "172704.629000", "172704.632000", "172724.566000", "172724.569000", "172724.572000", "172724.575000", "172724.578000", "172724.581000", "172724.584000", "172724.587000", "172724.590000", "172724.593000", "172724.596000", "172724.599000", "172724.602000", "172724.605000", "172724.608000", "172724.611000", "172724.614000", "172724.617000", "172724.620000", "172724.623000", "172804.566000", "172804.569000", "172804.573000", "172804.575000", "172804.578000", "172804.581000", "172804.584000", "172804.587000", "172804.590000", "172804.593000", "172804.596000", "172804.599000", "172804.602000", "172804.605000", "172804.608000", "172804.611000", "172804.614000", "172804.618000", "172804.621000", "172804.624000", "172804.627000", "172804.635000", "172804.639000", "172804.641000", "172804.644000", "172804.647000", "172804.650000", "172804.653000", "172844.566000", "172844.569000", "172844.572000", "172844.575000", "172844.579000", "172844.581000", "172844.584000", "172844.587000", "172844.591000", "172844.593000", "172844.596000", "172844.599000", "172844.603000", "172844.605000", "172844.608000", "172844.611000", "172844.615000", "172844.618000", "172844.620000", "172844.623000", "172844.627000", "172844.630000", "172844.632000", "172844.635000", "172844.638000", "172844.641000", "172844.644000", "172924.566000", "172924.569000", "172924.572000", "172924.583000", "172924.586000", "172924.589000", "172924.592000", "172924.595000", "172924.598000", "172924.601000", "172924.604000", "172924.607000", "172924.610000", "172924.613000", "172924.616000", "172924.619000", "172924.622000", "172924.625000", "172924.628000", "172924.631000", "172924.634000", "172924.637000", "172924.640000", "172924.643000", "172924.646000", "172924.649000", "172924.652000", "173004.566000", "173004.569000", "173004.572000", "173004.575000", "173004.578000", "173004.581000", "173004.584000", "173004.587000", "173004.590000", "173004.593000", "173004.596000", "173004.599000", "173004.603000", "173004.606000", "173004.609000", "173004.612000", "173004.616000", "173004.618000", "173004.621000", "173004.624000", "173004.628000", "173004.630000", "173004.633000", "173004.636000", "173004.639000", "173004.642000", "173044.566000", "173044.569000", "173044.572000", "173044.575000", "173044.578000", "173044.581000", "173044.584000", "173044.587000", "173044.591000", "173044.594000", "173044.597000", "173044.599000", "173044.603000", "173044.605000", "173044.608000", "173044.611000", "173044.614000", "173044.617000", "173044.620000", "173044.623000", "173044.626000", "173044.629000", "173044.632000", "173044.635000", "173044.638000", "173044.641000", "173044.644000", "173124.566000", "173124.569000", "173124.572000", "173124.576000", "173124.579000", "173124.582000", "173124.584000", "173124.588000", "173124.591000", "173124.593000", "173124.596000", "173124.600000", "173124.603000", "173124.605000", "173124.608000", "173124.612000", "173124.615000", "173124.618000", "173124.621000", "173124.624000", "173124.627000", "173124.630000", "173124.633000", "173124.636000", "173124.639000", "173124.642000", "173124.645000", "173204.566000", "173204.569000", "173204.572000", "173204.575000", "173204.578000", "173204.581000", "173204.584000", "173204.587000", "173204.590000", "173204.593000", "173204.596000", "173204.599000", "173204.602000", "173204.605000", "173204.608000", "173204.611000", "173204.614000", "173204.617000", "173204.620000", "173204.623000", "173204.625000", "173204.628000", "173204.631000", "173204.634000", "173204.637000", "173204.640000", "173204.643000", "173244.566000", "173244.570000", "173244.573000", "173244.576000", "173244.579000", "173244.582000", "173244.585000", "173244.587000", "173244.590000", "173244.593000", "173244.596000", "173244.599000", "173244.602000", "173244.605000", "173244.608000", "173244.611000", "173244.614000", "173244.617000", "173244.620000", "173244.623000", "173244.626000", "173244.629000", "173244.632000", "173244.635000", "173244.638000", "173244.641000", "173244.643000", "173324.566000", "173324.572000", "173324.575000", "173324.581000", "173324.585000", "173324.588000", "173324.591000", "173324.594000", "173324.597000", "173324.600000", "173324.604000", "173324.608000", "173324.611000", "173324.614000", "173324.618000", "173324.621000", "173324.624000", "173324.627000", "173324.630000", "173324.633000", "173324.636000", "173324.639000", "173324.643000", "173324.647000", "173324.650000", "173324.653000", "173324.656000", "173404.566000", "173404.569000", "173404.573000", "173404.576000", "173404.578000", "173404.581000", "173404.584000", "173404.587000", "173404.590000", "173404.593000", "173404.596000", "173404.599000", "173404.603000", "173404.607000", "173404.611000", "173404.614000", "173404.617000", "173404.620000", "173404.623000", "173404.627000", "173404.629000", "173404.632000", "173404.635000", "173404.638000", "173404.641000", "173404.644000", "173444.566000", "173444.569000", "173444.572000", "173444.575000", "173444.578000", "173444.581000", "173444.584000", "173444.587000", "173444.590000", "173444.593000", "173444.596000", "173444.599000", "173444.602000", "173444.605000", "173444.608000", "173444.611000", "173444.614000", "173444.617000", "173444.620000", "173444.622000", "173444.625000", "173444.628000", "173444.631000", "173444.634000", "173444.637000", "173444.640000", "173444.643000", "173524.566000", "173524.569000", "173524.572000", "173524.575000", "173524.578000", "173524.581000", "173524.584000", "173524.587000", "173524.590000", "173524.593000", "173524.596000", "173524.599000", "173524.602000", "173524.605000", "173524.608000", "173524.611000", "173524.614000", "173524.617000", "173524.620000", "173524.623000", "173524.625000", "173524.628000", "173524.631000", "173524.634000", "173524.637000", "173524.640000", "173524.643000", "173603.902000", "173603.906000", "173603.909000", "173603.912000", "173603.915000", "173603.918000", "173603.921000", "173603.924000", "173603.927000", "173603.930000", "173603.933000", "173603.936000", "173603.939000", "173603.942000", "173603.945000", "173603.950000", "173603.954000", "173603.956000", "173603.959000", "173603.962000", "173603.965000", "173603.968000", "173603.971000", "173603.974000", "173603.977000", "173603.980000", "173603.983000"],
