{
  "AcquisitionMatrixPE": 104,
  "AcquisitionNumber": 1,
  "AcquisitionTime": "17:12:28.897500",
  "BandwidthPerPixelPhaseEncode": 17.17,
  "BaseResolution": 104,
  "BodyPartExamined": "BRAIN",
  "CoilString": "HC1-7;NC1_2",
  "ConsistencyInfo": "N4_VE11C_LATEST_20160120",
  "ConversionSoftware": "dcm2niix",
  "ConversionSoftwareVersion": "v1.0.20190902",
  "DerivedVendorReportedEchoSpacing": 0.000560011,
  "DeviceSerialNumber": "167006",
  "DwellTime": 2.1e-06,
  "EchoTime": 0.037,
  "EchoTrainLength": 104,
  "EffectiveEchoSpacing": 0.000560011,
  "FlipAngle": 52,
  "ImageComments": "Unaliased_MB4_PE3_LB",
  "ImageOrientationPatientDICOM": [0.998872, -0.04744, 0.00198596, 0.0446598, 0.924485, -0.378592],
  "ImageType": [
    "ORIGINAL",
    "PRIMARY",
    "M",
    "MB",
    "ND",
    "MOSAIC"
],
  "ImagingFrequency": 123.259,
  "InPlanePhaseEncodingDirectionDICOM": "COL",
  "InstitutionAddress": "Chemin_Queen-Mary_4565_Montreal_District_CA_H3W_1W5",
  "InstitutionName": "IUGM",
  "InstitutionalDepartmentName": "Department",
  "MRAcquisitionType": "2D",
  "MagneticFieldStrength": 3,
  "Manufacturer": "Siemens",
  "ManufacturersModelName": "Prisma_fit",
  "Modality": "MR",
  "MultibandAccelerationFactor": 4,
  "PartialFourier": 1,
  "PatientPosition": "HFS",
  "PercentPhaseFOV": 100,
  "PhaseEncodingDirection": "j",
  "PhaseEncodingSteps": 104,
  "PhaseResolution": 1,
  "PixelBandwidth": 2290,
  "ProcedureStepDescription": "video_friends",
  "ProtocolName": "func_task-friends-s03e02b",
  "PulseSequenceDetails": "%CustomerSeq%_cmrr_mbep2d_bold",
  "ReceiveCoilActiveElements": "HC1-7;NC1,2",
  "ReceiveCoilName": "HeadNeck_64",
  "ReconMatrixPE": 104,
  "RepetitionTime": 1.49,
  "SAR": 0.0360299,
  "ScanOptions": "FS",
  "ScanningSequence": "EP",
  "SequenceName": "epfid2d1_104",
  "SequenceVariant": "SK_SS",
  "SeriesDescription": "func_task-friends-s03e02b",
  "SeriesNumber": 17,
  "ShimSetting": [616, -7277, -8830, 404, 23, -465, 66, 31],
  "SliceThickness": 2,
  "SliceTiming": [0, 0.7825, 0.0975, 0.8825, 0.195, 0.98, 0.2925, 1.0775, 0.3925, 1.175, 0.49, 1.2725, 0.5875, 1.3725, 0.685, 0, 0.7825, 0.0975, 0.8825, 0.195, 0.98, 0.2925, 1.0775, 0.3925, 1.175, 0.49, 1.2725, 0.5875, 1.3725, 0.685, 0, 0.7825, 0.0975, 0.8825, 0.195, 0.98, 0.2925, 1.0775, 0.3925, 1.175, 0.49, 1.2725, 0.5875, 1.3725, 0.685, 0, 0.7825, 0.0975, 0.8825, 0.195, 0.98, 0.2925, 1.0775, 0.3925, 1.175, 0.49, 1.2725, 0.5875, 1.3725, 0.685],
  "SoftwareVersions": "syngo_MR_E11",
  "SpacingBetweenSlices": 2,
  "StationName": "MRC35049",
  "TaskName": "s03e02b",
  "TotalReadoutTime": 0.0576811,
  "TxRefAmp": 236.309,
  "WipMemBlock": "d612dccf-9a22-4a97-b88f-71264d778dbd||Sequence: R016 ve11c/master r/e634e98; Dec 19 2017 11:00:25 by eja",
  "dcmmeta_affine": [
    [-1.9977442026138306, 0.08931966125965118, -0.03224887326359749, 96.69943237304688],
    [0.09488000720739365, 1.8489707708358765, -0.7565082311630249, -73.2999038696289],
    [0.003971916623413563, 0.7571848630905151, 1.8511227369308472, -67.06394958496094],
    [0.0, 0.0, 0.0, 1.0]
],
  "dcmmeta_reorient_transform": [
    [0.0, -1.0, 0.0, 103.0],
    [1.0, 0.0, 0.0, 0.0],
    [0.0, 0.0, 1.0, 0.0],
    [0.0, 0.0, 0.0, 1.0]
],
  "dcmmeta_shape": [104, 104, 60, 475],
  "dcmmeta_slice_dim": 2,
  "dcmmeta_version": 0.6,
  "global": {
    "const": {
      "AcquisitionMatrix": [104, 0, 0, 104],
      "AngioFlag": "N",
      "BitsAllocated": 16,
      "BitsStored": 16,
      "BodyPartExamined": "BRAIN",
      "Columns": 832,
      "EchoNumbers": 1,
      "EchoTime": 37.0,
      "EchoTrainLength": 104,
      "FlipAngle": 52.0,
      "HighBit": 15,
      "ImageOrientationPatient": [0.9988721149258, -0.0474400041421, 0.00198595837116, 0.04465983180173, 0.92448541384559, -0.3785924180569],
      "ImagePositionPatient": [-865.59061351176, -755.63314874747, 285.09559049554],
      "ImageType": [
        "ORIGINAL",
        "PRIMARY",
        "M",
        "MB",
        "ND",
        "MOSAIC"
],
      "ImagedNucleus": "1H",
      "ImagingFrequency": 123.258981,
      "InPlanePhaseEncodingDirection": "COL",
      "MRAcquisitionType": "2D",
      "MagneticFieldStrength": 3.0,
      "Manufacturer": "SIEMENS",
      "ManufacturerModelName": "Prisma_fit",
      "Modality": "MR",
      "NumberOfAverages": 1.0,
      "NumberOfPhaseEncodingSteps": 104,
      "PercentPhaseFieldOfView": 100.0,
      "PercentSampling": 100.0,
      "PerformedProcedureStepStartTime": "160107.299000",
      "PhotometricInterpretation": "MONOCHROME2",
      "PixelBandwidth": 2290.0,
      "PixelRepresentation": 0,
      "PixelSpacing": [2.0, 2.0],
      "ProtocolName": "func_task-friends-s03e02b",
      "RepetitionTime": 1490.0,
      "Rows": 832,
      "SAR": 0.03602987715697,
      "SamplesPerPixel": 1,
      "ScanOptions": "FS",
      "ScanningSequence": "EP",
      "SequenceName": "epfid2d1_104",
      "SequenceVariant": [
        "SK",
        "SS"
],
      "SeriesDescription": "func_task-friends-s03e02b",
      "SeriesNumber": 17,
      "SeriesTime": "171346.551000",
      "SliceLocation": -35.905035406341,
      "SliceThickness": 2.0,
      "SmallestImagePixelValue": 0,
      "SoftwareVersions": "syngo MR E11",
      "SpacingBetweenSlices": 2.0000000128173,
      "SpecificCharacterSet": "ISO_IR 100",
      "StudyID": "1",
      "StudyTime": "160107.154000",
      "TransmitCoilName": "Body",
      "VariableFlipAngleFlag": "N",
      "WindowCenterWidthExplanation": "Algo1",
      "dBdt": 0.0},
    "slices": {}
  },
  "time": {
    "samples": {
      "AcquisitionNumber": [1, 2, 3, 4, 5, 6, 7, 8, 9, 10, 11, 12, 13, 14, 15, 16, 17, 18, 19, 20, 21, 22, 23, 24, 25, 26, 27, 28, 29, 30, 31, 32, 33, 34, 35, 36, 37, 38, 39, 40, 41, 42, 43, 44, 45, 46, 47, 48, 49, 50, 51, 52, 53, 54, 55, 56, 57, 58, 59, 60, 61, 62, 63, 64, 65, 66, 67, 68, 69, 70, 71, 72, 73, 74, 75, 76, 77, 78, 79, 80, 81, 82, 83, 84, 85, 86, 87, 88, 89, 90, 91, 92, 93, 94, 95, 96, 97, 98, 99, 100, 101, 102, 103, 104, 105, 106, 107, 108, 109, 110, 111, 112, 113, 114, 115, 116, 117, 118, 119, 120, 121, 122, 123, 124, 125, 126, 127, 128, 129, 130, 131, 132, 133, 134, 135, 136, 137, 138, 139, 140, 141, 142, 143, 144, 145, 146, 147, 148, 149, 150, 151, 152, 153, 154, 155, 156, 157, 158, 159, 160, 161, 162, 163, 164, 165, 166, 167, 168, 169, 170, 171, 172, 173, 174, 175, 176, 177, 178, 179, 180, 181, 182, 183, 184, 185, 186, 187, 188, 189, 190, 191, 192, 193, 194, 195, 196, 197, 198, 199, 200, 201, 202, 203, 204, 205, 206, 207, 208, 209, 210, 211, 212, 213, 214, 215, 216, 217, 218, 219, 220, 221, 222, 223, 224, 225, 226, 227, 228, 229, 230, 231, 232, 233, 234, 235, 236, 237, 238, 239, 240, 241, 242, 243, 244, 245, 246, 247, 248, 249, 250, 251, 252, 253, 254, 255, 256, 257, 258, 259, 260, 261, 262, 263, 264, 265, 266, 267, 268, 269, 270, 271, 272, 273, 274, 275, 276, 277, 278, 279, 280, 281, 282, 283, 284, 285, 286, 287, 288, 289, 290, 291, 292, 293, 294, 295, 296, 297, 298, 299, 300, 301, 302, 303, 304, 305, 306, 307, 308, 309, 310, 311, 312, 313, 314, 315, 316, 317, 318, 319, 320, 321, 322, 323, 324, 325, 326, 327, 328, 329, 330, 331, 332, 333, 334, 335, 336, 337, 338, 339, 340, 341, 342, 343, 344, 345, 346, 347, 348, 349, 350, 351, 352, 353, 354, 355, 356, 357, 358, 359, 360, 361, 362, 363, 364, 365, 366, 367, 368, 369, 370, 371, 372, 373, 374, 375, 376, 377, 378, 379, 380, 381, 382, 383, 384, 385, 386, 387, 388, 389, 390, 391, 392, 393, 394, 395, 396, 397, 398, 399, 400, 401, 402, 403, 404, 405, 406, 407, 408, 409, 410, 411, 412, 413, 414, 415, 416, 417, 418, 419, 420, 421, 422, 423, 424, 425, 426, 427, 428, 429, 430, 431, 432, 433, 434, 435, 436, 437, 438, 439, 440, 441, 442, 443, 444, 445, 446, 447, 448, 449, 450, 451, 452, 453, 454, 455, 456, 457, 458, 459, 460, 461, 462, 463, 464, 465, 466, 467, 468, 469, 470, 471, 472, 473, 474, 475],
      "AcquisitionTime": ["171228.897500", "171230.387500", "171231.877500", "171233.367500", "171234.857500", "171236.347500", "171237.837500", "171239.327500", "171240.817500", "171242.307500", "171243.797500", "171245.287500", "171246.777500", "171248.267500", "171249.757500", "171251.247500", "171252.737500", "171254.227500", "171255.717500", "171257.207500", "171258.697500", "171300.187500", "171301.677500", "171303.167500", "171304.657500", "171306.147500", "171307.637500", "171309.127500", "171310.617500", "171312.107500", "171313.597500", "171315.087500", "171316.577500", "171318.067500", "171319.557500", "171321.047500", "171322.537500", "171324.027500", "171325.517500", "171327.007500", "171328.497500", "171329.987500", "171331.477500", "171332.967500", "171334.457500", "171335.947500", "171337.437500", "171338.927500", "171340.417500", "171341.907500", "171343.397500", "171344.887500", "171346.377500", "171347.867500", "171349.357500", "171350.847500", "171352.337500", "171353.827500", "171355.317500", "171356.807500", "171358.297500", "171359.787500", "171401.277500", "171402.767500", "171404.257500", "171405.747500", "171407.237500", "171408.727500", "171410.217500", "171411.707500", "171413.197500", "171414.687500", "171416.177500", "171417.667500", "171419.157500", "171420.647500", "171422.137500", "171423.627500", "171425.117500", "171426.607500", "171428.097500", "171429.587500", "171431.077500", "171432.567500", "171434.057500", "171435.547500", "171437.037500", "171438.527500", "171440.017500", "171441.507500", "171442.997500", "171444.487500", "171445.977500", "171447.467500", "171448.957500", "171450.447500", "171451.937500", "171453.427500", "171454.917500", "171456.407500", "171457.897500", "171459.387500", "171500.877500", "171502.367500", "171503.857500", "171505.347500", "171506.837500", "171508.327500", "171509.817500", "171511.307500", "171512.797500", "171514.287500", "171515.777500", "171517.267500", "171518.757500", "171520.247500", "171521.737500", "171523.227500", "171524.717500", "171526.207500", "171527.697500", "171529.187500", "171530.677500", "171532.167500", "171533.657500", "171535.147500", "171536.637500", "171538.127500", "171539.617500", "171541.107500", "171542.597500", "171544.087500", "171545.577500", "171547.067500", "171548.557500", "171550.047500", "171551.537500", "171553.027500", "171554.517500", "171556.007500", "171557.497500", "171558.987500", "171600.477500", "171601.967500", "171603.457500", "171604.947500", "171606.437500", "171607.927500", "171609.417500", "171610.907500", "171612.397500", "171613.887500", "171615.377500", "171616.867500", "171618.357500", "171619.847500", "171621.337500", "171622.827500", "171624.317500", "171625.807500", "171627.297500", "171628.787500", "171630.277500", "171631.767500", "171633.257500", "171634.747500", "171636.237500", "171637.727500", "171639.217500", "171640.707500", "171642.197500", "171643.687500", "171645.177500", "171646.667500", "171648.157500", "171649.647500", "171651.137500", "171652.627500", "171654.117500", "171655.607500", "171657.097500", "171658.587500", "171700.077500", "171701.567500", "171703.057500", "171704.547500", "171706.037500", "171707.527500", "171709.017500", "171710.507500", "171711.997500", "171713.487500", "171714.977500", "171716.467500", "171717.957500", "171719.447500", "171720.937500", "171722.427500", "171723.917500", "171725.407500", "171726.897500", "171728.387500", "171729.877500", "171731.367500", "171732.857500", "171734.347500", "171735.837500", "171737.327500", "171738.817500", "171740.307500", "171741.797500", "171743.287500", "171744.777500", "171746.267500", "171747.757500", "171749.247500", "171750.737500", "171752.227500", "171753.717500", "171755.207500", "171756.697500", "171758.187500", "171759.677500", "171801.167500", "171802.657500", "171804.147500", "171805.637500", "171807.127500", "171808.617500", "171810.107500", "171811.597500", "171813.087500", "171814.577500", "171816.067500", "171817.557500", "171819.047500", "171820.537500", "171822.027500", "171823.517500", "171825.007500", "171826.497500", "171827.987500", "171829.477500", "171830.967500", "171832.457500", "171833.947500", "171835.437500", "171836.927500", "171838.417500", "171839.907500", "171841.397500", "171842.887500", "171844.377500", "171845.867500", "171847.357500", "171848.847500", "171850.337500", "171851.827500", "171853.317500", "171854.807500", "171856.297500", "171857.787500", "171859.277500", "171900.767500", "171902.257500", "171903.747500", "171905.237500", "171906.727500", "171908.217500", "171909.707500", "171911.197500", "171912.687500", "171914.177500", "171915.667500", "171917.157500", "171918.647500", "171920.137500", "171921.627500", "171923.117500", "171924.607500", "171926.097500", "171927.587500", "171929.077500", "171930.567500", "171932.057500", "171933.547500", "171935.037500", "171936.527500", "171938.017500", "171939.507500", "171940.997500", "171942.487500", "171943.977500", "171945.467500", "171946.957500", "171948.447500", "171949.937500", "171951.427500", "171952.917500", "171954.407500", "171955.897500", "171957.387500", "171958.877500", "172000.367500", "172001.857500", "172003.347500", "172004.837500", "172006.327500", "172007.817500", "172009.307500", "172010.797500", "172012.287500", "172013.777500", "172015.267500", "172016.757500", "172018.247500", "172019.737500", "172021.227500", "172022.717500", "172024.207500", "172025.697500", "172027.187500", "172028.677500", "172030.167500", "172031.657500", "172033.147500", "172034.637500", "172036.127500", "172037.617500", "172039.107500", "172040.597500", "172042.087500", "172043.577500", "172045.067500", "172046.557500", "172048.047500", "172049.537500", "172051.027500", "172052.517500", "172054.007500", "172055.497500", "172056.987500", "172058.477500", "172059.967500", "172101.457500", "172102.947500", "172104.437500", "172105.927500", "172107.417500", "172108.907500", "172110.397500", "172111.887500", "172113.377500", "172114.867500", "172116.357500", "172117.847500", "172119.337500", "172120.827500", "172122.317500", "172123.807500", "172125.297500", "172126.787500", "172128.277500", "172129.767500", "172131.257500", "172132.747500", "172134.237500", "172135.727500", "172137.217500", "172138.707500", "172140.197500", "172141.687500", "172143.177500", "172144.667500", "172146.157500", "172147.647500", "172149.137500", "172150.627500", "172152.117500", "172153.607500", "172155.097500", "172156.587500", "172158.077500", "172159.567500", "172201.057500", "172202.547500", "172204.037500", "172205.527500", "172207.017500", "172208.507500", "172209.997500", "172211.487500", "172212.977500", "172214.467500", "172215.957500", "172217.447500", "172218.937500", "172220.427500", "172221.917500", "172223.407500", "172224.897500", "172226.387500", "172227.877500", "172229.367500", "172230.857500", "172232.347500", "172233.837500", "172235.327500", "172236.817500", "172238.307500", "172239.797500", "172241.287500", "172242.777500", "172244.267500", "172245.757500", "172247.247500", "172248.737500", "172250.227500", "172251.717500", "172253.207500", "172254.697500", "172256.187500", "172257.677500", "172259.167500", "172300.657500", "172302.147500", "172303.637500", "172305.127500", "172306.617500", "172308.107500", "172309.597500", "172311.087500", "172312.577500", "172314.067500", "172315.557500", "172317.047500", "172318.537500", "172320.027500", "172321.517500", "172323.007500", "172324.497500", "172325.987500", "172327.477500", "172328.967500", "172330.457500", "172331.947500", "172333.437500", "172334.927500", "172336.417500", "172337.907500", "172339.397500", "172340.887500", "172342.377500", "172343.867500", "172345.357500", "172346.847500", "172348.337500", "172349.827500", "172351.317500", "172352.807500", "172354.297500", "172355.787500", "172357.277500", "172358.767500", "172400.257500", "172401.747500", "172403.237500", "172404.727500", "172406.217500", "172407.707500", "172409.197500", "172410.687500", "172412.177500", "172413.667500", "172415.157500"],
      "ContentTime": ["171346.554000", "171346.557000", "171346.560000", "171346.563000", "171346.566000", "171346.569000", "171346.572000", "171346.575000", "171346.578000", "171346.581000", "171346.584000", "171346.587000", "171346.590000", "171346.593000", "171346.596000", "171346.599000", "171346.602000", "171346.605000", "171346.608000", "171346.611000", "171346.614000", "171346.617000", "171346.620000", "171346.623000", "171406.524000", "171406.527000", "171406.530000", "171406.533000", "171406.536000", "171406.539000", "171406.542000", "171406.545000", "171406.548000", "171406.551000", "171406.554000", "171406.557000", "171406.560000", "171406.563000", "171406.566000", "171406.569000", "171406.572000", "171406.575000", "171406.578000", "171406.581000", "171406.584000", "171426.524000", "171426.527000", "171426.530000", "171426.533000", "171426.536000", "171426.539000", "171426.542000", "171426.545000", "171426.548000", "171426.551000", "171426.554000", "171426.557000", "171426.560000", "171426.563000", "171426.566000", "171426.569000", "171426.572000", "171426.575000", "171426.578000", "171426.581000", "171446.524000", "171446.527000", "171446.530000", "171446.533000", "171446.536000", "171446.539000", "171446.542000", "171446.545000", "171446.548000", "171446.551000", "171446.554000", "171446.557000", "171446.560000", "171446.568000", "171446.571000", "171446.574000", "171446.577000", "171446.580000", "171446.583000", "171446.586000", "171506.524000", "171506.527000", "171506.530000", "171506.533000", "171506.545000", "171506.548000", "171506.551000", "171506.554000", "171506.557000", "171506.559000", "171506.563000", "171506.565000", "171506.568000", "171506.571000", "171506.574000", "171506.577000", "171506.580000", "171506.583000", "171506.586000", "171506.589000", "171546.523000", "171546.526000", "171546.529000", "171546.532000", "171546.535000", "171546.538000", "171546.541000", "171546.544000", "171546.547000", "171546.550000", "171546.553000", "171546.556000", "171546.559000", "171546.562000", "171546.565000", "171546.568000", "171546.571000", "171546.574000", "171546.577000", "171546.580000", "171546.583000", "171546.586000", "171546.589000", "171546.592000", "171546.595000", "171546.598000", "171546.601000", "171626.525000", "171626.530000", "171626.533000", "171626.536000", "171626.539000", "171626.542000", "171626.545000", "171626.549000", "171626.552000", "171626.555000", "171626.558000", "171626.561000", "171626.565000", "171626.568000", "171626.571000", "171626.574000", "171626.578000", "171626.581000", "171626.585000", "171626.588000", "171626.591000", "171626.594000", "171626.597000", "171626.602000", "171626.606000", "171626.610000", "171626.615000", "171706.524000", "171706.527000", "171706.536000", "171706.539000", "171706.547000", "171706.550000", "171706.553000", "171706.556000", "171706.559000", "171706.562000", "171706.565000", "171706.568000", "171706.571000", "171706.573000", "171706.577000", "171706.579000", "171706.582000", "171706.585000", "171706.588000", "171706.591000", "171706.594000", "171706.597000", "171706.600000", "171706.603000", "171706.606000", "171706.609000", "171706.612000", "171746.523000", "171746.526000", "171746.529000", "171746.532000", "171746.535000", "171746.538000", "171746.541000", "171746.544000", "171746.547000", "171746.550000", "171746.553000", "171746.556000", "171746.559000", "171746.562000", "171746.566000", "171746.570000", "171746.573000", "171746.576000", "171746.579000", "171746.582000", "171746.585000", "171746.587000", "171746.590000", "171746.593000", "171746.596000", "171746.599000", "171826.524000", "171826.527000", "171826.530000", "171826.533000", "171826.536000", "171826.539000", "171826.542000", "171826.545000", "171826.548000", "171826.551000", "171826.554000", "171826.557000", "171826.560000", "171826.563000", "171826.566000", "171826.569000", "171826.572000", "171826.575000", "171826.578000", "171826.581000", "171826.584000", "171826.587000", "171826.590000", "171826.593000", "171826.596000", "171826.599000", "171826.602000", "171906.524000", "171906.527000", "171906.530000", "171906.533000", "171906.536000", "171906.539000", "171906.542000", "171906.545000", "171906.548000", "171906.551000", "171906.554000", "171906.557000", "171906.560000", "171906.563000", "171906.566000", "171906.569000", "171906.572000", "171906.575000", "171906.578000", "171906.581000", "171906.584000", "171906.587000", "171906.591000", "171906.593000", "171906.596000", "171906.599000", "171906.602000", "171946.524000", "171946.527000", "171946.530000", "171946.533000", "171946.536000", "171946.539000", "171946.542000", "171946.545000", "171946.548000", "171946.551000", "171946.554000", "171946.557000", "171946.560000", "171946.563000", "171946.566000", "171946.569000", "171946.572000", "171946.575000", "171946.578000", "171946.581000", "171946.584000", "171946.587000", "171946.590000", "171946.593000", "171946.596000", "171946.600000", "171946.602000", "172026.524000", "172026.527000", "172026.530000", "172026.533000", "172026.536000", "172026.539000", "172026.542000", "172026.545000", "172026.548000", "172026.551000", "172026.554000", "172026.557000", "172026.560000", "172026.563000", "172026.566000", "172026.569000", "172026.572000", "172026.575000", "172026.578000", "172026.581000", "172026.584000", "172026.587000", "172026.590000", "172026.593000", "172026.596000", "172026.599000", "172026.602000", "172106.524000", "172106.527000", "172106.530000", "172106.533000", "172106.536000", "172106.539000", "172106.542000", "172106.545000", "172106.548000", "172106.551000", "172106.554000", "172106.557000", "172106.560000", "172106.563000", "172106.566000", "172106.569000", "172106.572000", "172106.575000", "172106.578000", "172106.581000", "172106.584000", "172106.587000", "172106.590000", "172106.593000", "172106.596000", "172106.599000", "172106.602000", "172146.524000", "172146.527000", "172146.530000", "172146.533000", "172146.536000", "172146.539000", "172146.542000", "172146.545000", "172146.548000", "172146.551000", "172146.554000", "172146.557000", "172146.560000", "172146.563000", "172146.566000", "172146.569000", "172146.573000", "172146.576000", "172146.579000", "172146.582000", "172146.585000", "172146.588000", "172146.591000", "172146.594000", "172146.597000", "172146.600000", "172226.523000", "172226.526000", "172226.529000", "172226.532000", "172226.535000", "172226.538000", "172226.541000", "172226.544000", "172226.547000", "172226.550000", "172226.553000", "172226.556000", "172226.559000", "172226.562000", "172226.565000", "172226.568000", "172226.571000", "172226.574000", "172226.577000", "172226.580000", "172226.583000", "172226.586000", "172226.589000", "172226.592000", "172226.595000", "172226.598000", "172226.601000", "172306.524000", "172306.527000", "172306.545000", "172306.548000", "172306.551000", "172306.554000", "172306.557000", "172306.560000", "172306.563000", "172306.566000", "172306.569000", "172306.572000", "172306.575000", "172306.578000", "172306.581000", "172306.589000", "172306.592000", "172306.595000", "172306.598000", "172306.601000", "172306.604000", "172306.607000", "172306.610000", "172306.613000", "172306.616000", "172306.619000", "172306.622000", "172346.524000", "172346.527000", "172346.530000", "172346.533000", "172346.536000", "172346.539000", "172346.542000", "172346.545000", "172346.548000", "172346.551000", "172346.554000", "172346.557000", "172346.560000", "172346.563000", "172346.566000", "172346.570000", "172346.573000", "172346.576000", "172346.579000", "172346.582000", "172346.585000", "172346.587000", "172346.590000", "172346.593000", "172346.596000", "172346.599000", "172346.602000", "172417.121000", "172417.124000", "172417.127000", "172417.130000", "172417.133000", "172417.136000", "172417.139000", "172417.142000", "172417.145000", "172417.149000", "172417.152000", "172417.155000", "172417.158000", "172417.161000", "172417.164000", "172417.168000", "172417.171000", "172417.174000", "172417.177000", "172417.180000", "172417.183000"],
