{
  "AcquisitionMatrixPE": 104,
  "AcquisitionNumber": 1,
  "AcquisitionTime": "16:35:4.302500",
  "BandwidthPerPixelPhaseEncode": 17.17,
  "BaseResolution": 104,
  "BodyPartExamined": "BRAIN",
  "CoilString": "HC1-7;NC1_2",
  "ConsistencyInfo": "N4_VE11C_LATEST_20160120",
  "ConversionSoftware": "dcm2niix",
  "ConversionSoftwareVersion": "v1.0.20190902",
  "DerivedVendorReportedEchoSpacing": 0.000560011,
  "DeviceSerialNumber": "167006",
  "DwellTime": 2.1e-06,
  "EchoTime": 0.037,
  "EchoTrainLength": 104,
  "EffectiveEchoSpacing": 0.000560011,
  "FlipAngle": 52,
  "ImageComments": "Unaliased_MB4_PE3_LB",
  "ImageOrientationPatientDICOM": [0.998872, -0.04744, 0.00198596, 0.0446598, 0.924485, -0.378592],
  "ImageType": [
    "ORIGINAL",
    "PRIMARY",
    "M",
    "MB",
    "ND",
    "MOSAIC"
],
  "ImagingFrequency": 123.259,
  "InPlanePhaseEncodingDirectionDICOM": "COL",
  "InstitutionAddress": "Chemin_Queen-Mary_4565_Montreal_District_CA_H3W_1W5",
  "InstitutionName": "IUGM",
  "InstitutionalDepartmentName": "Department",
  "MRAcquisitionType": "2D",
  "MagneticFieldStrength": 3,
  "Manufacturer": "Siemens",
  "ManufacturersModelName": "Prisma_fit",
  "Modality": "MR",
  "MultibandAccelerationFactor": 4,
  "PartialFourier": 1,
  "PatientPosition": "HFS",
  "PercentPhaseFOV": 100,
  "PhaseEncodingDirection": "j",
  "PhaseEncodingSteps": 104,
  "PhaseResolution": 1,
  "PixelBandwidth": 2290,
  "ProcedureStepDescription": "video_friends",
  "ProtocolName": "func_task-friends-s03e01a",
  "PulseSequenceDetails": "%CustomerSeq%_cmrr_mbep2d_bold",
  "ReceiveCoilActiveElements": "HC1-7;NC1,2",
  "ReceiveCoilName": "HeadNeck_64",
  "ReconMatrixPE": 104,
  "RepetitionTime": 1.49,
  "SAR": 0.0360348,
  "ScanOptions": "FS",
  "ScanningSequence": "EP",
  "SequenceName": "epfid2d1_104",
  "SequenceVariant": "SK_SS",
  "SeriesDescription": "func_task-friends-s03e01a",
  "SeriesNumber": 11,
  "ShimSetting": [616, -7277, -8830, 404, 23, -465, 66, 31],
  "SliceThickness": 2,
  "SliceTiming": [0, 0.7825, 0.0975, 0.8825, 0.195, 0.98, 0.295, 1.0775, 0.3925, 1.175, 0.49, 1.2725, 0.5875, 1.3725, 0.685, 0, 0.7825, 0.0975, 0.8825, 0.195, 0.98, 0.295, 1.0775, 0.3925, 1.175, 0.49, 1.2725, 0.5875, 1.3725, 0.685, 0, 0.7825, 0.0975, 0.8825, 0.195, 0.98, 0.295, 1.0775, 0.3925, 1.175, 0.49, 1.2725, 0.5875, 1.3725, 0.685, 0, 0.7825, 0.0975, 0.8825, 0.195, 0.98, 0.295, 1.0775, 0.3925, 1.175, 0.49, 1.2725, 0.5875, 1.3725, 0.685],
  "SoftwareVersions": "syngo_MR_E11",
  "SpacingBetweenSlices": 2,
  "StationName": "MRC35049",
  "TaskName": "s03e01a",
  "TotalReadoutTime": 0.0576811,
  "TxRefAmp": 236.309,
  "WipMemBlock": "2ec47319-184a-4a21-8fda-ec354cdc6529||Sequence: R016 ve11c/master r/e634e98; Dec 19 2017 11:00:25 by eja",
  "dcmmeta_affine": [
    [-1.9977442026138306, 0.08931966125965118, -0.03224887326359749, 96.69943237304688],
    [0.09488000720739365, 1.8489707708358765, -0.7565082311630249, -73.2999038696289],
    [0.003971916623413563, 0.7571848630905151, 1.8511227369308472, -67.06394958496094],
    [0.0, 0.0, 0.0, 1.0]
],
  "dcmmeta_reorient_transform": [
    [0.0, -1.0, 0.0, 103.0],
    [1.0, 0.0, 0.0, 0.0],
    [0.0, 0.0, 1.0, 0.0],
    [0.0, 0.0, 0.0, 1.0]
],
  "dcmmeta_shape": [104, 104, 60, 491],
  "dcmmeta_slice_dim": 2,
  "dcmmeta_version": 0.6,
  "global": {
    "const": {
      "AcquisitionMatrix": [104, 0, 0, 104],
      "AngioFlag": "N",
      "BitsAllocated": 16,
      "BitsStored": 16,
      "BodyPartExamined": "BRAIN",
      "Columns": 832,
      "EchoNumbers": 1,
      "EchoTime": 37.0,
      "EchoTrainLength": 104,
      "FlipAngle": 52.0,
      "HighBit": 15,
      "ImageOrientationPatient": [0.9988721149258, -0.0474400041421, 0.00198595837116, 0.04465983180173, 0.92448541384559, -0.3785924180569],
      "ImagePositionPatient": [-865.59061351176, -755.63314874747, 285.09559049554],
      "ImageType": [
        "ORIGINAL",
        "PRIMARY",
        "M",
        "MB",
        "ND",
        "MOSAIC"
],
      "ImagedNucleus": "1H",
      "ImagingFrequency": 123.258959,
      "InPlanePhaseEncodingDirection": "COL",
      "MRAcquisitionType": "2D",
      "MagneticFieldStrength": 3.0,
      "Manufacturer": "SIEMENS",
      "ManufacturerModelName": "Prisma_fit",
      "Modality": "MR",
      "NumberOfAverages": 1.0,
      "NumberOfPhaseEncodingSteps": 104,
      "PercentPhaseFieldOfView": 100.0,
      "PercentSampling": 100.0,
      "PerformedProcedureStepStartTime": "160107.299000",
      "PhotometricInterpretation": "MONOCHROME2",
      "PixelBandwidth": 2290.0,
      "PixelRepresentation": 0,
      "PixelSpacing": [2.0, 2.0],
      "ProtocolName": "func_task-friends-s03e01a",
      "RepetitionTime": 1490.0,
      "Rows": 832,
      "SAR": 0.03603476408794,
      "SamplesPerPixel": 1,
      "ScanOptions": "FS",
      "ScanningSequence": "EP",
      "SequenceName": "epfid2d1_104",
      "SequenceVariant": [
        "SK",
        "SS"
],
      "SeriesDescription": "func_task-friends-s03e01a",
      "SeriesNumber": 11,
      "SeriesTime": "163626.561000",
      "SliceLocation": -35.905035406341,
      "SliceThickness": 2.0,
      "SmallestImagePixelValue": 0,
      "SoftwareVersions": "syngo MR E11",
      "SpacingBetweenSlices": 2.0000000128173,
      "SpecificCharacterSet": "ISO_IR 100",
      "StudyID": "1",
      "StudyTime": "160107.154000",
      "TransmitCoilName": "Body",
      "VariableFlipAngleFlag": "N",
      "WindowCenterWidthExplanation": "Algo1",
      "dBdt": 0.0},
    "slices": {}
  },
  "time": {
    "samples": {
      "AcquisitionNumber": [1, 2, 3, 4, 5, 6, 7, 8, 9, 10, 11, 12, 13, 14, 15, 16, 17, 18, 19, 20, 21, 22, 23, 24, 25, 26, 27, 28, 29, 30, 31, 32, 33, 34, 35, 36, 37, 38, 39, 40, 41, 42, 43, 44, 45, 46, 47, 48, 49, 50, 51, 52, 53, 54, 55, 56, 57, 58, 59, 60, 61, 62, 63, 64, 65, 66, 67, 68, 69, 70, 71, 72, 73, 74, 75, 76, 77, 78, 79, 80, 81, 82, 83, 84, 85, 86, 87, 88, 89, 90, 91, 92, 93, 94, 95, 96, 97, 98, 99, 100, 101, 102, 103, 104, 105, 106, 107, 108, 109, 110, 111, 112, 113, 114, 115, 116, 117, 118, 119, 120, 121, 122, 123, 124, 125, 126, 127, 128, 129, 130, 131, 132, 133, 134, 135, 136, 137, 138, 139, 140, 141, 142, 143, 144, 145, 146, 147, 148, 149, 150, 151, 152, 153, 154, 155, 156, 157, 158, 159, 160, 161, 162, 163, 164, 165, 166, 167, 168, 169, 170, 171, 172, 173, 174, 175, 176, 177, 178, 179, 180, 181, 182, 183, 184, 185, 186, 187, 188, 189, 190, 191, 192, 193, 194, 195, 196, 197, 198, 199, 200, 201, 202, 203, 204, 205, 206, 207, 208, 209, 210, 211, 212, 213, 214, 215, 216, 217, 218, 219, 220, 221, 222, 223, 224, 225, 226, 227, 228, 229, 230, 231, 232, 233, 234, 235, 236, 237, 238, 239, 240, 241, 242, 243, 244, 245, 246, 247, 248, 249, 250, 251, 252, 253, 254, 255, 256, 257, 258, 259, 260, 261, 262, 263, 264, 265, 266, 267, 268, 269, 270, 271, 272, 273, 274, 275, 276, 277, 278, 279, 280, 281, 282, 283, 284, 285, 286, 287, 288, 289, 290, 291, 292, 293, 294, 295, 296, 297, 298, 299, 300, 301, 302, 303, 304, 305, 306, 307, 308, 309, 310, 311, 312, 313, 314, 315, 316, 317, 318, 319, 320, 321, 322, 323, 324, 325, 326, 327, 328, 329, 330, 331, 332, 333, 334, 335, 336, 337, 338, 339, 340, 341, 342, 343, 344, 345, 346, 347, 348, 349, 350, 351, 352, 353, 354, 355, 356, 357, 358, 359, 360, 361, 362, 363, 364, 365, 366, 367, 368, 369, 370, 371, 372, 373, 374, 375, 376, 377, 378, 379, 380, 381, 382, 383, 384, 385, 386, 387, 388, 389, 390, 391, 392, 393, 394, 395, 396, 397, 398, 399, 400, 401, 402, 403, 404, 405, 406, 407, 408, 409, 410, 411, 412, 413, 414, 415, 416, 417, 418, 419, 420, 421, 422, 423, 424, 425, 426, 427, 428, 429, 430, 431, 432, 433, 434, 435, 436, 437, 438, 439, 440, 441, 442, 443, 444, 445, 446, 447, 448, 449, 450, 451, 452, 453, 454, 455, 456, 457, 458, 459, 460, 461, 462, 463, 464, 465, 466, 467, 468, 469, 470, 471, 472, 473, 474, 475, 476, 477, 478, 479, 480, 481, 482, 483, 484, 485, 486, 487, 488, 489, 490, 491],
      "AcquisitionTime": ["163504.302500", "163505.792500", "163507.282500", "163508.772500", "163510.262500", "163511.752500", "163513.242500", "163514.732500", "163516.222500", "163517.712500", "163519.202500", "163520.692500", "163522.182500", "163523.672500", "163525.162500", "163526.652500", "163528.142500", "163529.632500", "163531.122500", "163532.612500", "163534.102500", "163535.592500", "163537.082500", "163538.572500", "163540.062500", "163541.552500", "163543.042500", "163544.532500", "163546.022500", "163547.512500", "163549.002500", "163550.492500", "163551.982500", "163553.472500", "163554.962500", "163556.452500", "163557.942500", "163559.432500", "163600.922500", "163602.412500", "163603.902500", "163605.392500", "163606.882500", "163608.372500", "163609.862500", "163611.352500", "163612.842500", "163614.332500", "163615.822500", "163617.312500", "163618.802500", "163620.292500", "163621.782500", "163623.272500", "163624.762500", "163626.252500", "163627.742500", "163629.232500", "163630.722500", "163632.212500", "163633.702500", "163635.192500", "163636.682500", "163638.172500", "163639.662500", "163641.152500", "163642.642500", "163644.132500", "163645.622500", "163647.112500", "163648.602500", "163650.092500", "163651.582500", "163653.072500", "163654.562500", "163656.052500", "163657.542500", "163659.032500", "163700.522500", "163702.012500", "163703.502500", "163704.992500", "163706.482500", "163707.972500", "163709.462500", "163710.952500", "163712.442500", "163713.932500", "163715.422500", "163716.912500", "163718.402500", "163719.892500", "163721.382500", "163722.872500", "163724.362500", "163725.852500", "163727.342500", "163728.832500", "163730.322500", "163731.812500", "163733.302500", "163734.792500", "163736.282500", "163737.772500", "163739.262500", "163740.752500", "163742.242500", "163743.732500", "163745.222500", "163746.712500", "163748.202500", "163749.692500", "163751.182500", "163752.672500", "163754.162500", "163755.652500", "163757.142500", "163758.632500", "163800.122500", "163801.612500", "163803.102500", "163804.592500", "163806.082500", "163807.572500", "163809.062500", "163810.552500", "163812.042500", "163813.532500", "163815.022500", "163816.512500", "163818.002500", "163819.492500", "163820.982500", "163822.472500", "163823.962500", "163825.452500", "163826.942500", "163828.432500", "163829.922500", "163831.412500", "163832.902500", "163834.392500", "163835.882500", "163837.372500", "163838.862500", "163840.352500", "163841.842500", "163843.332500", "163844.822500", "163846.312500", "163847.802500", "163849.292500", "163850.782500", "163852.272500", "163853.762500", "163855.252500", "163856.742500", "163858.232500", "163859.722500", "163901.212500", "163902.702500", "163904.192500", "163905.682500", "163907.172500", "163908.662500", "163910.152500", "163911.642500", "163913.132500", "163914.622500", "163916.112500", "163917.602500", "163919.092500", "163920.582500", "163922.072500", "163923.562500", "163925.052500", "163926.542500", "163928.032500", "163929.522500", "163931.012500", "163932.502500", "163933.992500", "163935.482500", "163936.972500", "163938.462500", "163939.952500", "163941.442500", "163942.932500", "163944.422500", "163945.912500", "163947.402500", "163948.892500", "163950.382500", "163951.872500", "163953.362500", "163954.852500", "163956.342500", "163957.832500", "163959.322500", "164000.812500", "164002.302500", "164003.792500", "164005.282500", "164006.772500", "164008.262500", "164009.752500", "164011.242500", "164012.732500", "164014.222500", "164015.712500", "164017.202500", "164018.692500", "164020.182500", "164021.672500", "164023.162500", "164024.652500", "164026.142500", "164027.632500", "164029.122500", "164030.612500", "164032.102500", "164033.592500", "164035.082500", "164036.572500", "164038.062500", "164039.552500", "164041.042500", "164042.532500", "164044.022500", "164045.512500", "164047.002500", "164048.492500", "164049.982500", "164051.472500", "164052.962500", "164054.452500", "164055.942500", "164057.432500", "164058.922500", "164100.412500", "164101.902500", "164103.392500", "164104.882500", "164106.372500", "164107.862500", "164109.352500", "164110.842500", "164112.332500", "164113.822500", "164115.312500", "164116.802500", "164118.292500", "164119.782500", "164121.272500", "164122.762500", "164124.252500", "164125.742500", "164127.232500", "164128.722500", "164130.212500", "164131.702500", "164133.192500", "164134.682500", "164136.172500", "164137.662500", "164139.152500", "164140.642500", "164142.132500", "164143.622500", "164145.112500", "164146.602500", "164148.092500", "164149.582500", "164151.072500", "164152.562500", "164154.052500", "164155.542500", "164157.032500", "164158.522500", "164200.012500", "164201.502500", "164202.992500", "164204.482500", "164205.972500", "164207.462500", "164208.952500", "164210.442500", "164211.932500", "164213.422500", "164214.912500", "164216.402500", "164217.892500", "164219.382500", "164220.872500", "164222.362500", "164223.852500", "164225.342500", "164226.832500", "164228.322500", "164229.812500", "164231.302500", "164232.792500", "164234.282500", "164235.772500", "164237.262500", "164238.752500", "164240.242500", "164241.732500", "164243.222500", "164244.712500", "164246.202500", "164247.692500", "164249.182500", "164250.672500", "164252.162500", "164253.652500", "164255.142500", "164256.632500", "164258.122500", "164259.612500", "164301.102500", "164302.592500", "164304.082500", "164305.572500", "164307.062500", "164308.552500", "164310.042500", "164311.532500", "164313.022500", "164314.512500", "164316.002500", "164317.492500", "164318.982500", "164320.472500", "164321.962500", "164323.452500", "164324.942500", "164326.432500", "164327.922500", "164329.412500", "164330.902500", "164332.392500", "164333.882500", "164335.372500", "164336.862500", "164338.352500", "164339.842500", "164341.332500", "164342.822500", "164344.312500", "164345.802500", "164347.292500", "164348.782500", "164350.272500", "164351.762500", "164353.252500", "164354.742500", "164356.232500", "164357.722500", "164359.212500", "164400.702500", "164402.192500", "164403.682500", "164405.172500", "164406.662500", "164408.152500", "164409.642500", "164411.132500", "164412.622500", "164414.112500", "164415.602500", "164417.092500", "164418.582500", "164420.072500", "164421.562500", "164423.052500", "164424.542500", "164426.032500", "164427.522500", "164429.012500", "164430.502500", "164431.992500", "164433.482500", "164434.972500", "164436.462500", "164437.952500", "164439.442500", "164440.932500", "164442.422500", "164443.912500", "164445.402500", "164446.892500", "164448.382500", "164449.872500", "164451.362500", "164452.852500", "164454.342500", "164455.832500", "164457.322500", "164458.812500", "164500.302500", "164501.792500", "164503.282500", "164504.772500", "164506.262500", "164507.752500", "164509.242500", "164510.732500", "164512.222500", "164513.712500", "164515.202500", "164516.692500", "164518.182500", "164519.672500", "164521.162500", "164522.652500", "164524.142500", "164525.632500", "164527.122500", "164528.612500", "164530.102500", "164531.592500", "164533.082500", "164534.572500", "164536.062500", "164537.552500", "164539.042500", "164540.532500", "164542.022500", "164543.512500", "164545.002500", "164546.492500", "164547.982500", "164549.472500", "164550.962500", "164552.452500", "164553.942500", "164555.432500", "164556.922500", "164558.412500", "164559.902500", "164601.392500", "164602.882500", "164604.372500", "164605.862500", "164607.352500", "164608.842500", "164610.332500", "164611.822500", "164613.312500", "164614.802500", "164616.292500", "164617.782500", "164619.272500", "164620.762500", "164622.252500", "164623.742500", "164625.232500", "164626.722500", "164628.212500", "164629.702500", "164631.192500", "164632.682500", "164634.172500", "164635.662500", "164637.152500", "164638.642500", "164640.132500", "164641.622500", "164643.112500", "164644.602500", "164646.092500", "164647.582500", "164649.072500", "164650.562500", "164652.052500", "164653.542500", "164655.032500", "164656.522500", "164658.012500", "164659.502500", "164700.992500", "164702.482500", "164703.972500", "164705.462500", "164706.952500", "164708.442500", "164709.932500", "164711.422500", "164712.912500", "164714.402500"],
      "ContentTime": ["163626.564000", "163626.568000", "163626.571000", "163626.574000", "163626.585000", "163626.588000", "163626.591000", "163626.608000", "163626.611000", "163626.614000", "163626.617000", "163626.620000", "163626.623000", "163626.626000", "163626.629000", "163626.632000", "163626.635000", "163626.638000", "163626.643000", "163626.646000", "163626.649000", "163626.652000", "163626.655000", "163626.658000", "163626.661000", "163626.664000", "163626.667000", "163646.524000", "163646.527000", "163646.530000", "163646.533000", "163646.536000", "163646.539000", "163646.542000", "163646.545000", "163646.548000", "163646.551000", "163646.554000", "163646.557000", "163646.560000", "163646.563000", "163646.574000", "163646.577000", "163646.580000", "163646.583000", "163646.586000", "163646.588000", "163706.524000", "163706.527000", "163706.530000", "163706.533000", "163706.536000", "163706.539000", "163706.542000", "163706.545000", "163706.548000", "163706.551000", "163706.554000", "163706.557000", "163706.560000", "163706.563000", "163706.566000", "163706.569000", "163706.572000", "163706.575000", "163706.591000", "163706.594000", "163726.524000", "163726.527000", "163726.530000", "163726.533000", "163726.536000", "163726.539000", "163726.543000", "163726.546000", "163726.549000", "163726.552000", "163726.555000", "163726.558000", "163726.561000", "163726.564000", "163726.567000", "163726.580000", "163726.583000", "163726.586000", "163726.589000", "163726.592000", "163746.524000", "163746.527000", "163746.533000", "163746.536000", "163746.539000", "163746.542000", "163746.545000", "163746.548000", "163746.551000", "163746.554000", "163746.565000", "163746.568000", "163746.571000", "163746.574000", "163746.577000", "163746.580000", "163746.583000", "163746.586000", "163746.589000", "163746.592000", "163746.595000", "163826.523000", "163826.526000", "163826.529000", "163826.532000", "163826.535000", "163826.538000", "163826.541000", "163826.544000", "163826.557000", "163826.560000", "163826.563000", "163826.576000", "163826.579000", "163826.582000", "163826.585000", "163826.588000", "163826.591000", "163826.594000", "163826.597000", "163826.600000", "163826.603000", "163826.606000", "163826.609000", "163826.612000", "163826.615000", "163826.618000", "163826.621000", "163906.524000", "163906.527000", "163906.530000", "163906.533000", "163906.536000", "163906.539000", "163906.542000", "163906.545000", "163906.548000", "163906.551000", "163906.554000", "163906.557000", "163906.560000", "163906.563000", "163906.566000", "163906.569000", "163906.572000", "163906.575000", "163906.578000", "163906.581000", "163906.584000", "163906.587000", "163906.590000", "163906.593000", "163906.596000", "163906.599000", "163906.602000", "163946.524000", "163946.527000", "163946.530000", "163946.533000", "163946.536000", "163946.539000", "163946.542000", "163946.545000", "163946.548000", "163946.551000", "163946.554000", "163946.557000", "163946.560000", "163946.563000", "163946.566000", "163946.569000", "163946.572000", "163946.575000", "163946.578000", "163946.581000", "163946.584000", "163946.587000", "163946.590000", "163946.593000", "163946.596000", "163946.601000", "164026.524000", "164026.527000", "164026.530000", "164026.533000", "164026.536000", "164026.539000", "164026.542000", "164026.545000", "164026.548000", "164026.551000", "164026.554000", "164026.557000", "164026.560000", "164026.563000", "164026.566000", "164026.569000", "164026.572000", "164026.575000", "164026.578000", "164026.581000", "164026.585000", "164026.587000", "164026.590000", "164026.593000", "164026.596000", "164026.599000", "164026.602000", "164106.524000", "164106.527000", "164106.530000", "164106.533000", "164106.536000", "164106.539000", "164106.542000", "164106.545000", "164106.548000", "164106.551000", "164106.554000", "164106.557000", "164106.560000", "164106.563000", "164106.566000", "164106.569000", "164106.573000", "164106.575000", "164106.579000", "164106.582000", "164106.585000", "164106.588000", "164106.591000", "164106.594000", "164106.596000", "164106.599000", "164106.602000", "164146.524000", "164146.527000", "164146.530000", "164146.533000", "164146.536000", "164146.539000", "164146.542000", "164146.545000", "164146.548000", "164146.551000", "164146.554000", "164146.557000", "164146.560000", "164146.563000", "164146.566000", "164146.569000", "164146.572000", "164146.575000", "164146.578000", "164146.581000", "164146.584000", "164146.587000", "164146.590000", "164146.593000", "164146.596000", "164146.599000", "164146.602000", "164226.524000", "164226.527000", "164226.530000", "164226.533000", "164226.543000", "164226.546000", "164226.549000", "164226.552000", "164226.555000", "164226.558000", "164226.561000", "164226.564000", "164226.567000", "164226.570000", "164226.573000", "164226.576000", "164226.579000", "164226.582000", "164226.585000", "164226.588000", "164226.591000", "164226.594000", "164226.597000", "164226.600000", "164226.603000", "164226.606000", "164226.609000", "164306.523000", "164306.526000", "164306.529000", "164306.532000", "164306.535000", "164306.538000", "164306.541000", "164306.544000", "164306.547000", "164306.550000", "164306.553000", "164306.556000", "164306.559000", "164306.562000", "164306.565000", "164306.568000", "164306.571000", "164306.585000", "164306.588000", "164306.591000", "164306.594000", "164306.597000", "164306.600000", "164306.603000", "164306.606000", "164306.609000", "164306.612000", "164346.524000", "164346.527000", "164346.530000", "164346.533000", "164346.536000", "164346.540000", "164346.543000", "164346.546000", "164346.549000", "164346.552000", "164346.555000", "164346.558000", "164346.561000", "164346.564000", "164346.567000", "164346.570000", "164346.573000", "164346.576000", "164346.579000", "164346.582000", "164346.585000", "164346.588000", "164346.591000", "164346.594000", "164346.597000", "164346.600000", "164426.524000", "164426.527000", "164426.530000", "164426.533000", "164426.536000", "164426.539000", "164426.542000", "164426.545000", "164426.548000", "164426.551000", "164426.554000", "164426.557000", "164426.560000", "164426.563000", "164426.566000", "164426.569000", "164426.573000", "164426.575000", "164426.578000", "164426.581000", "164426.584000", "164426.587000", "164426.590000", "164426.593000", "164426.596000", "164426.599000", "164426.602000", "164506.524000", "164506.527000", "164506.530000", "164506.534000", "164506.537000", "164506.539000", "164506.542000", "164506.545000", "164506.548000", "164506.551000", "164506.554000", "164506.558000", "164506.561000", "164506.564000", "164506.566000", "164506.570000", "164506.573000", "164506.576000", "164506.579000", "164506.582000", "164506.585000", "164506.588000", "164506.591000", "164506.594000", "164506.597000", "164506.600000", "164506.602000", "164546.524000", "164546.527000", "164546.530000", "164546.533000", "164546.536000", "164546.539000", "164546.542000", "164546.545000", "164546.548000", "164546.551000", "164546.554000", "164546.557000", "164546.560000", "164546.563000", "164546.567000", "164546.570000", "164546.573000", "164546.576000", "164546.579000", "164546.582000", "164546.585000", "164546.588000", "164546.591000", "164546.594000", "164546.597000", "164546.600000", "164546.603000", "164626.524000", "164626.527000", "164626.530000", "164626.533000", "164626.536000", "164626.540000", "164626.543000", "164626.545000", "164626.548000", "164626.552000", "164626.555000", "164626.557000", "164626.560000", "164626.564000", "164626.567000", "164626.570000", "164626.573000", "164626.576000", "164626.579000", "164626.582000", "164626.584000", "164626.588000", "164626.591000", "164626.594000", "164626.597000", "164626.600000", "164626.603000", "164706.524000", "164706.528000", "164706.530000", "164706.533000", "164706.537000", "164706.540000", "164706.543000", "164706.546000", "164706.549000", "164706.552000", "164706.555000", "164706.558000", "164706.561000", "164706.564000", "164706.567000", "164706.570000", "164706.573000", "164706.576000", "164706.579000", "164706.582000", "164706.585000", "164706.588000", "164706.591000", "164706.594000", "164706.597000", "164706.600000", "164706.603000", "164716.744000", "164716.747000", "164716.750000", "164716.753000", "164716.756000", "164716.759000", "164716.762000"],
