{
  "AcquisitionMatrixPE": 104,
  "AcquisitionNumber": 1,
  "AcquisitionTime": "18:01:25.140000",
  "BandwidthPerPixelPhaseEncode": 17.17,
  "BaseResolution": 104,
  "BodyPartExamined": "BRAIN",
  "CoilString": "HC1-7;NC1_2",
  "ConsistencyInfo": "N4_VE11C_LATEST_20160120",
  "ConversionSoftware": "dcm2niix",
  "ConversionSoftwareVersion": "v1.0.20190902",
  "DerivedVendorReportedEchoSpacing": 0.000560011,
  "DeviceSerialNumber": "167006",
  "DwellTime": 2.1e-06,
  "EchoTime": 0.037,
  "EchoTrainLength": 104,
  "EffectiveEchoSpacing": 0.000560011,
  "FlipAngle": 52,
  "ImageComments": "Unaliased_MB4_PE3_LB",
  "ImageOrientationPatientDICOM": [0.998872, -0.04744, 0.00198596, 0.0446598, 0.924485, -0.378592],
  "ImageType": [
    "ORIGINAL",
    "PRIMARY",
    "M",
    "MB",
    "ND",
    "MOSAIC"
],
  "ImagingFrequency": 123.259,
  "InPlanePhaseEncodingDirectionDICOM": "COL",
  "InstitutionAddress": "Chemin_Queen-Mary_4565_Montreal_District_CA_H3W_1W5",
  "InstitutionName": "IUGM",
  "InstitutionalDepartmentName": "Department",
  "MRAcquisitionType": "2D",
  "MagneticFieldStrength": 3,
  "Manufacturer": "Siemens",
  "ManufacturersModelName": "Prisma_fit",
  "Modality": "MR",
  "MultibandAccelerationFactor": 4,
  "PartialFourier": 1,
  "PatientPosition": "HFS",
  "PercentPhaseFOV": 100,
  "PhaseEncodingDirection": "j",
  "PhaseEncodingSteps": 104,
  "PhaseResolution": 1,
  "PixelBandwidth": 2290,
  "ProcedureStepDescription": "video_friends",
  "ProtocolName": "func_task-friends-s03e04b",
  "PulseSequenceDetails": "%CustomerSeq%_cmrr_mbep2d_bold",
  "ReceiveCoilActiveElements": "HC1-7;NC1,2",
  "ReceiveCoilName": "HeadNeck_64",
  "ReconMatrixPE": 104,
  "RepetitionTime": 1.49,
  "SAR": 0.0360292,
  "ScanOptions": "FS",
  "ScanningSequence": "EP",
  "SequenceName": "epfid2d1_104",
  "SequenceVariant": "SK_SS",
  "SeriesDescription": "func_task-friends-s03e04b",
  "SeriesNumber": 25,
  "ShimSetting": [616, -7277, -8830, 404, 23, -465, 66, 31],
  "SliceThickness": 2,
  "SliceTiming": [0, 0.7825, 0.0975, 0.88, 0.195, 0.98, 0.2925, 1.0775, 0.39, 1.175, 0.49, 1.2725, 0.5875, 1.37, 0.685, 0, 0.7825, 0.0975, 0.88, 0.195, 0.98, 0.2925, 1.0775, 0.39, 1.175, 0.49, 1.2725, 0.5875, 1.37, 0.685, 0, 0.7825, 0.0975, 0.88, 0.195, 0.98, 0.2925, 1.0775, 0.39, 1.175, 0.49, 1.2725, 0.5875, 1.37, 0.685, 0, 0.7825, 0.0975, 0.88, 0.195, 0.98, 0.2925, 1.0775, 0.39, 1.175, 0.49, 1.2725, 0.5875, 1.37, 0.685],
  "SoftwareVersions": "syngo_MR_E11",
  "SpacingBetweenSlices": 2,
  "StationName": "MRC35049",
  "TaskName": "s03e04b",
  "TotalReadoutTime": 0.0576811,
  "TxRefAmp": 236.309,
  "WipMemBlock": "24f929ce-5def-4aa3-bc9f-b659f6d85640||Sequence: R016 ve11c/master r/e634e98; Dec 19 2017 11:00:25 by eja",
  "dcmmeta_affine": [
    [-1.9977442026138306, 0.08931966125965118, -0.03224887326359749, 96.69943237304688],
    [0.09488000720739365, 1.8489707708358765, -0.7565082311630249, -73.2999038696289],
    [0.003971916623413563, 0.7571848630905151, 1.8511227369308472, -67.06394958496094],
    [0.0, 0.0, 0.0, 1.0]
],
  "dcmmeta_reorient_transform": [
    [0.0, -1.0, 0.0, 103.0],
    [1.0, 0.0, 0.0, 0.0],
    [0.0, 0.0, 1.0, 0.0],
    [0.0, 0.0, 0.0, 1.0]
],
  "dcmmeta_shape": [104, 104, 60, 473],
  "dcmmeta_slice_dim": 2,
  "dcmmeta_version": 0.6,
  "global": {
    "const": {
      "AcquisitionMatrix": [104, 0, 0, 104],
      "AngioFlag": "N",
      "BitsAllocated": 16,
      "BitsStored": 16,
      "BodyPartExamined": "BRAIN",
      "Columns": 832,
      "EchoNumbers": 1,
      "EchoTime": 37.0,
      "EchoTrainLength": 104,
      "FlipAngle": 52.0,
      "HighBit": 15,
      "ImageOrientationPatient": [0.9988721149258, -0.0474400041421, 0.00198595837116, 0.04465983180173, 0.92448541384559, -0.3785924180569],
      "ImagePositionPatient": [-865.59061351176, -755.63314874747, 285.09559049554],
      "ImageType": [
        "ORIGINAL",
        "PRIMARY",
        "M",
        "MB",
        "ND",
        "MOSAIC"
],
      "ImagedNucleus": "1H",
      "ImagingFrequency": 123.25899,
      "InPlanePhaseEncodingDirection": "COL",
      "MRAcquisitionType": "2D",
      "MagneticFieldStrength": 3.0,
      "Manufacturer": "SIEMENS",
      "ManufacturerModelName": "Prisma_fit",
      "Modality": "MR",
      "NumberOfAverages": 1.0,
      "NumberOfPhaseEncodingSteps": 104,
      "PercentPhaseFieldOfView": 100.0,
      "PercentSampling": 100.0,
      "PerformedProcedureStepStartTime": "160107.299000",
      "PhotometricInterpretation": "MONOCHROME2",
      "PixelBandwidth": 2290.0,
      "PixelRepresentation": 0,
      "PixelSpacing": [2.0, 2.0],
      "ProtocolName": "func_task-friends-s03e04b",
      "RepetitionTime": 1490.0,
      "Rows": 832,
      "SAR": 0.03602924172238,
      "SamplesPerPixel": 1,
      "ScanOptions": "FS",
      "ScanningSequence": "EP",
      "SequenceName": "epfid2d1_104",
      "SequenceVariant": [
        "SK",
        "SS"
],
      "SeriesDescription": "func_task-friends-s03e04b",
      "SeriesNumber": 25,
      "SeriesTime": "180244.595000",
      "SliceLocation": -35.905035406341,
      "SliceThickness": 2.0,
      "SmallestImagePixelValue": 0,
      "SoftwareVersions": "syngo MR E11",
      "SpacingBetweenSlices": 2.0000000128173,
      "SpecificCharacterSet": "ISO_IR 100",
      "StudyID": "1",
      "StudyTime": "160107.154000",
      "TransmitCoilName": "Body",
      "VariableFlipAngleFlag": "N",
      "WindowCenterWidthExplanation": "Algo1",
      "dBdt": 0.0},
    "slices": {}
  },
  "time": {
    "samples": {
      "AcquisitionNumber": [1, 2, 3, 4, 5, 6, 7, 8, 9, 10, 11, 12, 13, 14, 15, 16, 17, 18, 19, 20, 21, 22, 23, 24, 25, 26, 27, 28, 29, 30, 31, 32, 33, 34, 35, 36, 37, 38, 39, 40, 41, 42, 43, 44, 45, 46, 47, 48, 49, 50, 51, 52, 53, 54, 55, 56, 57, 58, 59, 60, 61, 62, 63, 64, 65, 66, 67, 68, 69, 70, 71, 72, 73, 74, 75, 76, 77, 78, 79, 80, 81, 82, 83, 84, 85, 86, 87, 88, 89, 90, 91, 92, 93, 94, 95, 96, 97, 98, 99, 100, 101, 102, 103, 104, 105, 106, 107, 108, 109, 110, 111, 112, 113, 114, 115, 116, 117, 118, 119, 120, 121, 122, 123, 124, 125, 126, 127, 128, 129, 130, 131, 132, 133, 134, 135, 136, 137, 138, 139, 140, 141, 142, 143, 144, 145, 146, 147, 148, 149, 150, 151, 152, 153, 154, 155, 156, 157, 158, 159, 160, 161, 162, 163, 164, 165, 166, 167, 168, 169, 170, 171, 172, 173, 174, 175, 176, 177, 178, 179, 180, 181, 182, 183, 184, 185, 186, 187, 188, 189, 190, 191, 192, 193, 194, 195, 196, 197, 198, 199, 200, 201, 202, 203, 204, 205, 206, 207, 208, 209, 210, 211, 212, 213, 214, 215, 216, 217, 218, 219, 220, 221, 222, 223, 224, 225, 226, 227, 228, 229, 230, 231, 232, 233, 234, 235, 236, 237, 238, 239, 240, 241, 242, 243, 244, 245, 246, 247, 248, 249, 250, 251, 252, 253, 254, 255, 256, 257, 258, 259, 260, 261, 262, 263, 264, 265, 266, 267, 268, 269, 270, 271, 272, 273, 274, 275, 276, 277, 278, 279, 280, 281, 282, 283, 284, 285, 286, 287, 288, 289, 290, 291, 292, 293, 294, 295, 296, 297, 298, 299, 300, 301, 302, 303, 304, 305, 306, 307, 308, 309, 310, 311, 312, 313, 314, 315, 316, 317, 318, 319, 320, 321, 322, 323, 324, 325, 326, 327, 328, 329, 330, 331, 332, 333, 334, 335, 336, 337, 338, 339, 340, 341, 342, 343, 344, 345, 346, 347, 348, 349, 350, 351, 352, 353, 354, 355, 356, 357, 358, 359, 360, 361, 362, 363, 364, 365, 366, 367, 368, 369, 370, 371, 372, 373, 374, 375, 376, 377, 378, 379, 380, 381, 382, 383, 384, 385, 386, 387, 388, 389, 390, 391, 392, 393, 394, 395, 396, 397, 398, 399, 400, 401, 402, 403, 404, 405, 406, 407, 408, 409, 410, 411, 412, 413, 414, 415, 416, 417, 418, 419, 420, 421, 422, 423, 424, 425, 426, 427, 428, 429, 430, 431, 432, 433, 434, 435, 436, 437, 438, 439, 440, 441, 442, 443, 444, 445, 446, 447, 448, 449, 450, 451, 452, 453, 454, 455, 456, 457, 458, 459, 460, 461, 462, 463, 464, 465, 466, 467, 468, 469, 470, 471, 472, 473],
      "AcquisitionTime": ["180125.140000", "180126.630000", "180128.120000", "180129.610000", "180131.100000", "180132.590000", "180134.080000", "180135.570000", "180137.060000", "180138.550000", "180140.040000", "180141.530000", "180143.020000", "180144.510000", "180146.000000", "180147.490000", "180148.980000", "180150.470000", "180151.960000", "180153.450000", "180154.940000", "180156.430000", "180157.920000", "180159.410000", "180200.900000", "180202.390000", "180203.880000", "180205.370000", "180206.860000", "180208.350000", "180209.840000", "180211.330000", "180212.820000", "180214.310000", "180215.800000", "180217.290000", "180218.780000", "180220.270000", "180221.760000", "180223.250000", "180224.740000", "180226.230000", "180227.720000", "180229.210000", "180230.700000", "180232.190000", "180233.680000", "180235.170000", "180236.660000", "180238.150000", "180239.640000", "180241.130000", "180242.620000", "180244.110000", "180245.600000", "180247.090000", "180248.580000", "180250.070000", "180251.560000", "180253.050000", "180254.540000", "180256.030000", "180257.520000", "180259.010000", "180300.500000", "180301.990000", "180303.480000", "180304.970000", "180306.460000", "180307.950000", "180309.440000", "180310.930000", "180312.420000", "180313.910000", "180315.400000", "180316.890000", "180318.380000", "180319.870000", "180321.360000", "180322.850000", "180324.340000", "180325.830000", "180327.320000", "180328.810000", "180330.300000", "180331.790000", "180333.280000", "180334.770000", "180336.260000", "180337.750000", "180339.240000", "180340.730000", "180342.220000", "180343.710000", "180345.200000", "180346.690000", "180348.180000", "180349.670000", "180351.160000", "180352.650000", "180354.140000", "180355.630000", "180357.120000", "180358.610000", "180400.100000", "180401.590000", "180403.080000", "180404.570000", "180406.060000", "180407.550000", "180409.040000", "180410.530000", "180412.020000", "180413.510000", "180415.000000", "180416.490000", "180417.980000", "180419.470000", "180420.960000", "180422.450000", "180423.940000", "180425.430000", "180426.920000", "180428.410000", "180429.900000", "180431.390000", "180432.880000", "180434.370000", "180435.860000", "180437.350000", "180438.840000", "180440.330000", "180441.820000", "180443.310000", "180444.800000", "180446.290000", "180447.780000", "180449.270000", "180450.760000", "180452.250000", "180453.740000", "180455.230000", "180456.720000", "180458.210000", "180459.700000", "180501.190000", "180502.680000", "180504.170000", "180505.660000", "180507.150000", "180508.640000", "180510.130000", "180511.620000", "180513.110000", "180514.600000", "180516.090000", "180517.580000", "180519.070000", "180520.560000", "180522.050000", "180523.540000", "180525.030000", "180526.520000", "180528.010000", "180529.500000", "180530.990000", "180532.480000", "180533.970000", "180535.460000", "180536.950000", "180538.440000", "180539.930000", "180541.420000", "180542.910000", "180544.400000", "180545.890000", "180547.380000", "180548.870000", "180550.360000", "180551.850000", "180553.340000", "180554.830000", "180556.320000", "180557.810000", "180559.300000", "180600.790000", "180602.280000", "180603.770000", "180605.260000", "180606.750000", "180608.240000", "180609.730000", "180611.220000", "180612.710000", "180614.200000", "180615.690000", "180617.180000", "180618.670000", "180620.160000", "180621.650000", "180623.140000", "180624.630000", "180626.120000", "180627.610000", "180629.100000", "180630.590000", "180632.080000", "180633.570000", "180635.060000", "180636.550000", "180638.040000", "180639.530000", "180641.020000", "180642.510000", "180644.000000", "180645.490000", "180646.980000", "180648.470000", "180649.960000", "180651.450000", "180652.940000", "180654.430000", "180655.920000", "180657.410000", "180658.900000", "180700.390000", "180701.880000", "180703.370000", "180704.860000", "180706.350000", "180707.840000", "180709.330000", "180710.820000", "180712.310000", "180713.800000", "180715.290000", "180716.780000", "180718.270000", "180719.760000", "180721.250000", "180722.740000", "180724.230000", "180725.720000", "180727.210000", "180728.700000", "180730.190000", "180731.680000", "180733.170000", "180734.660000", "180736.150000", "180737.640000", "180739.130000", "180740.620000", "180742.110000", "180743.600000", "180745.090000", "180746.580000", "180748.070000", "180749.560000", "180751.050000", "180752.540000", "180754.030000", "180755.520000", "180757.010000", "180758.500000", "180759.990000", "180801.480000", "180802.970000", "180804.460000", "180805.950000", "180807.440000", "180808.930000", "180810.420000", "180811.910000", "180813.400000", "180814.890000", "180816.380000", "180817.870000", "180819.360000", "180820.850000", "180822.340000", "180823.830000", "180825.320000", "180826.810000", "180828.300000", "180829.790000", "180831.280000", "180832.770000", "180834.260000", "180835.750000", "180837.240000", "180838.730000", "180840.220000", "180841.710000", "180843.200000", "180844.690000", "180846.180000", "180847.670000", "180849.160000", "180850.650000", "180852.140000", "180853.630000", "180855.120000", "180856.610000", "180858.100000", "180859.590000", "180901.080000", "180902.570000", "180904.060000", "180905.550000", "180907.040000", "180908.530000", "180910.020000", "180911.510000", "180913.000000", "180914.490000", "180915.980000", "180917.470000", "180918.960000", "180920.450000", "180921.940000", "180923.430000", "180924.920000", "180926.410000", "180927.900000", "180929.390000", "180930.880000", "180932.370000", "180933.860000", "180935.350000", "180936.840000", "180938.330000", "180939.820000", "180941.310000", "180942.800000", "180944.290000", "180945.780000", "180947.270000", "180948.760000", "180950.250000", "180951.740000", "180953.230000", "180954.720000", "180956.210000", "180957.700000", "180959.190000", "181000.680000", "181002.170000", "181003.660000", "181005.150000", "181006.640000", "181008.130000", "181009.620000", "181011.110000", "181012.600000", "181014.090000", "181015.580000", "181017.070000", "181018.560000", "181020.050000", "181021.540000", "181023.030000", "181024.520000", "181026.010000", "181027.500000", "181028.990000", "181030.480000", "181031.970000", "181033.460000", "181034.950000", "181036.440000", "181037.930000", "181039.420000", "181040.910000", "181042.400000", "181043.890000", "181045.380000", "181046.870000", "181048.360000", "181049.850000", "181051.340000", "181052.830000", "181054.320000", "181055.810000", "181057.300000", "181058.790000", "181100.280000", "181101.770000", "181103.260000", "181104.750000", "181106.240000", "181107.730000", "181109.220000", "181110.710000", "181112.200000", "181113.690000", "181115.180000", "181116.670000", "181118.160000", "181119.650000", "181121.140000", "181122.630000", "181124.120000", "181125.610000", "181127.100000", "181128.590000", "181130.080000", "181131.570000", "181133.060000", "181134.550000", "181136.040000", "181137.530000", "181139.020000", "181140.510000", "181142.000000", "181143.490000", "181144.980000", "181146.470000", "181147.960000", "181149.450000", "181150.940000", "181152.430000", "181153.920000", "181155.410000", "181156.900000", "181158.390000", "181159.880000", "181201.370000", "181202.860000", "181204.350000", "181205.840000", "181207.330000", "181208.820000", "181210.310000", "181211.800000", "181213.290000", "181214.780000", "181216.270000", "181217.760000", "181219.250000", "181220.740000", "181222.230000", "181223.720000", "181225.210000", "181226.700000", "181228.190000", "181229.680000", "181231.170000", "181232.660000", "181234.150000", "181235.640000", "181237.130000", "181238.620000", "181240.110000", "181241.600000", "181243.090000", "181244.580000", "181246.070000", "181247.560000", "181249.050000", "181250.540000", "181252.030000", "181253.520000", "181255.010000", "181256.500000", "181257.990000", "181259.480000", "181300.970000", "181302.460000", "181303.950000", "181305.440000", "181306.930000", "181308.420000"],
      "ContentTime": ["180244.598000", "180244.602000", "180244.605000", "180244.608000", "180244.611000", "180244.614000", "180244.617000", "180244.620000", "180244.623000", "180244.626000", "180244.629000", "180244.632000", "180244.635000", "180244.638000", "180244.640000", "180244.643000", "180244.646000", "180244.649000", "180244.652000", "180244.655000", "180244.658000", "180244.661000", "180244.664000", "180244.667000", "180244.670000", "180304.566000", "180304.569000", "180304.572000", "180304.575000", "180304.578000", "180304.581000", "180304.584000", "180304.587000", "180304.590000", "180304.593000", "180304.596000", "180304.599000", "180304.602000", "180304.604000", "180304.607000", "180304.610000", "180304.613000", "180304.616000", "180304.619000", "180304.622000", "180324.566000", "180324.569000", "180324.572000", "180324.575000", "180324.578000", "180324.581000", "180324.584000", "180324.587000", "180324.590000", "180324.593000", "180324.596000", "180324.599000", "180324.602000", "180324.605000", "180324.608000", "180324.611000", "180324.613000", "180324.616000", "180324.619000", "180324.622000", "180344.566000", "180344.569000", "180344.572000", "180344.575000", "180344.578000", "180344.581000", "180344.584000", "180344.587000", "180344.590000", "180344.593000", "180344.595000", "180344.598000", "180344.601000", "180344.604000", "180344.607000", "180344.610000", "180344.613000", "180344.616000", "180344.619000", "180344.622000", "180404.566000", "180404.569000", "180404.572000", "180404.575000", "180404.578000", "180404.581000", "180404.584000", "180404.593000", "180404.596000", "180404.599000", "180404.601000", "180404.604000", "180404.607000", "180404.610000", "180404.613000", "180404.616000", "180404.619000", "180404.622000", "180404.625000", "180404.628000", "180404.631000", "180444.567000", "180444.570000", "180444.573000", "180444.576000", "180444.579000", "180444.582000", "180444.585000", "180444.588000", "180444.591000", "180444.594000", "180444.597000", "180444.600000", "180444.603000", "180444.605000", "180444.608000", "180444.611000", "180444.614000", "180444.617000", "180444.620000", "180444.623000", "180444.626000", "180444.629000", "180444.632000", "180444.635000", "180444.638000", "180444.641000", "180444.644000", "180524.566000", "180524.569000", "180524.572000", "180524.575000", "180524.578000", "180524.581000", "180524.584000", "180524.587000", "180524.590000", "180524.593000", "180524.596000", "180524.599000", "180524.602000", "180524.605000", "180524.608000", "180524.611000", "180524.614000", "180524.617000", "180524.620000", "180524.622000", "180524.625000", "180524.628000", "180524.631000", "180524.634000", "180524.637000", "180524.640000", "180524.643000", "180604.566000", "180604.569000", "180604.572000", "180604.575000", "180604.578000", "180604.581000", "180604.584000", "180604.587000", "180604.590000", "180604.593000", "180604.596000", "180604.599000", "180604.602000", "180604.605000", "180604.608000", "180604.611000", "180604.614000", "180604.617000", "180604.620000", "180604.622000", "180604.625000", "180604.628000", "180604.631000", "180604.634000", "180604.637000", "180604.640000", "180604.643000", "180644.566000", "180644.569000", "180644.572000", "180644.575000", "180644.578000", "180644.581000", "180644.584000", "180644.587000", "180644.590000", "180644.593000", "180644.596000", "180644.598000", "180644.601000", "180644.604000", "180644.607000", "180644.610000", "180644.613000", "180644.616000", "180644.619000", "180644.622000", "180644.625000", "180644.628000", "180644.631000", "180644.634000", "180644.637000", "180644.640000", "180644.643000", "180704.566000", "180704.569000", "180704.572000", "180704.575000", "180704.578000", "180704.581000", "180704.584000", "180704.587000", "180704.590000", "180704.593000", "180704.596000", "180704.599000", "180704.602000", "180744.566000", "180744.569000", "180744.572000", "180744.575000", "180744.578000", "180744.581000", "180744.584000", "180744.587000", "180744.590000", "180744.593000", "180744.596000", "180744.598000", "180744.601000", "180744.605000", "180744.608000", "180744.610000", "180744.613000", "180744.616000", "180744.619000", "180744.622000", "180744.625000", "180744.628000", "180744.631000", "180744.634000", "180744.637000", "180744.640000", "180744.643000", "180824.566000", "180824.569000", "180824.572000", "180824.575000", "180824.578000", "180824.581000", "180824.584000", "180824.587000", "180824.590000", "180824.593000", "180824.596000", "180824.599000", "180824.602000", "180824.605000", "180824.608000", "180824.611000", "180824.614000", "180824.617000", "180824.619000", "180824.622000", "180824.625000", "180824.628000", "180824.631000", "180824.634000", "180824.637000", "180824.640000", "180824.643000", "180904.577000", "180904.580000", "180904.583000", "180904.586000", "180904.589000", "180904.592000", "180904.595000", "180904.598000", "180904.601000", "180904.604000", "180904.607000", "180904.610000", "180904.613000", "180904.616000", "180904.619000", "180904.622000", "180904.625000", "180904.628000", "180904.630000", "180904.633000", "180904.636000", "180904.639000", "180904.642000", "180904.645000", "180904.648000", "180904.651000", "180904.654000", "180944.566000", "180944.569000", "180944.572000", "180944.575000", "180944.578000", "180944.581000", "180944.585000", "180944.588000", "180944.591000", "180944.594000", "180944.597000", "180944.601000", "180944.604000", "180944.607000", "180944.610000", "180944.613000", "180944.616000", "180944.619000", "180944.622000", "180944.625000", "180944.628000", "180944.631000", "180944.634000", "180944.636000", "180944.639000", "180944.642000", "181024.566000", "181024.569000", "181024.572000", "181024.575000", "181024.578000", "181024.581000", "181024.584000", "181024.587000", "181024.590000", "181024.593000", "181024.596000", "181024.599000", "181024.602000", "181024.605000", "181024.608000", "181024.611000", "181024.613000", "181024.616000", "181024.619000", "181024.622000", "181024.625000", "181024.628000", "181024.631000", "181024.634000", "181024.637000", "181024.640000", "181024.643000", "181104.566000", "181104.569000", "181104.572000", "181104.575000", "181104.578000", "181104.581000", "181104.584000", "181104.587000", "181104.590000", "181104.593000", "181104.596000", "181104.599000", "181104.602000", "181104.605000", "181104.608000", "181104.611000", "181104.614000", "181104.617000", "181104.620000", "181104.623000", "181104.626000", "181104.628000", "181104.631000", "181104.634000", "181104.637000", "181104.640000", "181104.643000", "181144.566000", "181144.569000", "181144.572000", "181144.575000", "181144.578000", "181144.581000", "181144.584000", "181144.587000", "181144.590000", "181144.593000", "181144.596000", "181144.599000", "181144.602000", "181144.605000", "181144.608000", "181144.611000", "181144.614000", "181144.617000", "181144.620000", "181144.623000", "181144.626000", "181144.629000", "181144.631000", "181144.634000", "181144.637000", "181144.640000", "181144.643000", "181224.566000", "181224.569000", "181224.572000", "181224.575000", "181224.578000", "181224.581000", "181224.584000", "181224.587000", "181224.590000", "181224.593000", "181224.596000", "181224.599000", "181224.602000", "181224.605000", "181224.608000", "181224.611000", "181224.614000", "181224.617000", "181224.620000", "181224.623000", "181224.626000", "181224.629000", "181224.632000", "181224.635000", "181224.638000", "181224.641000", "181224.643000", "181304.566000", "181304.569000", "181304.572000", "181304.575000", "181304.578000", "181304.581000", "181304.584000", "181304.587000", "181304.590000", "181304.593000", "181304.596000", "181304.599000", "181304.602000", "181304.605000", "181304.608000", "181304.611000", "181304.614000", "181304.617000", "181304.620000", "181304.623000", "181304.626000", "181304.629000", "181304.631000", "181304.634000", "181304.637000", "181304.640000", "181304.643000", "181310.269000", "181310.272000", "181310.275000", "181310.278000"],
