{
  "AcquisitionMatrixPE": 104,
  "AcquisitionNumber": 1,
  "AcquisitionTime": "17:32:3.847500",
  "BandwidthPerPixelPhaseEncode": 17.17,
  "BaseResolution": 104,
  "BodyPartExamined": "BRAIN",
  "CoilCombinationMethod": "Sum of Squares",
  "ConsistencyInfo": "N4_VE11C_LATEST_20160120",
  "ConversionSoftware": "dcm2niix",
  "ConversionSoftwareVersion": "v1.0.20220505",
  "DerivedVendorReportedEchoSpacing": 0.000560011,
  "DeviceSerialNumber": "167006",
  "DwellTime": 2.1e-06,
  "EchoTime": 0.037,
  "EchoTrainLength": 104,
  "EffectiveEchoSpacing": 0.000560011,
  "FlipAngle": 52,
  "HeudiconvVersion": "0.5.3.post811+g6206e14",
  "ImageComments": "Unaliased MB4/PE3/LB",
  "ImageOrientationPatientDICOM": [0.998734, 0.0502957, -0.00112968, -0.0491957, 0.971703, -0.231028],
  "ImageOrientationText": "Tra>Cor(-13.3)>Sag(0.6)",
  "ImageType": [
    "ORIGINAL",
    "PRIMARY",
    "M",
    "MB",
    "ND",
    "MOSAIC"
],
  "ImagingFrequency": 123.259,
  "InPlanePhaseEncodingDirectionDICOM": "COL",
  "InstitutionAddress": "Chemin Queen-Mary 4565,Montreal,District,CA,H3W 1W5",
  "InstitutionName": "IUGM",
  "InstitutionalDepartmentName": "Department",
  "MRAcquisitionType": "2D",
  "MagneticFieldStrength": 3,
  "Manufacturer": "Siemens",
  "ManufacturersModelName": "Prisma_fit",
  "MatrixCoilMode": "SENSE",
  "Modality": "MR",
  "MultibandAccelerationFactor": 4,
  "PartialFourier": 1,
  "PatientPosition": "HFS",
  "PercentPhaseFOV": 100,
  "PercentSampling": 100,
  "PhaseEncodingDirection": "j",
  "PhaseEncodingSteps": 104,
  "PhaseResolution": 1,
  "PixelBandwidth": 2290,
  "ProcedureStepDescription": "video^friends",
  "ProtocolName": "func_task-friends-s05e02b",
  "PulseSequenceDetails": "%CustomerSeq%\\cmrr_mbep2d_bold",
  "ReceiveCoilActiveElements": "HC1-7;NC1,2",
  "ReceiveCoilName": "HeadNeck_64",
  "ReconMatrixPE": 104,
  "RepetitionTime": 1.49,
  "SAR": 0.0297833,
  "ScanOptions": "FS",
  "ScanningSequence": "EP",
  "SequenceName": "epfid2d1_104",
  "SequenceVariant": "SK\\SS",
  "SeriesDescription": "func_task-friends-s05e02b",
  "SeriesNumber": 15,
  "ShimSetting": [636, -7225, -8739, 710, 35, -20, 133, -6],
  "SliceThickness": 2,
  "SliceTiming": [0, 0.785, 0.0975, 0.8825, 0.1975, 0.98, 0.295, 1.0775, 0.3925, 1.1775, 0.49, 1.275, 0.5875, 1.3725, 0.6875, 0, 0.785, 0.0975, 0.8825, 0.1975, 0.98, 0.295, 1.0775, 0.3925, 1.1775, 0.49, 1.275, 0.5875, 1.3725, 0.6875, 0, 0.785, 0.0975, 0.8825, 0.1975, 0.98, 0.295, 1.0775, 0.3925, 1.1775, 0.49, 1.275, 0.5875, 1.3725, 0.6875, 0, 0.785, 0.0975, 0.8825, 0.1975, 0.98, 0.295, 1.0775, 0.3925, 1.1775, 0.49, 1.275, 0.5875, 1.3725, 0.6875],
  "SoftwareVersions": "syngo MR E11",
  "SpacingBetweenSlices": 2,
  "StationName": "MRC35049",
  "TaskName": "s05e02b",
  "TotalReadoutTime": 0.0576811,
  "TxRefAmp": 206.882,
  "WipMemBlock": "f3efd699-b64d-4703-afa7-37b5629bcd82||Sequence: R016 ve11c/master r/e634e98; Dec 19 2017 11:00:25 by eja",
  "dcmmeta_affine": [
    [-1.9974675178527832, -0.09839148074388504, 0.021044030785560608, 109.83780670166016],
    [-0.10059139877557755, 1.943405032157898, -0.4615825116634369, -79.56859588623047],
    [-0.002259355504065752, 0.4620564579963684, 1.9458928108215332, -43.956783294677734],
    [0.0, 0.0, 0.0, 1.0]
],
  "dcmmeta_reorient_transform": [
    [0.0, -1.0, 0.0, 103.0],
    [1.0, 0.0, 0.0, 0.0],
    [0.0, 0.0, 1.0, 0.0],
    [0.0, 0.0, 0.0, 1.0]
],
  "dcmmeta_shape": [104, 104, 60, 531],
  "dcmmeta_slice_dim": 2,
  "dcmmeta_version": 0.6,
  "global": {
    "const": {
      "AcquisitionMatrix": [104, 0, 0, 104],
      "AngioFlag": "N",
      "BitsAllocated": 16,
      "BitsStored": 16,
      "BodyPartExamined": "BRAIN",
      "Columns": 832,
      "EchoNumbers": 1,
      "EchoTime": 37.0,
      "EchoTrainLength": 104,
      "FlipAngle": 52.0,
      "HighBit": 15,
      "ImageOrientationPatient": [0.99873373150398, 0.0502956994612, -0.0011296777625, -0.0491957391125, 0.97170249491476, -0.2310282247467],
      "ImagePositionPatient": [-790.96714429857, -864.61680111893, 172.64598501033],
      "ImageType": [
        "ORIGINAL",
        "PRIMARY",
        "M",
        "MB",
        "ND",
        "MOSAIC"
],
      "ImagedNucleus": "1H",
      "ImagingFrequency": 123.258983,
      "InPlanePhaseEncodingDirection": "COL",
      "MRAcquisitionType": "2D",
      "MagneticFieldStrength": 3.0,
      "Manufacturer": "SIEMENS",
      "ManufacturerModelName": "Prisma_fit",
      "Modality": "MR",
      "NumberOfAverages": 1.0,
      "NumberOfPhaseEncodingSteps": 104,
      "PercentPhaseFieldOfView": 100.0,
      "PercentSampling": 100.0,
      "PerformedProcedureStepStartTime": "163758.111000",
      "PhotometricInterpretation": "MONOCHROME2",
      "PixelBandwidth": 2290.0,
      "PixelRepresentation": 0,
      "PixelSpacing": [2.0, 2.0],
      "ProtocolName": "func_task-friends-s05e02b",
      "RepetitionTime": 1490.0,
      "Rows": 832,
      "SAR": 0.02978328587279,
      "SamplesPerPixel": 1,
      "ScanOptions": "FS",
      "ScanningSequence": "EP",
      "SequenceName": "epfid2d1_104",
      "SequenceVariant": [
        "SK",
        "SS"
],
      "SeriesDescription": "func_task-friends-s05e02b",
      "SeriesNumber": 15,
      "SeriesTime": "173332.586000",
      "SliceLocation": -23.248140901468,
      "SliceThickness": 2.0,
      "SmallestImagePixelValue": 0,
      "SoftwareVersions": "syngo MR E11",
      "SpacingBetweenSlices": 2.0000000309716,
      "SpecificCharacterSet": "ISO_IR 100",
      "StudyID": "1",
      "StudyTime": "163758.061000",
      "TransmitCoilName": "Body",
      "VariableFlipAngleFlag": "N",
      "WindowCenterWidthExplanation": "Algo1",
      "dBdt": 0.0},
    "slices": {}
  },
  "time": {
    "samples": {
      "AcquisitionNumber": [1, 2, 3, 4, 5, 6, 7, 8, 9, 10, 11, 12, 13, 14, 15, 16, 17, 18, 19, 20, 21, 22, 23, 24, 25, 26, 27, 28, 29, 30, 31, 32, 33, 34, 35, 36, 37, 38, 39, 40, 41, 42, 43, 44, 45, 46, 47, 48, 49, 50, 51, 52, 53, 54, 55, 56, 57, 58, 59, 60, 61, 62, 63, 64, 65, 66, 67, 68, 69, 70, 71, 72, 73, 74, 75, 76, 77, 78, 79, 80, 81, 82, 83, 84, 85, 86, 87, 88, 89, 90, 91, 92, 93, 94, 95, 96, 97, 98, 99, 100, 101, 102, 103, 104, 105, 106, 107, 108, 109, 110, 111, 112, 113, 114, 115, 116, 117, 118, 119, 120, 121, 122, 123, 124, 125, 126, 127, 128, 129, 130, 131, 132, 133, 134, 135, 136, 137, 138, 139, 140, 141, 142, 143, 144, 145, 146, 147, 148, 149, 150, 151, 152, 153, 154, 155, 156, 157, 158, 159, 160, 161, 162, 163, 164, 165, 166, 167, 168, 169, 170, 171, 172, 173, 174, 175, 176, 177, 178, 179, 180, 181, 182, 183, 184, 185, 186, 187, 188, 189, 190, 191, 192, 193, 194, 195, 196, 197, 198, 199, 200, 201, 202, 203, 204, 205, 206, 207, 208, 209, 210, 211, 212, 213, 214, 215, 216, 217, 218, 219, 220, 221, 222, 223, 224, 225, 226, 227, 228, 229, 230, 231, 232, 233, 234, 235, 236, 237, 238, 239, 240, 241, 242, 243, 244, 245, 246, 247, 248, 249, 250, 251, 252, 253, 254, 255, 256, 257, 258, 259, 260, 261, 262, 263, 264, 265, 266, 267, 268, 269, 270, 271, 272, 273, 274, 275, 276, 277, 278, 279, 280, 281, 282, 283, 284, 285, 286, 287, 288, 289, 290, 291, 292, 293, 294, 295, 296, 297, 298, 299, 300, 301, 302, 303, 304, 305, 306, 307, 308, 309, 310, 311, 312, 313, 314, 315, 316, 317, 318, 319, 320, 321, 322, 323, 324, 325, 326, 327, 328, 329, 330, 331, 332, 333, 334, 335, 336, 337, 338, 339, 340, 341, 342, 343, 344, 345, 346, 347, 348, 349, 350, 351, 352, 353, 354, 355, 356, 357, 358, 359, 360, 361, 362, 363, 364, 365, 366, 367, 368, 369, 370, 371, 372, 373, 374, 375, 376, 377, 378, 379, 380, 381, 382, 383, 384, 385, 386, 387, 388, 389, 390, 391, 392, 393, 394, 395, 396, 397, 398, 399, 400, 401, 402, 403, 404, 405, 406, 407, 408, 409, 410, 411, 412, 413, 414, 415, 416, 417, 418, 419, 420, 421, 422, 423, 424, 425, 426, 427, 428, 429, 430, 431, 432, 433, 434, 435, 436, 437, 438, 439, 440, 441, 442, 443, 444, 445, 446, 447, 448, 449, 450, 451, 452, 453, 454, 455, 456, 457, 458, 459, 460, 461, 462, 463, 464, 465, 466, 467, 468, 469, 470, 471, 472, 473, 474, 475, 476, 477, 478, 479, 480, 481, 482, 483, 484, 485, 486, 487, 488, 489, 490, 491, 492, 493, 494, 495, 496, 497, 498, 499, 500, 501, 502, 503, 504, 505, 506, 507, 508, 509, 510, 511, 512, 513, 514, 515, 516, 517, 518, 519, 520, 521, 522, 523, 524, 525, 526, 527, 528, 529, 530, 531],
      "AcquisitionTime": ["173203.847500", "173205.337500", "173206.827500", "173208.317500", "173209.807500", "173211.297500", "173212.787500", "173214.277500", "173215.767500", "173217.257500", "173218.747500", "173220.237500", "173221.727500", "173223.217500", "173224.707500", "173226.197500", "173227.687500", "173229.177500", "173230.667500", "173232.157500", "173233.647500", "173235.137500", "173236.627500", "173238.117500", "173239.607500", "173241.097500", "173242.587500", "173244.077500", "173245.567500", "173247.057500", "173248.547500", "173250.037500", "173251.527500", "173253.017500", "173254.507500", "173255.997500", "173257.487500", "173258.977500", "173300.467500", "173301.957500", "173303.447500", "173304.937500", "173306.427500", "173307.917500", "173309.407500", "173310.897500", "173312.387500", "173313.877500", "173315.367500", "173316.857500", "173318.347500", "173319.837500", "173321.327500", "173322.817500", "173324.307500", "173325.797500", "173327.287500", "173328.777500", "173330.267500", "173331.757500", "173333.247500", "173334.737500", "173336.227500", "173337.717500", "173339.207500", "173340.697500", "173342.187500", "173343.677500", "173345.167500", "173346.657500", "173348.147500", "173349.637500", "173351.127500", "173352.617500", "173354.107500", "173355.597500", "173357.087500", "173358.577500", "173400.067500", "173401.557500", "173403.047500", "173404.537500", "173406.027500", "173407.517500", "173409.007500", "173410.497500", "173411.987500", "173413.477500", "173414.967500", "173416.457500", "173417.947500", "173419.437500", "173420.927500", "173422.417500", "173423.907500", "173425.397500", "173426.887500", "173428.377500", "173429.867500", "173431.357500", "173432.847500", "173434.337500", "173435.827500", "173437.317500", "173438.807500", "173440.297500", "173441.787500", "173443.277500", "173444.767500", "173446.257500", "173447.747500", "173449.237500", "173450.727500", "173452.217500", "173453.707500", "173455.197500", "173456.687500", "173458.177500", "173459.667500", "173501.157500", "173502.647500", "173504.137500", "173505.627500", "173507.117500", "173508.607500", "173510.097500", "173511.587500", "173513.077500", "173514.567500", "173516.057500", "173517.547500", "173519.037500", "173520.527500", "173522.017500", "173523.507500", "173524.997500", "173526.487500", "173527.977500", "173529.467500", "173530.957500", "173532.447500", "173533.937500", "173535.427500", "173536.917500", "173538.407500", "173539.897500", "173541.387500", "173542.877500", "173544.367500", "173545.857500", "173547.347500", "173548.837500", "173550.327500", "173551.817500", "173553.307500", "173554.797500", "173556.287500", "173557.777500", "173559.267500", "173600.757500", "173602.247500", "173603.737500", "173605.227500", "173606.717500", "173608.207500", "173609.697500", "173611.187500", "173612.677500", "173614.167500", "173615.657500", "173617.147500", "173618.637500", "173620.127500", "173621.617500", "173623.107500", "173624.597500", "173626.087500", "173627.577500", "173629.067500", "173630.557500", "173632.047500", "173633.537500", "173635.027500", "173636.517500", "173638.007500", "173639.497500", "173640.987500", "173642.477500", "173643.967500", "173645.457500", "173646.947500", "173648.437500", "173649.927500", "173651.417500", "173652.907500", "173654.397500", "173655.887500", "173657.377500", "173658.867500", "173700.357500", "173701.847500", "173703.337500", "173704.827500", "173706.317500", "173707.807500", "173709.297500", "173710.787500", "173712.277500", "173713.767500", "173715.257500", "173716.747500", "173718.237500", "173719.727500", "173721.217500", "173722.707500", "173724.197500", "173725.687500", "173727.177500", "173728.667500", "173730.157500", "173731.647500", "173733.137500", "173734.627500", "173736.117500", "173737.607500", "173739.097500", "173740.587500", "173742.077500", "173743.567500", "173745.057500", "173746.547500", "173748.037500", "173749.527500", "173751.017500", "173752.507500", "173753.997500", "173755.487500", "173756.977500", "173758.467500", "173759.957500", "173801.447500", "173802.937500", "173804.427500", "173805.917500", "173807.407500", "173808.897500", "173810.387500", "173811.877500", "173813.367500", "173814.857500", "173816.347500", "173817.837500", "173819.327500", "173820.817500", "173822.307500", "173823.797500", "173825.287500", "173826.777500", "173828.267500", "173829.757500", "173831.247500", "173832.737500", "173834.227500", "173835.717500", "173837.207500", "173838.697500", "173840.187500", "173841.677500", "173843.167500", "173844.657500", "173846.147500", "173847.637500", "173849.127500", "173850.617500", "173852.107500", "173853.597500", "173855.087500", "173856.577500", "173858.067500", "173859.557500", "173901.047500", "173902.537500", "173904.027500", "173905.517500", "173907.007500", "173908.497500", "173909.987500", "173911.477500", "173912.967500", "173914.457500", "173915.947500", "173917.437500", "173918.927500", "173920.417500", "173921.907500", "173923.397500", "173924.887500", "173926.377500", "173927.867500", "173929.357500", "173930.847500", "173932.337500", "173933.827500", "173935.317500", "173936.807500", "173938.297500", "173939.787500", "173941.277500", "173942.767500", "173944.257500", "173945.747500", "173947.237500", "173948.727500", "173950.217500", "173951.707500", "173953.197500", "173954.687500", "173956.177500", "173957.667500", "173959.157500", "174000.647500", "174002.137500", "174003.627500", "174005.117500", "174006.607500", "174008.097500", "174009.587500", "174011.077500", "174012.567500", "174014.057500", "174015.547500", "174017.037500", "174018.527500", "174020.017500", "174021.507500", "174022.997500", "174024.487500", "174025.977500", "174027.467500", "174028.957500", "174030.447500", "174031.937500", "174033.427500", "174034.917500", "174036.407500", "174037.897500", "174039.387500", "174040.877500", "174042.367500", "174043.857500", "174045.347500", "174046.837500", "174048.327500", "174049.817500", "174051.307500", "174052.797500", "174054.287500", "174055.777500", "174057.267500", "174058.757500", "174100.247500", "174101.737500", "174103.227500", "174104.717500", "174106.207500", "174107.697500", "174109.187500", "174110.677500", "174112.167500", "174113.657500", "174115.147500", "174116.637500", "174118.127500", "174119.617500", "174121.107500", "174122.597500", "174124.087500", "174125.577500", "174127.067500", "174128.557500", "174130.047500", "174131.537500", "174133.027500", "174134.517500", "174136.007500", "174137.497500", "174138.987500", "174140.477500", "174141.967500", "174143.457500", "174144.947500", "174146.437500", "174147.927500", "174149.417500", "174150.907500", "174152.397500", "174153.887500", "174155.377500", "174156.867500", "174158.357500", "174159.847500", "174201.337500", "174202.827500", "174204.317500", "174205.807500", "174207.297500", "174208.787500", "174210.277500", "174211.767500", "174213.257500", "174214.747500", "174216.237500", "174217.727500", "174219.217500", "174220.707500", "174222.197500", "174223.687500", "174225.177500", "174226.667500", "174228.157500", "174229.647500", "174231.137500", "174232.627500", "174234.117500", "174235.607500", "174237.097500", "174238.587500", "174240.077500", "174241.567500", "174243.057500", "174244.547500", "174246.037500", "174247.527500", "174249.017500", "174250.507500", "174251.997500", "174253.487500", "174254.977500", "174256.467500", "174257.957500", "174259.447500", "174300.937500", "174302.427500", "174303.917500", "174305.407500", "174306.897500", "174308.387500", "174309.877500", "174311.367500", "174312.857500", "174314.347500", "174315.837500", "174317.327500", "174318.817500", "174320.307500", "174321.797500", "174323.287500", "174324.777500", "174326.267500", "174327.757500", "174329.247500", "174330.737500", "174332.227500", "174333.717500", "174335.207500", "174336.697500", "174338.187500", "174339.677500", "174341.167500", "174342.657500", "174344.147500", "174345.637500", "174347.127500", "174348.617500", "174350.107500", "174351.597500", "174353.087500", "174354.577500", "174356.067500", "174357.557500", "174359.047500", "174400.537500", "174402.027500", "174403.517500", "174405.007500", "174406.497500", "174407.987500", "174409.477500", "174410.967500", "174412.457500", "174413.947500", "174415.437500", "174416.927500", "174418.417500", "174419.907500", "174421.397500", "174422.887500", "174424.377500", "174425.867500", "174427.357500", "174428.847500", "174430.337500", "174431.827500", "174433.317500", "174434.807500", "174436.297500", "174437.787500", "174439.277500", "174440.767500", "174442.257500", "174443.747500", "174445.237500", "174446.727500", "174448.217500", "174449.707500", "174451.197500", "174452.687500", "174454.177500", "174455.667500", "174457.157500", "174458.647500", "174500.137500", "174501.627500", "174503.117500", "174504.607500", "174506.097500", "174507.587500", "174509.077500", "174510.567500", "174512.057500", "174513.547500"],
      "ContentTime": ["173332.589000", "173332.592000", "173332.595000", "173332.598000", "173332.601000", "173332.604000", "173332.606000", "173332.615000", "173332.618000", "173332.620000", "173332.623000", "173332.626000", "173332.629000", "173332.632000", "173332.635000", "173332.637000", "173332.640000", "173332.643000", "173332.646000", "173332.649000", "173332.651000", "173332.654000", "173332.657000", "173332.660000", "173332.662000", "173332.665000", "173332.668000", "173332.671000", "173332.674000", "173332.677000", "173332.679000", "173332.682000", "173332.685000", "173332.688000", "173332.691000", "173352.555000", "173352.558000", "173352.561000", "173352.563000", "173352.566000", "173352.569000", "173352.572000", "173352.575000", "173352.586000", "173352.588000", "173352.591000", "173352.594000", "173352.597000", "173352.599000", "173352.602000", "173352.605000", "173352.608000", "173352.611000", "173352.614000", "173352.616000", "173412.555000", "173412.558000", "173412.561000", "173412.563000", "173412.566000", "173412.569000", "173412.572000", "173412.575000", "173412.577000", "173412.580000", "173412.583000", "173412.586000", "173412.589000", "173412.591000", "173412.594000", "173412.597000", "173412.600000", "173412.602000", "173412.605000", "173412.608000", "173432.555000", "173432.558000", "173432.561000", "173432.564000", "173432.566000", "173432.569000", "173432.572000", "173432.575000", "173432.578000", "173432.581000", "173432.583000", "173432.586000", "173432.589000", "173432.592000", "173432.594000", "173432.597000", "173432.600000", "173432.603000", "173432.606000", "173432.608000", "173512.555000", "173512.558000", "173512.561000", "173512.563000", "173512.566000", "173512.569000", "173512.572000", "173512.575000", "173512.577000", "173512.580000", "173512.583000", "173512.586000", "173512.589000", "173512.591000", "173512.594000", "173512.597000", "173512.600000", "173512.603000", "173512.605000", "173512.608000", "173512.611000", "173512.614000", "173512.617000", "173512.619000", "173512.622000", "173512.625000", "173512.628000", "173512.631000", "173512.634000", "173512.646000", "173512.649000", "173552.555000", "173552.558000", "173552.561000", "173552.563000", "173552.566000", "173552.569000", "173552.572000", "173552.575000", "173552.578000", "173552.580000", "173552.583000", "173552.586000", "173552.589000", "173552.592000", "173552.594000", "173552.597000", "173552.600000", "173552.603000", "173552.606000", "173552.609000", "173552.612000", "173552.614000", "173552.617000", "173552.620000", "173552.623000", "173552.626000", "173552.628000", "173632.555000", "173632.558000", "173632.561000", "173632.563000", "173632.570000", "173632.573000", "173632.576000", "173632.593000", "173632.596000", "173632.599000", "173632.602000", "173632.604000", "173632.607000", "173632.610000", "173632.613000", "173632.616000", "173632.618000", "173632.621000", "173632.624000", "173632.627000", "173632.630000", "173632.633000", "173632.635000", "173632.638000", "173632.641000", "173632.644000", "173632.647000", "173712.555000", "173712.558000", "173712.561000", "173712.563000", "173712.566000", "173712.569000", "173712.572000", "173712.575000", "173712.578000", "173712.581000", "173712.583000", "173712.586000", "173712.589000", "173712.592000", "173712.595000", "173712.598000", "173712.600000", "173712.603000", "173712.606000", "173712.609000", "173712.612000", "173712.614000", "173712.617000", "173712.620000", "173712.623000", "173712.626000", "173712.629000", "173752.555000", "173752.560000", "173752.563000", "173752.566000", "173752.569000", "173752.572000", "173752.575000", "173752.578000", "173752.580000", "173752.583000", "173752.586000", "173752.589000", "173752.592000", "173752.594000", "173752.597000", "173752.601000", "173752.604000", "173752.607000", "173752.610000", "173752.612000", "173752.615000", "173752.618000", "173752.621000", "173752.624000", "173752.627000", "173752.629000", "173832.555000", "173832.558000", "173832.561000", "173832.564000", "173832.566000", "173832.569000", "173832.572000", "173832.575000", "173832.578000", "173832.581000", "173832.593000", "173832.596000", "173832.599000", "173832.602000", "173832.605000", "173832.607000", "173832.610000", "173832.613000", "173832.616000", "173832.619000", "173832.622000", "173832.625000", "173832.627000", "173832.630000", "173832.633000", "173832.636000", "173832.639000", "173912.555000", "173912.558000", "173912.561000", "173912.564000", "173912.566000", "173912.569000", "173912.572000", "173912.575000", "173912.578000", "173912.581000", "173912.584000", "173912.586000", "173912.589000", "173912.592000", "173912.595000", "173912.598000", "173912.600000", "173912.603000", "173912.606000", "173912.609000", "173912.612000", "173912.615000", "173912.618000", "173912.621000", "173912.624000", "173912.626000", "173912.629000", "173952.554000", "173952.557000", "173952.560000", "173952.563000", "173952.565000", "173952.568000", "173952.571000", "173952.574000", "173952.577000", "173952.580000", "173952.583000", "173952.586000", "173952.589000", "173952.591000", "173952.594000", "173952.597000", "173952.600000", "173952.603000", "173952.605000", "173952.608000", "173952.611000", "173952.614000", "173952.617000", "173952.620000", "173952.622000", "173952.625000", "173952.628000", "174032.555000", "174032.558000", "174032.561000", "174032.564000", "174032.566000", "174032.569000", "174032.572000", "174032.575000", "174032.578000", "174032.581000", "174032.584000", "174032.586000", "174032.589000", "174032.592000", "174032.595000", "174032.598000", "174032.600000", "174032.603000", "174032.606000", "174032.609000", "174032.612000", "174032.615000", "174032.617000", "174032.620000", "174032.623000", "174032.626000", "174032.629000", "174112.555000", "174112.558000", "174112.561000", "174112.563000", "174112.566000", "174112.569000", "174112.572000", "174112.575000", "174112.578000", "174112.581000", "174112.584000", "174112.586000", "174112.589000", "174112.592000", "174112.595000", "174112.598000", "174112.601000", "174112.603000", "174112.606000", "174112.609000", "174112.612000", "174112.615000", "174112.618000", "174112.620000", "174112.623000", "174112.626000", "174112.629000", "174152.555000", "174152.558000", "174152.561000", "174152.564000", "174152.567000", "174152.570000", "174152.572000", "174152.575000", "174152.578000", "174152.581000", "174152.584000", "174152.587000", "174152.590000", "174152.593000", "174152.595000", "174152.598000", "174152.601000", "174152.604000", "174152.607000", "174152.610000", "174152.613000", "174152.616000", "174152.619000", "174152.622000", "174152.625000", "174152.628000", "174232.555000", "174232.558000", "174232.561000", "174232.564000", "174232.566000", "174232.569000", "174232.572000", "174232.575000", "174232.578000", "174232.581000", "174232.584000", "174232.587000", "174232.589000", "174232.592000", "174232.595000", "174232.598000", "174232.601000", "174232.603000", "174232.606000", "174232.609000", "174232.612000", "174232.615000", "174232.618000", "174232.620000", "174232.623000", "174232.626000", "174232.629000", "174312.555000", "174312.558000", "174312.561000", "174312.564000", "174312.566000", "174312.569000", "174312.572000", "174312.575000", "174312.578000", "174312.581000", "174312.584000", "174312.587000", "174312.589000", "174312.592000", "174312.595000", "174312.598000", "174312.601000", "174312.603000", "174312.606000", "174312.609000", "174312.612000", "174312.615000", "174312.618000", "174312.621000", "174312.623000", "174312.626000", "174312.629000", "174352.555000", "174352.558000", "174352.561000", "174352.564000", "174352.566000", "174352.569000", "174352.572000", "174352.575000", "174352.578000", "174352.581000", "174352.584000", "174352.587000", "174352.590000", "174352.592000", "174352.595000", "174352.598000", "174352.601000", "174352.604000", "174352.606000", "174352.609000", "174352.612000", "174352.615000", "174352.618000", "174352.621000", "174352.623000", "174352.626000", "174352.629000", "174432.554000", "174432.557000", "174432.560000", "174432.563000", "174432.566000", "174432.569000", "174432.571000", "174432.574000", "174432.577000", "174432.580000", "174432.583000", "174432.587000", "174432.590000", "174432.592000", "174432.595000", "174432.598000", "174432.601000", "174432.604000", "174432.606000", "174432.609000", "174432.612000", "174432.615000", "174432.618000", "174432.621000", "174432.624000", "174432.626000", "174432.629000", "174512.555000", "174512.558000", "174512.561000", "174512.564000", "174512.567000", "174512.569000", "174512.572000", "174512.589000", "174512.591000", "174512.594000", "174512.597000", "174512.600000", "174512.603000", "174512.606000", "174512.608000", "174512.611000", "174512.614000", "174512.617000", "174512.620000", "174512.623000", "174512.625000", "174512.628000", "174512.631000", "174512.634000", "174512.637000", "174512.640000", "174512.643000", "174515.320000", "174515.323000"],
