{
  "AcquisitionMatrixPE": 104,
  "AcquisitionNumber": 1,
  "AcquisitionTime": "17:19:18.362500",
  "BandwidthPerPixelPhaseEncode": 17.17,
  "BaseResolution": 104,
  "BodyPartExamined": "BRAIN",
  "CoilCombinationMethod": "Sum of Squares",
  "ConsistencyInfo": "N4_VE11C_LATEST_20160120",
  "ConversionSoftware": "dcm2niix",
  "ConversionSoftwareVersion": "v1.0.20220505",
  "DerivedVendorReportedEchoSpacing": 0.000560011,
  "DeviceSerialNumber": "167006",
  "DwellTime": 2.1e-06,
  "EchoTime": 0.037,
  "EchoTrainLength": 104,
  "EffectiveEchoSpacing": 0.000560011,
  "FlipAngle": 52,
  "HeudiconvVersion": "0.5.3.post811+g6206e14",
  "ImageComments": "Unaliased MB4/PE3/LB",
  "ImageOrientationPatientDICOM": [0.998734, 0.0502957, -0.00112968, -0.0491957, 0.971703, -0.231028],
  "ImageOrientationText": "Tra>Cor(-13.3)>Sag(0.6)",
  "ImageType": [
    "ORIGINAL",
    "PRIMARY",
    "M",
    "MB",
    "ND",
    "MOSAIC"
],
  "ImagingFrequency": 123.259,
  "InPlanePhaseEncodingDirectionDICOM": "COL",
  "InstitutionAddress": "Chemin Queen-Mary 4565,Montreal,District,CA,H3W 1W5",
  "InstitutionName": "IUGM",
  "InstitutionalDepartmentName": "Department",
  "MRAcquisitionType": "2D",
  "MagneticFieldStrength": 3,
  "Manufacturer": "Siemens",
  "ManufacturersModelName": "Prisma_fit",
  "MatrixCoilMode": "SENSE",
  "Modality": "MR",
  "MultibandAccelerationFactor": 4,
  "PartialFourier": 1,
  "PatientPosition": "HFS",
  "PercentPhaseFOV": 100,
  "PercentSampling": 100,
  "PhaseEncodingDirection": "j",
  "PhaseEncodingSteps": 104,
  "PhaseResolution": 1,
  "PixelBandwidth": 2290,
  "ProcedureStepDescription": "video^friends",
  "ProtocolName": "func_task-friends-s05e02a",
  "PulseSequenceDetails": "%CustomerSeq%\\cmrr_mbep2d_bold",
  "ReceiveCoilActiveElements": "HC1-7;NC1,2",
  "ReceiveCoilName": "HeadNeck_64",
  "ReconMatrixPE": 104,
  "RepetitionTime": 1.49,
  "SAR": 0.0297752,
  "ScanOptions": "FS",
  "ScanningSequence": "EP",
  "SequenceName": "epfid2d1_104",
  "SequenceVariant": "SK\\SS",
  "SeriesDescription": "func_task-friends-s05e02a",
  "SeriesNumber": 13,
  "ShimSetting": [636, -7225, -8739, 710, 35, -20, 133, -6],
  "SliceThickness": 2,
  "SliceTiming": [0, 0.7825, 0.0975, 0.88, 0.195, 0.98, 0.2925, 1.0775, 0.39, 1.175, 0.49, 1.2725, 0.5875, 1.37, 0.685, 0, 0.7825, 0.0975, 0.88, 0.195, 0.98, 0.2925, 1.0775, 0.39, 1.175, 0.49, 1.2725, 0.5875, 1.37, 0.685, 0, 0.7825, 0.0975, 0.88, 0.195, 0.98, 0.2925, 1.0775, 0.39, 1.175, 0.49, 1.2725, 0.5875, 1.37, 0.685, 0, 0.7825, 0.0975, 0.88, 0.195, 0.98, 0.2925, 1.0775, 0.39, 1.175, 0.49, 1.2725, 0.5875, 1.37, 0.685],
  "SoftwareVersions": "syngo MR E11",
  "SpacingBetweenSlices": 2,
  "StationName": "MRC35049",
  "TaskName": "s05e02a",
  "TotalReadoutTime": 0.0576811,
  "TxRefAmp": 206.882,
  "WipMemBlock": "b95afab7-0356-4067-8444-ce3385b988c2||Sequence: R016 ve11c/master r/e634e98; Dec 19 2017 11:00:25 by eja",
  "dcmmeta_affine": [
    [-1.9974675178527832, -0.09839148074388504, 0.021044030785560608, 109.83780670166016],
    [-0.10059139877557755, 1.943405032157898, -0.4615825116634369, -79.56859588623047],
    [-0.002259355504065752, 0.4620564579963684, 1.9458928108215332, -43.956783294677734],
    [0.0, 0.0, 0.0, 1.0]
],
  "dcmmeta_reorient_transform": [
    [0.0, -1.0, 0.0, 103.0],
    [1.0, 0.0, 0.0, 0.0],
    [0.0, 0.0, 1.0, 0.0],
    [0.0, 0.0, 0.0, 1.0]
],
  "dcmmeta_shape": [104, 104, 60, 495],
  "dcmmeta_slice_dim": 2,
  "dcmmeta_version": 0.6,
  "global": {
    "const": {
      "AcquisitionMatrix": [104, 0, 0, 104],
      "AngioFlag": "N",
      "BitsAllocated": 16,
      "BitsStored": 16,
      "BodyPartExamined": "BRAIN",
      "Columns": 832,
      "EchoNumbers": 1,
      "EchoTime": 37.0,
      "EchoTrainLength": 104,
      "FlipAngle": 52.0,
      "HighBit": 15,
      "ImageOrientationPatient": [0.99873373150398, 0.0502956994612, -0.0011296777625, -0.0491957391125, 0.97170249491476, -0.2310282247467],
      "ImagePositionPatient": [-790.96714429857, -864.61680111893, 172.64598501033],
      "ImageType": [
        "ORIGINAL",
        "PRIMARY",
        "M",
        "MB",
        "ND",
        "MOSAIC"
],
      "ImagedNucleus": "1H",
      "ImagingFrequency": 123.258978,
      "InPlanePhaseEncodingDirection": "COL",
      "MRAcquisitionType": "2D",
      "MagneticFieldStrength": 3.0,
      "Manufacturer": "SIEMENS",
      "ManufacturerModelName": "Prisma_fit",
      "Modality": "MR",
      "NumberOfAverages": 1.0,
      "NumberOfPhaseEncodingSteps": 104,
      "PercentPhaseFieldOfView": 100.0,
      "PercentSampling": 100.0,
      "PerformedProcedureStepStartTime": "163758.111000",
      "PhotometricInterpretation": "MONOCHROME2",
      "PixelBandwidth": 2290.0,
      "PixelRepresentation": 0,
      "PixelSpacing": [2.0, 2.0],
      "ProtocolName": "func_task-friends-s05e02a",
      "RepetitionTime": 1490.0,
      "Rows": 832,
      "SAR": 0.02977521169533,
      "SamplesPerPixel": 1,
      "ScanOptions": "FS",
      "ScanningSequence": "EP",
      "SequenceName": "epfid2d1_104",
      "SequenceVariant": [
        "SK",
        "SS"
],
      "SeriesDescription": "func_task-friends-s05e02a",
      "SeriesNumber": 13,
      "SeriesTime": "172033.179000",
      "SliceLocation": -23.248140901468,
      "SliceThickness": 2.0,
      "SmallestImagePixelValue": 0,
      "SoftwareVersions": "syngo MR E11",
      "SpacingBetweenSlices": 2.0000000309716,
      "SpecificCharacterSet": "ISO_IR 100",
      "StudyID": "1",
      "StudyTime": "163758.061000",
      "TransmitCoilName": "Body",
      "VariableFlipAngleFlag": "N",
      "WindowCenterWidthExplanation": "Algo1",
      "dBdt": 0.0},
    "slices": {}
  },
  "time": {
    "samples": {
      "AcquisitionNumber": [1, 2, 3, 4, 5, 6, 7, 8, 9, 10, 11, 12, 13, 14, 15, 16, 17, 18, 19, 20, 21, 22, 23, 24, 25, 26, 27, 28, 29, 30, 31, 32, 33, 34, 35, 36, 37, 38, 39, 40, 41, 42, 43, 44, 45, 46, 47, 48, 49, 50, 51, 52, 53, 54, 55, 56, 57, 58, 59, 60, 61, 62, 63, 64, 65, 66, 67, 68, 69, 70, 71, 72, 73, 74, 75, 76, 77, 78, 79, 80, 81, 82, 83, 84, 85, 86, 87, 88, 89, 90, 91, 92, 93, 94, 95, 96, 97, 98, 99, 100, 101, 102, 103, 104, 105, 106, 107, 108, 109, 110, 111, 112, 113, 114, 115, 116, 117, 118, 119, 120, 121, 122, 123, 124, 125, 126, 127, 128, 129, 130, 131, 132, 133, 134, 135, 136, 137, 138, 139, 140, 141, 142, 143, 144, 145, 146, 147, 148, 149, 150, 151, 152, 153, 154, 155, 156, 157, 158, 159, 160, 161, 162, 163, 164, 165, 166, 167, 168, 169, 170, 171, 172, 173, 174, 175, 176, 177, 178, 179, 180, 181, 182, 183, 184, 185, 186, 187, 188, 189, 190, 191, 192, 193, 194, 195, 196, 197, 198, 199, 200, 201, 202, 203, 204, 205, 206, 207, 208, 209, 210, 211, 212, 213, 214, 215, 216, 217, 218, 219, 220, 221, 222, 223, 224, 225, 226, 227, 228, 229, 230, 231, 232, 233, 234, 235, 236, 237, 238, 239, 240, 241, 242, 243, 244, 245, 246, 247, 248, 249, 250, 251, 252, 253, 254, 255, 256, 257, 258, 259, 260, 261, 262, 263, 264, 265, 266, 267, 268, 269, 270, 271, 272, 273, 274, 275, 276, 277, 278, 279, 280, 281, 282, 283, 284, 285, 286, 287, 288, 289, 290, 291, 292, 293, 294, 295, 296, 297, 298, 299, 300, 301, 302, 303, 304, 305, 306, 307, 308, 309, 310, 311, 312, 313, 314, 315, 316, 317, 318, 319, 320, 321, 322, 323, 324, 325, 326, 327, 328, 329, 330, 331, 332, 333, 334, 335, 336, 337, 338, 339, 340, 341, 342, 343, 344, 345, 346, 347, 348, 349, 350, 351, 352, 353, 354, 355, 356, 357, 358, 359, 360, 361, 362, 363, 364, 365, 366, 367, 368, 369, 370, 371, 372, 373, 374, 375, 376, 377, 378, 379, 380, 381, 382, 383, 384, 385, 386, 387, 388, 389, 390, 391, 392, 393, 394, 395, 396, 397, 398, 399, 400, 401, 402, 403, 404, 405, 406, 407, 408, 409, 410, 411, 412, 413, 414, 415, 416, 417, 418, 419, 420, 421, 422, 423, 424, 425, 426, 427, 428, 429, 430, 431, 432, 433, 434, 435, 436, 437, 438, 439, 440, 441, 442, 443, 444, 445, 446, 447, 448, 449, 450, 451, 452, 453, 454, 455, 456, 457, 458, 459, 460, 461, 462, 463, 464, 465, 466, 467, 468, 469, 470, 471, 472, 473, 474, 475, 476, 477, 478, 479, 480, 481, 482, 483, 484, 485, 486, 487, 488, 489, 490, 491, 492, 493, 494, 495],
      "AcquisitionTime": ["171918.362500", "171919.852500", "171921.342500", "171922.832500", "171924.322500", "171925.812500", "171927.302500", "171928.792500", "171930.282500", "171931.772500", "171933.262500", "171934.752500", "171936.242500", "171937.732500", "171939.222500", "171940.712500", "171942.202500", "171943.692500", "171945.182500", "171946.672500", "171948.162500", "171949.652500", "171951.142500", "171952.632500", "171954.122500", "171955.612500", "171957.102500", "171958.592500", "172000.082500", "172001.572500", "172003.062500", "172004.552500", "172006.042500", "172007.532500", "172009.022500", "172010.512500", "172012.002500", "172013.492500", "172014.982500", "172016.472500", "172017.962500", "172019.452500", "172020.942500", "172022.432500", "172023.922500", "172025.412500", "172026.902500", "172028.392500", "172029.882500", "172031.372500", "172032.862500", "172034.352500", "172035.842500", "172037.332500", "172038.822500", "172040.312500", "172041.802500", "172043.292500", "172044.782500", "172046.272500", "172047.762500", "172049.252500", "172050.742500", "172052.232500", "172053.722500", "172055.212500", "172056.702500", "172058.192500", "172059.682500", "172101.172500", "172102.662500", "172104.152500", "172105.642500", "172107.132500", "172108.622500", "172110.112500", "172111.602500", "172113.092500", "172114.582500", "172116.072500", "172117.562500", "172119.052500", "172120.542500", "172122.032500", "172123.522500", "172125.012500", "172126.502500", "172127.992500", "172129.482500", "172130.972500", "172132.462500", "172133.952500", "172135.442500", "172136.932500", "172138.422500", "172139.912500", "172141.402500", "172142.892500", "172144.382500", "172145.872500", "172147.362500", "172148.852500", "172150.342500", "172151.832500", "172153.322500", "172154.812500", "172156.302500", "172157.792500", "172159.282500", "172200.772500", "172202.262500", "172203.752500", "172205.242500", "172206.732500", "172208.222500", "172209.712500", "172211.202500", "172212.692500", "172214.182500", "172215.672500", "172217.162500", "172218.652500", "172220.142500", "172221.632500", "172223.122500", "172224.612500", "172226.102500", "172227.592500", "172229.082500", "172230.572500", "172232.062500", "172233.552500", "172235.042500", "172236.532500", "172238.022500", "172239.512500", "172241.002500", "172242.492500", "172243.982500", "172245.472500", "172246.962500", "172248.452500", "172249.942500", "172251.432500", "172252.922500", "172254.412500", "172255.902500", "172257.392500", "172258.882500", "172300.372500", "172301.862500", "172303.352500", "172304.842500", "172306.332500", "172307.822500", "172309.312500", "172310.802500", "172312.292500", "172313.782500", "172315.272500", "172316.762500", "172318.252500", "172319.742500", "172321.232500", "172322.722500", "172324.212500", "172325.702500", "172327.192500", "172328.682500", "172330.172500", "172331.662500", "172333.152500", "172334.642500", "172336.132500", "172337.622500", "172339.112500", "172340.602500", "172342.092500", "172343.582500", "172345.072500", "172346.562500", "172348.052500", "172349.542500", "172351.032500", "172352.522500", "172354.012500", "172355.502500", "172356.992500", "172358.482500", "172359.972500", "172401.462500", "172402.952500", "172404.442500", "172405.932500", "172407.422500", "172408.912500", "172410.402500", "172411.892500", "172413.382500", "172414.872500", "172416.362500", "172417.852500", "172419.342500", "172420.832500", "172422.322500", "172423.812500", "172425.302500", "172426.792500", "172428.282500", "172429.772500", "172431.262500", "172432.752500", "172434.242500", "172435.732500", "172437.222500", "172438.712500", "172440.202500", "172441.692500", "172443.182500", "172444.672500", "172446.162500", "172447.652500", "172449.142500", "172450.632500", "172452.122500", "172453.612500", "172455.102500", "172456.592500", "172458.082500", "172459.572500", "172501.062500", "172502.552500", "172504.042500", "172505.532500", "172507.022500", "172508.512500", "172510.002500", "172511.492500", "172512.982500", "172514.472500", "172515.962500", "172517.452500", "172518.942500", "172520.432500", "172521.922500", "172523.412500", "172524.902500", "172526.392500", "172527.882500", "172529.372500", "172530.862500", "172532.352500", "172533.842500", "172535.332500", "172536.822500", "172538.312500", "172539.802500", "172541.292500", "172542.782500", "172544.272500", "172545.762500", "172547.252500", "172548.742500", "172550.232500", "172551.722500", "172553.212500", "172554.702500", "172556.192500", "172557.682500", "172559.172500", "172600.662500", "172602.152500", "172603.642500", "172605.132500", "172606.622500", "172608.112500", "172609.602500", "172611.092500", "172612.582500", "172614.072500", "172615.562500", "172617.052500", "172618.542500", "172620.032500", "172621.522500", "172623.012500", "172624.502500", "172625.992500", "172627.482500", "172628.972500", "172630.462500", "172631.952500", "172633.442500", "172634.932500", "172636.422500", "172637.912500", "172639.402500", "172640.892500", "172642.382500", "172643.872500", "172645.362500", "172646.852500", "172648.342500", "172649.832500", "172651.322500", "172652.812500", "172654.302500", "172655.792500", "172657.282500", "172658.772500", "172700.262500", "172701.752500", "172703.242500", "172704.732500", "172706.222500", "172707.712500", "172709.202500", "172710.692500", "172712.182500", "172713.672500", "172715.162500", "172716.652500", "172718.142500", "172719.632500", "172721.122500", "172722.612500", "172724.102500", "172725.592500", "172727.082500", "172728.572500", "172730.062500", "172731.552500", "172733.042500", "172734.532500", "172736.022500", "172737.512500", "172739.002500", "172740.492500", "172741.982500", "172743.472500", "172744.962500", "172746.452500", "172747.942500", "172749.432500", "172750.922500", "172752.412500", "172753.902500", "172755.392500", "172756.882500", "172758.372500", "172759.862500", "172801.352500", "172802.842500", "172804.332500", "172805.822500", "172807.312500", "172808.802500", "172810.292500", "172811.782500", "172813.272500", "172814.762500", "172816.252500", "172817.742500", "172819.232500", "172820.722500", "172822.212500", "172823.702500", "172825.192500", "172826.682500", "172828.172500", "172829.662500", "172831.152500", "172832.642500", "172834.132500", "172835.622500", "172837.112500", "172838.602500", "172840.092500", "172841.582500", "172843.072500", "172844.562500", "172846.052500", "172847.542500", "172849.032500", "172850.522500", "172852.012500", "172853.502500", "172854.992500", "172856.482500", "172857.972500", "172859.462500", "172900.952500", "172902.442500", "172903.932500", "172905.422500", "172906.912500", "172908.402500", "172909.892500", "172911.382500", "172912.872500", "172914.362500", "172915.852500", "172917.342500", "172918.832500", "172920.322500", "172921.812500", "172923.302500", "172924.792500", "172926.282500", "172927.772500", "172929.262500", "172930.752500", "172932.242500", "172933.732500", "172935.222500", "172936.712500", "172938.202500", "172939.692500", "172941.182500", "172942.672500", "172944.162500", "172945.652500", "172947.142500", "172948.632500", "172950.122500", "172951.612500", "172953.102500", "172954.592500", "172956.082500", "172957.572500", "172959.062500", "173000.552500", "173002.042500", "173003.532500", "173005.022500", "173006.512500", "173008.002500", "173009.492500", "173010.982500", "173012.472500", "173013.962500", "173015.452500", "173016.942500", "173018.432500", "173019.922500", "173021.412500", "173022.902500", "173024.392500", "173025.882500", "173027.372500", "173028.862500", "173030.352500", "173031.842500", "173033.332500", "173034.822500", "173036.312500", "173037.802500", "173039.292500", "173040.782500", "173042.272500", "173043.762500", "173045.252500", "173046.742500", "173048.232500", "173049.722500", "173051.212500", "173052.702500", "173054.192500", "173055.682500", "173057.172500", "173058.662500", "173100.152500", "173101.642500", "173103.132500", "173104.622500", "173106.112500", "173107.602500", "173109.092500", "173110.582500", "173112.072500", "173113.562500", "173115.052500", "173116.542500", "173118.032500", "173119.522500", "173121.012500", "173122.502500", "173123.992500", "173125.482500", "173126.972500", "173128.462500", "173129.952500", "173131.442500", "173132.932500", "173134.422500"],
      "ContentTime": ["172033.181000", "172033.184000", "172033.187000", "172033.190000", "172033.193000", "172033.196000", "172033.199000", "172033.201000", "172033.204000", "172033.207000", "172033.210000", "172033.214000", "172033.217000", "172033.220000", "172033.223000", "172033.226000", "172033.229000", "172033.231000", "172033.234000", "172033.237000", "172053.147000", "172053.150000", "172053.153000", "172053.155000", "172053.158000", "172053.161000", "172053.164000", "172053.167000", "172053.169000", "172053.172000", "172053.175000", "172053.178000", "172053.180000", "172053.183000", "172053.186000", "172053.189000", "172053.192000", "172053.194000", "172053.197000", "172053.200000", "172113.147000", "172113.150000", "172113.162000", "172113.165000", "172113.168000", "172113.170000", "172113.173000", "172113.176000", "172113.179000", "172113.181000", "172113.184000", "172113.187000", "172113.190000", "172113.193000", "172113.196000", "172113.198000", "172113.201000", "172113.204000", "172113.207000", "172113.209000", "172133.147000", "172133.150000", "172133.152000", "172133.155000", "172133.158000", "172133.161000", "172133.164000", "172133.166000", "172133.169000", "172133.172000", "172133.175000", "172133.178000", "172133.181000", "172133.184000", "172133.187000", "172133.190000", "172133.192000", "172133.195000", "172133.198000", "172133.201000", "172133.204000", "172153.147000", "172153.150000", "172153.152000", "172153.155000", "172153.158000", "172153.161000", "172153.164000", "172153.166000", "172153.169000", "172153.172000", "172153.175000", "172153.189000", "172153.192000", "172153.194000", "172153.197000", "172153.200000", "172153.203000", "172153.205000", "172153.208000", "172153.211000", "172233.147000", "172233.150000", "172233.152000", "172233.155000", "172233.158000", "172233.161000", "172233.164000", "172233.167000", "172233.169000", "172233.172000", "172233.175000", "172233.178000", "172233.180000", "172233.183000", "172233.186000", "172233.189000", "172233.192000", "172233.194000", "172233.197000", "172233.200000", "172233.203000", "172233.206000", "172233.208000", "172233.211000", "172233.214000", "172233.217000", "172233.219000", "172233.222000", "172233.225000", "172313.147000", "172313.150000", "172313.153000", "172313.155000", "172313.158000", "172313.161000", "172313.164000", "172313.167000", "172313.170000", "172313.172000", "172313.175000", "172313.178000", "172313.181000", "172313.184000", "172313.186000", "172313.189000", "172313.192000", "172313.195000", "172313.198000", "172313.201000", "172313.203000", "172313.206000", "172313.209000", "172313.212000", "172313.214000", "172313.217000", "172313.220000", "172353.147000", "172353.158000", "172353.161000", "172353.164000", "172353.167000", "172353.170000", "172353.173000", "172353.175000", "172353.178000", "172353.181000", "172353.184000", "172353.187000", "172353.189000", "172353.192000", "172353.195000", "172353.198000", "172353.201000", "172353.204000", "172353.206000", "172353.209000", "172353.212000", "172353.215000", "172353.217000", "172353.220000", "172353.223000", "172353.226000", "172433.147000", "172433.150000", "172433.153000", "172433.155000", "172433.158000", "172433.161000", "172433.164000", "172433.167000", "172433.170000", "172433.172000", "172433.175000", "172433.178000", "172433.181000", "172433.184000", "172433.186000", "172433.189000", "172433.192000", "172433.195000", "172433.198000", "172433.201000", "172433.203000", "172433.206000", "172433.209000", "172433.212000", "172433.215000", "172433.217000", "172433.220000", "172513.147000", "172513.150000", "172513.153000", "172513.156000", "172513.159000", "172513.162000", "172513.165000", "172513.168000", "172513.170000", "172513.173000", "172513.177000", "172513.180000", "172513.183000", "172513.186000", "172513.190000", "172513.193000", "172513.196000", "172513.199000", "172513.203000", "172513.206000", "172513.208000", "172513.211000", "172513.214000", "172513.217000", "172513.220000", "172513.223000", "172513.225000", "172553.147000", "172553.150000", "172553.153000", "172553.156000", "172553.158000", "172553.161000", "172553.164000", "172553.167000", "172553.169000", "172553.172000", "172553.175000", "172553.178000", "172553.181000", "172553.184000", "172553.186000", "172553.189000", "172553.192000", "172553.195000", "172553.198000", "172553.200000", "172553.203000", "172553.206000", "172553.209000", "172553.211000", "172553.214000", "172553.217000", "172553.220000", "172633.147000", "172633.150000", "172633.153000", "172633.155000", "172633.158000", "172633.161000", "172633.164000", "172633.167000", "172633.169000", "172633.172000", "172633.175000", "172633.178000", "172633.181000", "172633.183000", "172633.186000", "172633.189000", "172633.192000", "172633.195000", "172633.198000", "172633.200000", "172633.203000", "172633.206000", "172633.209000", "172633.212000", "172633.214000", "172633.217000", "172633.220000", "172713.147000", "172713.150000", "172713.153000", "172713.156000", "172713.158000", "172713.161000", "172713.164000", "172713.167000", "172713.170000", "172713.173000", "172713.175000", "172713.178000", "172713.181000", "172713.184000", "172713.187000", "172713.190000", "172713.192000", "172713.195000", "172713.198000", "172713.201000", "172713.204000", "172713.206000", "172713.209000", "172713.212000", "172713.215000", "172713.218000", "172713.220000", "172753.147000", "172753.150000", "172753.153000", "172753.155000", "172753.158000", "172753.161000", "172753.164000", "172753.167000", "172753.170000", "172753.173000", "172753.176000", "172753.178000", "172753.181000", "172753.184000", "172753.187000", "172753.190000", "172753.192000", "172753.195000", "172753.198000", "172753.201000", "172753.204000", "172753.206000", "172753.209000", "172753.212000", "172753.215000", "172753.217000", "172833.147000", "172833.150000", "172833.153000", "172833.155000", "172833.158000", "172833.161000", "172833.164000", "172833.167000", "172833.169000", "172833.172000", "172833.175000", "172833.178000", "172833.181000", "172833.183000", "172833.186000", "172833.189000", "172833.192000", "172833.195000", "172833.198000", "172833.200000", "172833.203000", "172833.206000", "172833.209000", "172833.212000", "172833.214000", "172833.217000", "172833.220000", "172913.147000", "172913.150000", "172913.153000", "172913.156000", "172913.159000", "172913.162000", "172913.164000", "172913.167000", "172913.170000", "172913.173000", "172913.176000", "172913.178000", "172913.181000", "172913.184000", "172913.187000", "172913.190000", "172913.192000", "172913.195000", "172913.198000", "172913.201000", "172913.204000", "172913.206000", "172913.209000", "172913.212000", "172913.215000", "172913.218000", "172913.221000", "172953.147000", "172953.150000", "172953.153000", "172953.156000", "172953.159000", "172953.161000", "172953.164000", "172953.167000", "172953.170000", "172953.173000", "172953.176000", "172953.178000", "172953.181000", "172953.184000", "172953.187000", "172953.190000", "172953.192000", "172953.195000", "172953.198000", "172953.201000", "172953.204000", "172953.207000", "172953.210000", "172953.212000", "172953.215000", "172953.218000", "172953.221000", "173033.147000", "173033.150000", "173033.153000", "173033.156000", "173033.158000", "173033.161000", "173033.164000", "173033.167000", "173033.170000", "173033.173000", "173033.175000", "173033.178000", "173033.181000", "173033.184000", "173033.186000", "173033.189000", "173033.192000", "173033.195000", "173033.198000", "173033.201000", "173033.203000", "173033.206000", "173033.209000", "173033.212000", "173033.215000", "173033.217000", "173033.220000", "173113.147000", "173113.150000", "173113.153000", "173113.156000", "173113.158000", "173113.161000", "173113.164000", "173113.167000", "173113.170000", "173113.173000", "173113.175000", "173113.178000", "173113.181000", "173113.184000", "173113.187000", "173113.190000", "173113.192000", "173113.205000", "173113.208000", "173113.211000", "173113.214000", "173113.216000", "173113.219000", "173113.222000", "173113.225000", "173113.228000", "173113.230000", "173136.805000", "173136.809000", "173136.812000", "173136.814000", "173136.817000", "173136.820000", "173136.823000", "173136.826000", "173136.829000", "173136.832000", "173136.835000", "173136.838000", "173136.841000", "173136.844000", "173136.847000", "173136.850000"],
