{
  "AcquisitionMatrixPE": 104,
  "AcquisitionNumber": 1,
  "AcquisitionTime": "17:07:6.110000",
  "BandwidthPerPixelPhaseEncode": 17.17,
  "BaseResolution": 104,
  "BodyPartExamined": "BRAIN",
  "CoilCombinationMethod": "Sum of Squares",
  "ConsistencyInfo": "N4_VE11C_LATEST_20160120",
  "ConversionSoftware": "dcm2niix",
  "ConversionSoftwareVersion": "v1.0.20220505",
  "DerivedVendorReportedEchoSpacing": 0.000560011,
  "DeviceSerialNumber": "167006",
  "DwellTime": 2.1e-06,
  "EchoTime": 0.037,
  "EchoTrainLength": 104,
  "EffectiveEchoSpacing": 0.000560011,
  "FlipAngle": 52,
  "HeudiconvVersion": "0.5.3.post811+g6206e14",
  "ImageComments": "Unaliased MB4/PE3/LB",
  "ImageOrientationPatientDICOM": [0.998734, 0.0502957, -0.00112968, -0.0491957, 0.971703, -0.231028],
  "ImageOrientationText": "Tra>Cor(-13.3)>Sag(0.6)",
  "ImageType": [
    "ORIGINAL",
    "PRIMARY",
    "M",
    "MB",
    "ND",
    "MOSAIC"
],
  "ImagingFrequency": 123.259,
  "InPlanePhaseEncodingDirectionDICOM": "COL",
  "InstitutionAddress": "Chemin Queen-Mary 4565,Montreal,District,CA,H3W 1W5",
  "InstitutionName": "IUGM",
  "InstitutionalDepartmentName": "Department",
  "MRAcquisitionType": "2D",
  "MagneticFieldStrength": 3,
  "Manufacturer": "Siemens",
  "ManufacturersModelName": "Prisma_fit",
  "MatrixCoilMode": "SENSE",
  "Modality": "MR",
  "MultibandAccelerationFactor": 4,
  "PartialFourier": 1,
  "PatientPosition": "HFS",
  "PercentPhaseFOV": 100,
  "PercentSampling": 100,
  "PhaseEncodingDirection": "j",
  "PhaseEncodingSteps": 104,
  "PhaseResolution": 1,
  "PixelBandwidth": 2290,
  "ProcedureStepDescription": "video^friends",
  "ProtocolName": "func_task-friends-s05e01b",
  "PulseSequenceDetails": "%CustomerSeq%\\cmrr_mbep2d_bold",
  "ReceiveCoilActiveElements": "HC1-7;NC1,2",
  "ReceiveCoilName": "HeadNeck_64",
  "ReconMatrixPE": 104,
  "RepetitionTime": 1.49,
  "SAR": 0.0297699,
  "ScanOptions": "FS",
  "ScanningSequence": "EP",
  "SequenceName": "epfid2d1_104",
  "SequenceVariant": "SK\\SS",
  "SeriesDescription": "func_task-friends-s05e01b",
  "SeriesNumber": 11,
  "ShimSetting": [636, -7225, -8739, 710, 35, -20, 133, -6],
  "SliceThickness": 2,
  "SliceTiming": [0, 0.785, 0.0975, 0.8825, 0.1975, 0.98, 0.295, 1.0775, 0.3925, 1.1775, 0.49, 1.275, 0.5875, 1.3725, 0.6875, 0, 0.785, 0.0975, 0.8825, 0.1975, 0.98, 0.295, 1.0775, 0.3925, 1.1775, 0.49, 1.275, 0.5875, 1.3725, 0.6875, 0, 0.785, 0.0975, 0.8825, 0.1975, 0.98, 0.295, 1.0775, 0.3925, 1.1775, 0.49, 1.275, 0.5875, 1.3725, 0.6875, 0, 0.785, 0.0975, 0.8825, 0.1975, 0.98, 0.295, 1.0775, 0.3925, 1.1775, 0.49, 1.275, 0.5875, 1.3725, 0.6875],
  "SoftwareVersions": "syngo MR E11",
  "SpacingBetweenSlices": 2,
  "StationName": "MRC35049",
  "TaskName": "s05e01b",
  "TotalReadoutTime": 0.0576811,
  "TxRefAmp": 206.882,
  "WipMemBlock": "797b63f1-0e9f-470a-82e6-cf5ac3e7691b||Sequence: R016 ve11c/master r/e634e98; Dec 19 2017 11:00:25 by eja",
  "dcmmeta_affine": [
    [-1.9974675178527832, -0.09839148074388504, 0.021044030785560608, 109.83780670166016],
    [-0.10059139877557755, 1.943405032157898, -0.4615825116634369, -79.56859588623047],
    [-0.002259355504065752, 0.4620564579963684, 1.9458928108215332, -43.956783294677734],
    [0.0, 0.0, 0.0, 1.0]
],
  "dcmmeta_reorient_transform": [
    [0.0, -1.0, 0.0, 103.0],
    [1.0, 0.0, 0.0, 0.0],
    [0.0, 0.0, 1.0, 0.0],
    [0.0, 0.0, 0.0, 1.0]
],
  "dcmmeta_shape": [104, 104, 60, 474],
  "dcmmeta_slice_dim": 2,
  "dcmmeta_version": 0.6,
  "global": {
    "const": {
      "AcquisitionMatrix": [104, 0, 0, 104],
      "AngioFlag": "N",
      "BitsAllocated": 16,
      "BitsStored": 16,
      "BodyPartExamined": "BRAIN",
      "Columns": 832,
      "EchoNumbers": 1,
      "EchoTime": 37.0,
      "EchoTrainLength": 104,
      "FlipAngle": 52.0,
      "HighBit": 15,
      "ImageOrientationPatient": [0.99873373150398, 0.0502956994612, -0.0011296777625, -0.0491957391125, 0.97170249491476, -0.2310282247467],
      "ImagePositionPatient": [-790.96714429857, -864.61680111893, 172.64598501033],
      "ImageType": [
        "ORIGINAL",
        "PRIMARY",
        "M",
        "MB",
        "ND",
        "MOSAIC"
],
      "ImagedNucleus": "1H",
      "ImagingFrequency": 123.258974,
      "InPlanePhaseEncodingDirection": "COL",
      "MRAcquisitionType": "2D",
      "MagneticFieldStrength": 3.0,
      "Manufacturer": "SIEMENS",
      "ManufacturerModelName": "Prisma_fit",
      "Modality": "MR",
      "NumberOfAverages": 1.0,
      "NumberOfPhaseEncodingSteps": 104,
      "PercentPhaseFieldOfView": 100.0,
      "PercentSampling": 100.0,
      "PerformedProcedureStepStartTime": "163758.111000",
      "PhotometricInterpretation": "MONOCHROME2",
      "PixelBandwidth": 2290.0,
      "PixelRepresentation": 0,
      "PixelSpacing": [2.0, 2.0],
      "ProtocolName": "func_task-friends-s05e01b",
      "RepetitionTime": 1490.0,
      "Rows": 832,
      "SAR": 0.02976994256826,
      "SamplesPerPixel": 1,
      "ScanOptions": "FS",
      "ScanningSequence": "EP",
      "SequenceName": "epfid2d1_104",
      "SequenceVariant": [
        "SK",
        "SS"
],
      "SeriesDescription": "func_task-friends-s05e01b",
      "SeriesNumber": 11,
      "SeriesTime": "170836.357000",
      "SliceLocation": -23.248140901468,
      "SliceThickness": 2.0,
      "SmallestImagePixelValue": 0,
      "SoftwareVersions": "syngo MR E11",
      "SpacingBetweenSlices": 2.0000000309716,
      "SpecificCharacterSet": "ISO_IR 100",
      "StudyID": "1",
      "StudyTime": "163758.061000",
      "TransmitCoilName": "Body",
      "VariableFlipAngleFlag": "N",
      "WindowCenterWidthExplanation": "Algo1",
      "dBdt": 0.0},
    "slices": {}
  },
  "time": {
    "samples": {
      "AcquisitionNumber": [1, 2, 3, 4, 5, 6, 7, 8, 9, 10, 11, 12, 13, 14, 15, 16, 17, 18, 19, 20, 21, 22, 23, 24, 25, 26, 27, 28, 29, 30, 31, 32, 33, 34, 35, 36, 37, 38, 39, 40, 41, 42, 43, 44, 45, 46, 47, 48, 49, 50, 51, 52, 53, 54, 55, 56, 57, 58, 59, 60, 61, 62, 63, 64, 65, 66, 67, 68, 69, 70, 71, 72, 73, 74, 75, 76, 77, 78, 79, 80, 81, 82, 83, 84, 85, 86, 87, 88, 89, 90, 91, 92, 93, 94, 95, 96, 97, 98, 99, 100, 101, 102, 103, 104, 105, 106, 107, 108, 109, 110, 111, 112, 113, 114, 115, 116, 117, 118, 119, 120, 121, 122, 123, 124, 125, 126, 127, 128, 129, 130, 131, 132, 133, 134, 135, 136, 137, 138, 139, 140, 141, 142, 143, 144, 145, 146, 147, 148, 149, 150, 151, 152, 153, 154, 155, 156, 157, 158, 159, 160, 161, 162, 163, 164, 165, 166, 167, 168, 169, 170, 171, 172, 173, 174, 175, 176, 177, 178, 179, 180, 181, 182, 183, 184, 185, 186, 187, 188, 189, 190, 191, 192, 193, 194, 195, 196, 197, 198, 199, 200, 201, 202, 203, 204, 205, 206, 207, 208, 209, 210, 211, 212, 213, 214, 215, 216, 217, 218, 219, 220, 221, 222, 223, 224, 225, 226, 227, 228, 229, 230, 231, 232, 233, 234, 235, 236, 237, 238, 239, 240, 241, 242, 243, 244, 245, 246, 247, 248, 249, 250, 251, 252, 253, 254, 255, 256, 257, 258, 259, 260, 261, 262, 263, 264, 265, 266, 267, 268, 269, 270, 271, 272, 273, 274, 275, 276, 277, 278, 279, 280, 281, 282, 283, 284, 285, 286, 287, 288, 289, 290, 291, 292, 293, 294, 295, 296, 297, 298, 299, 300, 301, 302, 303, 304, 305, 306, 307, 308, 309, 310, 311, 312, 313, 314, 315, 316, 317, 318, 319, 320, 321, 322, 323, 324, 325, 326, 327, 328, 329, 330, 331, 332, 333, 334, 335, 336, 337, 338, 339, 340, 341, 342, 343, 344, 345, 346, 347, 348, 349, 350, 351, 352, 353, 354, 355, 356, 357, 358, 359, 360, 361, 362, 363, 364, 365, 366, 367, 368, 369, 370, 371, 372, 373, 374, 375, 376, 377, 378, 379, 380, 381, 382, 383, 384, 385, 386, 387, 388, 389, 390, 391, 392, 393, 394, 395, 396, 397, 398, 399, 400, 401, 402, 403, 404, 405, 406, 407, 408, 409, 410, 411, 412, 413, 414, 415, 416, 417, 418, 419, 420, 421, 422, 423, 424, 425, 426, 427, 428, 429, 430, 431, 432, 433, 434, 435, 436, 437, 438, 439, 440, 441, 442, 443, 444, 445, 446, 447, 448, 449, 450, 451, 452, 453, 454, 455, 456, 457, 458, 459, 460, 461, 462, 463, 464, 465, 466, 467, 468, 469, 470, 471, 472, 473, 474],
      "AcquisitionTime": ["170706.110000", "170707.600000", "170709.090000", "170710.580000", "170712.070000", "170713.560000", "170715.050000", "170716.540000", "170718.030000", "170719.520000", "170721.010000", "170722.500000", "170723.990000", "170725.480000", "170726.970000", "170728.460000", "170729.950000", "170731.440000", "170732.930000", "170734.420000", "170735.910000", "170737.400000", "170738.890000", "170740.380000", "170741.870000", "170743.360000", "170744.850000", "170746.340000", "170747.830000", "170749.320000", "170750.810000", "170752.300000", "170753.790000", "170755.280000", "170756.770000", "170758.260000", "170759.750000", "170801.240000", "170802.730000", "170804.220000", "170805.710000", "170807.200000", "170808.690000", "170810.180000", "170811.670000", "170813.160000", "170814.650000", "170816.140000", "170817.630000", "170819.120000", "170820.610000", "170822.100000", "170823.590000", "170825.080000", "170826.570000", "170828.060000", "170829.550000", "170831.040000", "170832.530000", "170834.020000", "170835.510000", "170837.000000", "170838.490000", "170839.980000", "170841.470000", "170842.960000", "170844.450000", "170845.940000", "170847.430000", "170848.920000", "170850.410000", "170851.900000", "170853.390000", "170854.880000", "170856.370000", "170857.860000", "170859.350000", "170900.840000", "170902.330000", "170903.820000", "170905.310000", "170906.800000", "170908.290000", "170909.780000", "170911.270000", "170912.760000", "170914.250000", "170915.740000", "170917.230000", "170918.720000", "170920.210000", "170921.700000", "170923.190000", "170924.680000", "170926.170000", "170927.660000", "170929.150000", "170930.640000", "170932.130000", "170933.620000", "170935.110000", "170936.600000", "170938.090000", "170939.580000", "170941.070000", "170942.560000", "170944.050000", "170945.540000", "170947.030000", "170948.520000", "170950.010000", "170951.500000", "170952.990000", "170954.480000", "170955.970000", "170957.460000", "170958.950000", "171000.440000", "171001.930000", "171003.420000", "171004.910000", "171006.400000", "171007.890000", "171009.380000", "171010.870000", "171012.360000", "171013.850000", "171015.340000", "171016.830000", "171018.320000", "171019.810000", "171021.300000", "171022.790000", "171024.280000", "171025.770000", "171027.260000", "171028.750000", "171030.240000", "171031.730000", "171033.220000", "171034.710000", "171036.200000", "171037.690000", "171039.180000", "171040.670000", "171042.160000", "171043.650000", "171045.140000", "171046.630000", "171048.120000", "171049.610000", "171051.100000", "171052.590000", "171054.080000", "171055.570000", "171057.060000", "171058.550000", "171100.040000", "171101.530000", "171103.020000", "171104.510000", "171106.000000", "171107.490000", "171108.980000", "171110.470000", "171111.960000", "171113.450000", "171114.940000", "171116.430000", "171117.920000", "171119.410000", "171120.900000", "171122.390000", "171123.880000", "171125.370000", "171126.860000", "171128.350000", "171129.840000", "171131.330000", "171132.820000", "171134.310000", "171135.800000", "171137.290000", "171138.780000", "171140.270000", "171141.760000", "171143.250000", "171144.740000", "171146.230000", "171147.720000", "171149.210000", "171150.700000", "171152.190000", "171153.680000", "171155.170000", "171156.660000", "171158.150000", "171159.640000", "171201.130000", "171202.620000", "171204.110000", "171205.600000", "171207.090000", "171208.580000", "171210.070000", "171211.560000", "171213.050000", "171214.540000", "171216.030000", "171217.520000", "171219.010000", "171220.500000", "171221.990000", "171223.480000", "171224.970000", "171226.460000", "171227.950000", "171229.440000", "171230.930000", "171232.420000", "171233.910000", "171235.400000", "171236.890000", "171238.380000", "171239.870000", "171241.360000", "171242.850000", "171244.340000", "171245.830000", "171247.320000", "171248.810000", "171250.300000", "171251.790000", "171253.280000", "171254.770000", "171256.260000", "171257.750000", "171259.240000", "171300.730000", "171302.220000", "171303.710000", "171305.200000", "171306.690000", "171308.180000", "171309.670000", "171311.160000", "171312.650000", "171314.140000", "171315.630000", "171317.120000", "171318.610000", "171320.100000", "171321.590000", "171323.080000", "171324.570000", "171326.060000", "171327.550000", "171329.040000", "171330.530000", "171332.020000", "171333.510000", "171335.000000", "171336.490000", "171337.980000", "171339.470000", "171340.960000", "171342.450000", "171343.940000", "171345.430000", "171346.920000", "171348.410000", "171349.900000", "171351.390000", "171352.880000", "171354.370000", "171355.860000", "171357.350000", "171358.840000", "171400.330000", "171401.820000", "171403.310000", "171404.800000", "171406.290000", "171407.780000", "171409.270000", "171410.760000", "171412.250000", "171413.740000", "171415.230000", "171416.720000", "171418.210000", "171419.700000", "171421.190000", "171422.680000", "171424.170000", "171425.660000", "171427.150000", "171428.640000", "171430.130000", "171431.620000", "171433.110000", "171434.600000", "171436.090000", "171437.580000", "171439.070000", "171440.560000", "171442.050000", "171443.540000", "171445.030000", "171446.520000", "171448.010000", "171449.500000", "171450.990000", "171452.480000", "171453.970000", "171455.460000", "171456.950000", "171458.440000", "171459.930000", "171501.420000", "171502.910000", "171504.400000", "171505.890000", "171507.380000", "171508.870000", "171510.360000", "171511.850000", "171513.340000", "171514.830000", "171516.320000", "171517.810000", "171519.300000", "171520.790000", "171522.280000", "171523.770000", "171525.260000", "171526.750000", "171528.240000", "171529.730000", "171531.220000", "171532.710000", "171534.200000", "171535.690000", "171537.180000", "171538.670000", "171540.160000", "171541.650000", "171543.140000", "171544.630000", "171546.120000", "171547.610000", "171549.100000", "171550.590000", "171552.080000", "171553.570000", "171555.060000", "171556.550000", "171558.040000", "171559.530000", "171601.020000", "171602.510000", "171604.000000", "171605.490000", "171606.980000", "171608.470000", "171609.960000", "171611.450000", "171612.940000", "171614.430000", "171615.920000", "171617.410000", "171618.900000", "171620.390000", "171621.880000", "171623.370000", "171624.860000", "171626.350000", "171627.840000", "171629.330000", "171630.820000", "171632.310000", "171633.800000", "171635.290000", "171636.780000", "171638.270000", "171639.760000", "171641.250000", "171642.740000", "171644.230000", "171645.720000", "171647.210000", "171648.700000", "171650.190000", "171651.680000", "171653.170000", "171654.660000", "171656.150000", "171657.640000", "171659.130000", "171700.620000", "171702.110000", "171703.600000", "171705.090000", "171706.580000", "171708.070000", "171709.560000", "171711.050000", "171712.540000", "171714.030000", "171715.520000", "171717.010000", "171718.500000", "171719.990000", "171721.480000", "171722.970000", "171724.460000", "171725.950000", "171727.440000", "171728.930000", "171730.420000", "171731.910000", "171733.400000", "171734.890000", "171736.380000", "171737.870000", "171739.360000", "171740.850000", "171742.340000", "171743.830000", "171745.320000", "171746.810000", "171748.300000", "171749.790000", "171751.280000", "171752.770000", "171754.260000", "171755.750000", "171757.240000", "171758.730000", "171800.220000", "171801.710000", "171803.200000", "171804.690000", "171806.180000", "171807.670000", "171809.160000", "171810.650000", "171812.140000", "171813.630000", "171815.120000", "171816.610000", "171818.100000", "171819.590000", "171821.080000", "171822.570000", "171824.060000", "171825.550000", "171827.040000", "171828.530000", "171830.020000", "171831.510000", "171833.000000", "171834.490000", "171835.980000", "171837.470000", "171838.960000", "171840.450000", "171841.940000", "171843.430000", "171844.920000", "171846.410000", "171847.900000", "171849.390000", "171850.880000"],
      "ContentTime": ["170836.361000", "170836.364000", "170836.367000", "170836.370000", "170836.372000", "170836.375000", "170836.378000", "170836.381000", "170836.384000", "170836.387000", "170836.389000", "170836.392000", "170836.405000", "170836.408000", "170836.411000", "170836.413000", "170836.416000", "170836.419000", "170836.432000", "170836.435000", "170836.437000", "170836.440000", "170836.443000", "170836.446000", "170836.449000", "170836.452000", "170836.454000", "170836.457000", "170836.460000", "170836.463000", "170836.465000", "170836.468000", "170836.471000", "170836.474000", "170836.477000", "170836.479000", "170836.482000", "170856.328000", "170856.331000", "170856.334000", "170856.336000", "170856.339000", "170856.342000", "170856.345000", "170856.348000", "170856.350000", "170856.353000", "170856.356000", "170856.359000", "170856.368000", "170856.371000", "170856.374000", "170856.376000", "170856.379000", "170856.382000", "170856.385000", "170856.388000", "170916.327000", "170916.330000", "170916.332000", "170916.335000", "170916.338000", "170916.341000", "170916.344000", "170916.346000", "170916.349000", "170916.352000", "170916.355000", "170916.358000", "170916.361000", "170916.365000", "170916.369000", "170916.372000", "170916.375000", "170916.378000", "170916.381000", "170916.384000", "170936.328000", "170936.331000", "170936.334000", "170936.337000", "170936.339000", "170936.342000", "170936.345000", "170936.348000", "170936.351000", "170936.353000", "170936.356000", "170936.359000", "170936.362000", "170936.364000", "170936.367000", "170936.370000", "170936.373000", "170936.376000", "170936.379000", "170936.381000", "170936.384000", "171016.328000", "171016.331000", "171016.334000", "171016.336000", "171016.339000", "171016.342000", "171016.345000", "171016.348000", "171016.351000", "171016.353000", "171016.356000", "171016.359000", "171016.362000", "171016.364000", "171016.367000", "171016.370000", "171016.373000", "171016.381000", "171016.384000", "171016.387000", "171016.390000", "171016.393000", "171016.396000", "171016.399000", "171016.401000", "171016.404000", "171016.407000", "171016.410000", "171016.412000", "171056.328000", "171056.331000", "171056.334000", "171056.336000", "171056.339000", "171056.342000", "171056.345000", "171056.348000", "171056.350000", "171056.353000", "171056.356000", "171056.359000", "171056.362000", "171056.364000", "171056.367000", "171056.370000", "171056.373000", "171056.376000", "171056.378000", "171056.381000", "171056.384000", "171056.387000", "171056.390000", "171056.393000", "171056.395000", "171056.398000", "171056.401000", "171136.327000", "171136.330000", "171136.333000", "171136.335000", "171136.338000", "171136.341000", "171136.344000", "171136.347000", "171136.350000", "171136.352000", "171136.355000", "171136.358000", "171136.361000", "171136.363000", "171136.366000", "171136.369000", "171136.372000", "171136.375000", "171136.378000", "171136.380000", "171136.383000", "171136.386000", "171136.389000", "171136.392000", "171136.394000", "171136.397000", "171136.400000", "171216.328000", "171216.331000", "171216.334000", "171216.337000", "171216.339000", "171216.342000", "171216.345000", "171216.348000", "171216.351000", "171216.354000", "171216.356000", "171216.359000", "171216.362000", "171216.365000", "171216.368000", "171216.370000", "171216.373000", "171216.376000", "171216.379000", "171216.399000", "171216.402000", "171216.405000", "171216.407000", "171216.410000", "171216.413000", "171216.416000", "171216.419000", "171256.328000", "171256.331000", "171256.334000", "171256.337000", "171256.340000", "171256.342000", "171256.345000", "171256.348000", "171256.351000", "171256.354000", "171256.356000", "171256.359000", "171256.362000", "171256.365000", "171256.368000", "171256.371000", "171256.373000", "171256.377000", "171256.380000", "171256.383000", "171256.386000", "171256.389000", "171256.392000", "171256.395000", "171256.398000", "171256.401000", "171336.328000", "171336.331000", "171336.334000", "171336.336000", "171336.339000", "171336.342000", "171336.345000", "171336.348000", "171336.350000", "171336.353000", "171336.376000", "171336.379000", "171336.382000", "171336.384000", "171336.387000", "171336.390000", "171336.393000", "171336.396000", "171336.399000", "171336.401000", "171336.404000", "171336.407000", "171336.410000", "171336.413000", "171336.416000", "171336.418000", "171336.421000", "171416.328000", "171416.331000", "171416.334000", "171416.336000", "171416.339000", "171416.342000", "171416.345000", "171416.348000", "171416.351000", "171416.353000", "171416.356000", "171416.359000", "171416.362000", "171416.365000", "171416.368000", "171416.370000", "171416.373000", "171416.376000", "171416.379000", "171416.382000", "171416.384000", "171416.387000", "171416.390000", "171416.393000", "171416.396000", "171416.399000", "171416.401000", "171436.328000", "171436.331000", "171436.334000", "171436.337000", "171436.339000", "171436.342000", "171436.345000", "171436.348000", "171436.351000", "171436.354000", "171436.356000", "171436.359000", "171436.362000", "171436.365000", "171516.328000", "171516.331000", "171516.334000", "171516.336000", "171516.339000", "171516.342000", "171516.345000", "171516.348000", "171516.351000", "171516.353000", "171516.356000", "171516.359000", "171516.362000", "171516.365000", "171516.368000", "171516.371000", "171516.373000", "171516.376000", "171516.379000", "171516.382000", "171516.385000", "171516.388000", "171516.390000", "171516.393000", "171516.396000", "171516.399000", "171556.328000", "171556.331000", "171556.334000", "171556.337000", "171556.339000", "171556.342000", "171556.345000", "171556.348000", "171556.351000", "171556.354000", "171556.356000", "171556.359000", "171556.362000", "171556.365000", "171556.368000", "171556.371000", "171556.373000", "171556.376000", "171556.379000", "171556.382000", "171556.385000", "171556.388000", "171556.390000", "171556.393000", "171556.396000", "171556.399000", "171556.402000", "171636.328000", "171636.331000", "171636.334000", "171636.337000", "171636.340000", "171636.343000", "171636.346000", "171636.348000", "171636.351000", "171636.354000", "171636.357000", "171636.360000", "171636.363000", "171636.365000", "171636.368000", "171636.371000", "171636.374000", "171636.377000", "171636.380000", "171636.382000", "171636.385000", "171636.388000", "171636.391000", "171636.394000", "171636.397000", "171636.399000", "171636.402000", "171716.328000", "171716.331000", "171716.334000", "171716.336000", "171716.339000", "171716.342000", "171716.355000", "171716.358000", "171716.367000", "171716.370000", "171716.373000", "171716.376000", "171716.379000", "171716.382000", "171716.384000", "171716.387000", "171716.390000", "171716.393000", "171716.396000", "171716.398000", "171716.401000", "171716.404000", "171716.407000", "171716.410000", "171716.412000", "171716.415000", "171716.418000", "171756.328000", "171756.331000", "171756.334000", "171756.337000", "171756.340000", "171756.342000", "171756.345000", "171756.348000", "171756.351000", "171756.354000", "171756.357000", "171756.359000", "171756.362000", "171756.365000", "171756.368000", "171756.371000", "171756.374000", "171756.376000", "171756.379000", "171756.382000", "171756.385000", "171756.388000", "171756.390000", "171756.393000", "171756.396000", "171756.399000", "171756.402000", "171836.327000", "171836.330000", "171836.333000", "171836.336000", "171836.339000", "171836.341000", "171836.344000", "171836.347000", "171836.350000", "171836.353000", "171836.356000", "171836.358000", "171836.361000", "171836.364000", "171836.367000", "171836.370000", "171836.373000", "171836.375000", "171836.378000", "171836.381000", "171836.384000", "171836.387000", "171836.389000", "171836.392000", "171836.395000", "171836.398000", "171836.401000", "171852.904000", "171852.908000", "171852.911000", "171852.921000", "171852.924000", "171852.927000", "171852.930000", "171852.934000", "171852.937000", "171852.940000", "171852.943000"],
