{
  "AcquisitionMatrixPE": 104,
  "AcquisitionNumber": 1,
  "AcquisitionTime": "19:17:21.597500",
  "BandwidthPerPixelPhaseEncode": 17.17,
  "BaseResolution": 104,
  "BodyPartExamined": "BRAIN",
  "CoilCombinationMethod": "Sum of Squares",
  "ConsistencyInfo": "N4_VE11C_LATEST_20160120",
  "ConversionSoftware": "dcm2niix",
  "ConversionSoftwareVersion": "v1.0.20220505",
  "DerivedVendorReportedEchoSpacing": 0.000560011,
  "DeviceSerialNumber": "167006",
  "DwellTime": 2.1e-06,
  "EchoTime": 0.037,
  "EchoTrainLength": 104,
  "EffectiveEchoSpacing": 0.000560011,
  "FlipAngle": 52,
  "HeudiconvVersion": "0.5.3.post811+g6206e14",
  "ImageComments": "Unaliased MB4/PE3/LB",
  "ImageOrientationPatientDICOM": [0.999749, -0.010129, -0.0199846, 0.00191933, 0.927413, -0.374033],
  "ImageOrientationText": "Tra>Cor(-22.0)>Sag(-1.3)",
  "ImageType": [
    "ORIGINAL",
    "PRIMARY",
    "M",
    "MB",
    "ND",
    "MOSAIC"
],
  "ImagingFrequency": 123.259,
  "InPlanePhaseEncodingDirectionDICOM": "COL",
  "InstitutionAddress": "Chemin Queen-Mary 4565,Montreal,District,CA,H3W 1W5",
  "InstitutionName": "IUGM",
  "InstitutionalDepartmentName": "Department",
  "MRAcquisitionType": "2D",
  "MagneticFieldStrength": 3,
  "Manufacturer": "Siemens",
  "ManufacturersModelName": "Prisma_fit",
  "MatrixCoilMode": "SENSE",
  "Modality": "MR",
  "MultibandAccelerationFactor": 4,
  "PartialFourier": 1,
  "PatientPosition": "HFS",
  "PercentPhaseFOV": 100,
  "PercentSampling": 100,
  "PhaseEncodingDirection": "j",
  "PhaseEncodingSteps": 104,
  "PhaseResolution": 1,
  "PixelBandwidth": 2290,
  "ProcedureStepDescription": "video^friends",
  "ProtocolName": "func_task-friends-s06e10b",
  "PulseSequenceDetails": "%CustomerSeq%\\cmrr_mbep2d_bold",
  "ReceiveCoilActiveElements": "HC1-7;NC1,2",
  "ReceiveCoilName": "HeadNeck_64",
  "ReconMatrixPE": 104,
  "RepetitionTime": 1.49,
  "SAR": 0.0780075,
  "ScanOptions": "FS",
  "ScanningSequence": "EP",
  "SequenceName": "epfid2d1_104",
  "SequenceVariant": "SK\\SS",
  "SeriesDescription": "func_task-friends-s06e10b",
  "SeriesNumber": 12,
  "ShimSetting": [607, -7264, -8817, 418, 15, -355, -9, 33],
  "SliceThickness": 2,
  "SliceTiming": [0, 0.7825, 0.0975, 0.8825, 0.195, 0.98, 0.2925, 1.0775, 0.3925, 1.175, 0.49, 1.2725, 0.5875, 1.3725, 0.685, 0, 0.7825, 0.0975, 0.8825, 0.195, 0.98, 0.2925, 1.0775, 0.3925, 1.175, 0.49, 1.2725, 0.5875, 1.3725, 0.685, 0, 0.7825, 0.0975, 0.8825, 0.195, 0.98, 0.2925, 1.0775, 0.3925, 1.175, 0.49, 1.2725, 0.5875, 1.3725, 0.685, 0, 0.7825, 0.0975, 0.8825, 0.195, 0.98, 0.2925, 1.0775, 0.3925, 1.175, 0.49, 1.2725, 0.5875, 1.3725, 0.685],
  "SoftwareVersions": "syngo MR E11",
  "SpacingBetweenSlices": 2,
  "StationName": "MRC35049",
  "TaskName": "s06e10b",
  "TotalReadoutTime": 0.0576811,
  "TxRefAmp": 313.6,
  "WipMemBlock": "c2872f0a-fe5b-4d20-9413-aac5c24acfbe||Sequence: R017 ve11c/master r/75a17815+; Jun 28 2022 16:32:11 by eja",
  "dcmmeta_affine": [
    [-1.9994980096817017, 0.003838653676211834, -0.044645193964242935, 100.62249755859375],
    [0.020257992669939995, 1.85482656955719, -0.7478022575378418, -71.18179321289062],
    [-0.039969269186258316, 0.748066782951355, 1.8543998003005981, -59.77779769897461],
    [0.0, 0.0, 0.0, 1.0]
],
  "dcmmeta_reorient_transform": [
    [0.0, -1.0, 0.0, 103.0],
    [1.0, 0.0, 0.0, 0.0],
    [0.0, 0.0, 1.0, 0.0],
    [0.0, 0.0, 0.0, 1.0]
],
  "dcmmeta_shape": [104, 104, 60, 500],
  "dcmmeta_slice_dim": 2,
  "dcmmeta_version": 0.6,
  "global": {
    "const": {
      "AcquisitionMatrix": [104, 0, 0, 104],
      "AngioFlag": "N",
      "BitsAllocated": 16,
      "BitsStored": 16,
      "BodyPartExamined": "BRAIN",
      "Columns": 832,
      "EchoNumbers": 1,
      "EchoTime": 37.0,
      "EchoTrainLength": 104,
      "FlipAngle": 52.0,
      "HighBit": 15,
      "ImageOrientationPatient": [0.99974897741547, -0.010128996004, -0.0199846340138, 0.00191932680665, 0.92741325668827, -0.374033377526],
      "ImagePositionPatient": [-830.2324066305, -787.64828023415, 304.118191671],
      "ImageType": [
        "ORIGINAL",
        "PRIMARY",
        "M",
        "MB",
        "ND",
        "MOSAIC"
],
      "ImagedNucleus": "1H",
      "ImagingFrequency": 123.258781,
      "InPlanePhaseEncodingDirection": "COL",
      "MRAcquisitionType": "2D",
      "MagneticFieldStrength": 3.0,
      "Manufacturer": "SIEMENS",
      "ManufacturerModelName": "Prisma_fit",
      "Modality": "MR",
      "NumberOfAverages": 1.0,
      "NumberOfPhaseEncodingSteps": 104,
      "PercentPhaseFieldOfView": 100.0,
      "PercentSampling": 100.0,
      "PerformedProcedureStepStartTime": "185909.609000",
      "PhotometricInterpretation": "MONOCHROME2",
      "PixelBandwidth": 2290.0,
      "PixelRepresentation": 0,
      "PixelSpacing": [2.0, 2.0],
      "ProtocolName": "func_task-friends-s06e10b",
      "RepetitionTime": 1490.0,
      "Rows": 832,
      "SAR": 0.07800750055477,
      "SamplesPerPixel": 1,
      "ScanOptions": "FS",
      "ScanningSequence": "EP",
      "SequenceName": "epfid2d1_104",
      "SequenceVariant": [
        "SK",
        "SS"
],
      "SeriesDescription": "func_task-friends-s06e10b",
      "SeriesNumber": 12,
      "SeriesTime": "191837.389000",
      "SliceLocation": -31.057169615906,
      "SliceThickness": 2.0,
      "SmallestImagePixelValue": 0,
      "SoftwareVersions": "syngo MR E11",
      "SpacingBetweenSlices": 2.000000028654,
      "SpecificCharacterSet": "ISO_IR 100",
      "StudyID": "1",
      "StudyTime": "185909.524000",
      "TransmitCoilName": "Body",
      "VariableFlipAngleFlag": "N",
      "WindowCenterWidthExplanation": "Algo1",
      "dBdt": 0.0},
    "slices": {}
  },
  "time": {
    "samples": {
      "AcquisitionNumber": [1, 2, 3, 4, 5, 6, 7, 8, 9, 10, 11, 12, 13, 14, 15, 16, 17, 18, 19, 20, 21, 22, 23, 24, 25, 26, 27, 28, 29, 30, 31, 32, 33, 34, 35, 36, 37, 38, 39, 40, 41, 42, 43, 44, 45, 46, 47, 48, 49, 50, 51, 52, 53, 54, 55, 56, 57, 58, 59, 60, 61, 62, 63, 64, 65, 66, 67, 68, 69, 70, 71, 72, 73, 74, 75, 76, 77, 78, 79, 80, 81, 82, 83, 84, 85, 86, 87, 88, 89, 90, 91, 92, 93, 94, 95, 96, 97, 98, 99, 100, 101, 102, 103, 104, 105, 106, 107, 108, 109, 110, 111, 112, 113, 114, 115, 116, 117, 118, 119, 120, 121, 122, 123, 124, 125, 126, 127, 128, 129, 130, 131, 132, 133, 134, 135, 136, 137, 138, 139, 140, 141, 142, 143, 144, 145, 146, 147, 148, 149, 150, 151, 152, 153, 154, 155, 156, 157, 158, 159, 160, 161, 162, 163, 164, 165, 166, 167, 168, 169, 170, 171, 172, 173, 174, 175, 176, 177, 178, 179, 180, 181, 182, 183, 184, 185, 186, 187, 188, 189, 190, 191, 192, 193, 194, 195, 196, 197, 198, 199, 200, 201, 202, 203, 204, 205, 206, 207, 208, 209, 210, 211, 212, 213, 214, 215, 216, 217, 218, 219, 220, 221, 222, 223, 224, 225, 226, 227, 228, 229, 230, 231, 232, 233, 234, 235, 236, 237, 238, 239, 240, 241, 242, 243, 244, 245, 246, 247, 248, 249, 250, 251, 252, 253, 254, 255, 256, 257, 258, 259, 260, 261, 262, 263, 264, 265, 266, 267, 268, 269, 270, 271, 272, 273, 274, 275, 276, 277, 278, 279, 280, 281, 282, 283, 284, 285, 286, 287, 288, 289, 290, 291, 292, 293, 294, 295, 296, 297, 298, 299, 300, 301, 302, 303, 304, 305, 306, 307, 308, 309, 310, 311, 312, 313, 314, 315, 316, 317, 318, 319, 320, 321, 322, 323, 324, 325, 326, 327, 328, 329, 330, 331, 332, 333, 334, 335, 336, 337, 338, 339, 340, 341, 342, 343, 344, 345, 346, 347, 348, 349, 350, 351, 352, 353, 354, 355, 356, 357, 358, 359, 360, 361, 362, 363, 364, 365, 366, 367, 368, 369, 370, 371, 372, 373, 374, 375, 376, 377, 378, 379, 380, 381, 382, 383, 384, 385, 386, 387, 388, 389, 390, 391, 392, 393, 394, 395, 396, 397, 398, 399, 400, 401, 402, 403, 404, 405, 406, 407, 408, 409, 410, 411, 412, 413, 414, 415, 416, 417, 418, 419, 420, 421, 422, 423, 424, 425, 426, 427, 428, 429, 430, 431, 432, 433, 434, 435, 436, 437, 438, 439, 440, 441, 442, 443, 444, 445, 446, 447, 448, 449, 450, 451, 452, 453, 454, 455, 456, 457, 458, 459, 460, 461, 462, 463, 464, 465, 466, 467, 468, 469, 470, 471, 472, 473, 474, 475, 476, 477, 478, 479, 480, 481, 482, 483, 484, 485, 486, 487, 488, 489, 490, 491, 492, 493, 494, 495, 496, 497, 498, 499, 500],
      "AcquisitionTime": ["191721.597500", "191723.087500", "191724.577500", "191726.067500", "191727.557500", "191729.047500", "191730.537500", "191732.027500", "191733.517500", "191735.007500", "191736.497500", "191737.987500", "191739.477500", "191740.967500", "191742.457500", "191743.947500", "191745.437500", "191746.927500", "191748.417500", "191749.907500", "191751.397500", "191752.887500", "191754.377500", "191755.867500", "191757.357500", "191758.847500", "191800.337500", "191801.827500", "191803.317500", "191804.807500", "191806.297500", "191807.787500", "191809.277500", "191810.767500", "191812.257500", "191813.747500", "191815.237500", "191816.727500", "191818.217500", "191819.707500", "191821.197500", "191822.687500", "191824.177500", "191825.667500", "191827.157500", "191828.647500", "191830.137500", "191831.627500", "191833.117500", "191834.607500", "191836.097500", "191837.587500", "191839.077500", "191840.567500", "191842.057500", "191843.547500", "191845.037500", "191846.527500", "191848.017500", "191849.507500", "191850.997500", "191852.487500", "191853.977500", "191855.467500", "191856.957500", "191858.447500", "191859.937500", "191901.427500", "191902.917500", "191904.407500", "191905.897500", "191907.387500", "191908.877500", "191910.367500", "191911.857500", "191913.347500", "191914.837500", "191916.327500", "191917.817500", "191919.307500", "191920.797500", "191922.287500", "191923.777500", "191925.267500", "191926.757500", "191928.247500", "191929.737500", "191931.227500", "191932.717500", "191934.207500", "191935.697500", "191937.187500", "191938.677500", "191940.167500", "191941.657500", "191943.147500", "191944.637500", "191946.127500", "191947.617500", "191949.107500", "191950.597500", "191952.087500", "191953.577500", "191955.067500", "191956.557500", "191958.047500", "191959.537500", "192001.027500", "192002.517500", "192004.007500", "192005.497500", "192006.987500", "192008.477500", "192009.967500", "192011.457500", "192012.947500", "192014.437500", "192015.927500", "192017.417500", "192018.907500", "192020.397500", "192021.887500", "192023.377500", "192024.867500", "192026.357500", "192027.847500", "192029.337500", "192030.827500", "192032.317500", "192033.807500", "192035.297500", "192036.787500", "192038.277500", "192039.767500", "192041.257500", "192042.747500", "192044.237500", "192045.727500", "192047.217500", "192048.707500", "192050.197500", "192051.687500", "192053.177500", "192054.667500", "192056.157500", "192057.647500", "192059.137500", "192100.627500", "192102.117500", "192103.607500", "192105.097500", "192106.587500", "192108.077500", "192109.567500", "192111.057500", "192112.547500", "192114.037500", "192115.527500", "192117.017500", "192118.507500", "192119.997500", "192121.487500", "192122.977500", "192124.467500", "192125.957500", "192127.447500", "192128.937500", "192130.427500", "192131.917500", "192133.407500", "192134.897500", "192136.387500", "192137.877500", "192139.367500", "192140.857500", "192142.347500", "192143.837500", "192145.327500", "192146.817500", "192148.307500", "192149.797500", "192151.287500", "192152.777500", "192154.267500", "192155.757500", "192157.247500", "192158.737500", "192200.227500", "192201.717500", "192203.207500", "192204.697500", "192206.187500", "192207.677500", "192209.167500", "192210.657500", "192212.147500", "192213.637500", "192215.127500", "192216.617500", "192218.107500", "192219.597500", "192221.087500", "192222.577500", "192224.067500", "192225.557500", "192227.047500", "192228.537500", "192230.027500", "192231.517500", "192233.007500", "192234.497500", "192235.987500", "192237.477500", "192238.967500", "192240.457500", "192241.947500", "192243.437500", "192244.927500", "192246.417500", "192247.907500", "192249.397500", "192250.887500", "192252.377500", "192253.867500", "192255.357500", "192256.847500", "192258.337500", "192259.827500", "192301.317500", "192302.807500", "192304.297500", "192305.787500", "192307.277500", "192308.767500", "192310.257500", "192311.747500", "192313.237500", "192314.727500", "192316.217500", "192317.707500", "192319.197500", "192320.687500", "192322.177500", "192323.667500", "192325.157500", "192326.647500", "192328.137500", "192329.627500", "192331.117500", "192332.607500", "192334.097500", "192335.587500", "192337.077500", "192338.567500", "192340.057500", "192341.547500", "192343.037500", "192344.527500", "192346.017500", "192347.507500", "192348.997500", "192350.487500", "192351.977500", "192353.467500", "192354.957500", "192356.447500", "192357.937500", "192359.427500", "192400.917500", "192402.407500", "192403.897500", "192405.387500", "192406.877500", "192408.367500", "192409.857500", "192411.347500", "192412.837500", "192414.327500", "192415.817500", "192417.307500", "192418.797500", "192420.287500", "192421.777500", "192423.267500", "192424.757500", "192426.247500", "192427.737500", "192429.227500", "192430.717500", "192432.207500", "192433.697500", "192435.187500", "192436.677500", "192438.167500", "192439.657500", "192441.147500", "192442.637500", "192444.127500", "192445.617500", "192447.107500", "192448.597500", "192450.087500", "192451.577500", "192453.067500", "192454.557500", "192456.047500", "192457.537500", "192459.027500", "192500.517500", "192502.007500", "192503.497500", "192504.987500", "192506.477500", "192507.967500", "192509.457500", "192510.947500", "192512.437500", "192513.927500", "192515.417500", "192516.907500", "192518.397500", "192519.887500", "192521.377500", "192522.867500", "192524.357500", "192525.847500", "192527.337500", "192528.827500", "192530.317500", "192531.807500", "192533.297500", "192534.787500", "192536.277500", "192537.767500", "192539.257500", "192540.747500", "192542.237500", "192543.727500", "192545.217500", "192546.707500", "192548.197500", "192549.687500", "192551.177500", "192552.667500", "192554.157500", "192555.647500", "192557.137500", "192558.627500", "192600.117500", "192601.607500", "192603.097500", "192604.587500", "192606.077500", "192607.567500", "192609.057500", "192610.547500", "192612.037500", "192613.527500", "192615.017500", "192616.507500", "192617.997500", "192619.487500", "192620.977500", "192622.467500", "192623.957500", "192625.447500", "192626.937500", "192628.427500", "192629.917500", "192631.407500", "192632.897500", "192634.387500", "192635.877500", "192637.367500", "192638.857500", "192640.347500", "192641.837500", "192643.327500", "192644.817500", "192646.307500", "192647.797500", "192649.287500", "192650.777500", "192652.267500", "192653.757500", "192655.247500", "192656.737500", "192658.227500", "192659.717500", "192701.207500", "192702.697500", "192704.187500", "192705.677500", "192707.167500", "192708.657500", "192710.147500", "192711.637500", "192713.127500", "192714.617500", "192716.107500", "192717.597500", "192719.087500", "192720.577500", "192722.067500", "192723.557500", "192725.047500", "192726.537500", "192728.027500", "192729.517500", "192731.007500", "192732.497500", "192733.987500", "192735.477500", "192736.967500", "192738.457500", "192739.947500", "192741.437500", "192742.927500", "192744.417500", "192745.907500", "192747.397500", "192748.887500", "192750.377500", "192751.867500", "192753.357500", "192754.847500", "192756.337500", "192757.827500", "192759.317500", "192800.807500", "192802.297500", "192803.787500", "192805.277500", "192806.767500", "192808.257500", "192809.747500", "192811.237500", "192812.727500", "192814.217500", "192815.707500", "192817.197500", "192818.687500", "192820.177500", "192821.667500", "192823.157500", "192824.647500", "192826.137500", "192827.627500", "192829.117500", "192830.607500", "192832.097500", "192833.587500", "192835.077500", "192836.567500", "192838.057500", "192839.547500", "192841.037500", "192842.527500", "192844.017500", "192845.507500", "192846.997500", "192848.487500", "192849.977500", "192851.467500", "192852.957500", "192854.447500", "192855.937500", "192857.427500", "192858.917500", "192900.407500", "192901.897500", "192903.387500", "192904.877500", "192906.367500", "192907.857500", "192909.347500", "192910.837500", "192912.327500", "192913.817500", "192915.307500", "192916.797500", "192918.287500", "192919.777500", "192921.267500", "192922.757500", "192924.247500", "192925.737500", "192927.227500", "192928.717500", "192930.207500", "192931.697500", "192933.187500", "192934.677500", "192936.167500", "192937.657500", "192939.147500", "192940.637500", "192942.127500", "192943.617500", "192945.107500"],
      "ContentTime": ["191837.392000", "191837.395000", "191837.398000", "191837.401000", "191837.404000", "191837.407000", "191837.410000", "191837.420000", "191837.423000", "191837.435000", "191837.438000", "191837.441000", "191837.444000", "191837.446000", "191837.449000", "191837.452000", "191837.455000", "191837.458000", "191837.461000", "191837.464000", "191837.467000", "191837.469000", "191837.472000", "191837.475000", "191837.478000", "191837.481000", "191857.369000", "191857.372000", "191857.375000", "191857.378000", "191857.380000", "191857.383000", "191857.386000", "191857.389000", "191857.392000", "191857.395000", "191857.398000", "191857.407000", "191857.410000", "191857.413000", "191857.416000", "191857.419000", "191857.422000", "191857.425000", "191857.428000", "191857.431000", "191917.369000", "191917.372000", "191917.375000", "191917.378000", "191917.388000", "191917.391000", "191917.393000", "191917.396000", "191917.399000", "191917.402000", "191917.405000", "191917.408000", "191917.411000", "191917.414000", "191917.416000", "191917.419000", "191917.422000", "191917.425000", "191917.428000", "191917.431000", "191937.369000", "191937.372000", "191937.375000", "191937.378000", "191937.381000", "191937.383000", "191937.386000", "191937.389000", "191937.392000", "191937.395000", "191937.404000", "191937.407000", "191937.410000", "191937.413000", "191937.416000", "191937.419000", "191937.422000", "191937.425000", "191937.427000", "191937.430000", "192017.370000", "192017.373000", "192017.376000", "192017.379000", "192017.382000", "192017.384000", "192017.387000", "192017.390000", "192017.393000", "192017.396000", "192017.399000", "192017.402000", "192017.405000", "192017.408000", "192017.410000", "192017.413000", "192017.416000", "192017.419000", "192017.422000", "192017.425000", "192017.428000", "192017.431000", "192017.433000", "192017.436000", "192017.439000", "192017.442000", "192017.445000", "192017.448000", "192017.451000", "192017.454000", "192017.457000", "192057.369000", "192057.372000", "192057.375000", "192057.378000", "192057.381000", "192057.384000", "192057.386000", "192057.389000", "192057.392000", "192057.395000", "192057.398000", "192057.401000", "192057.404000", "192057.407000", "192057.409000", "192057.412000", "192057.415000", "192057.418000", "192057.421000", "192057.424000", "192057.427000", "192057.430000", "192057.433000", "192057.435000", "192057.438000", "192057.441000", "192057.444000", "192117.369000", "192117.372000", "192117.375000", "192117.378000", "192117.381000", "192117.384000", "192117.387000", "192117.390000", "192117.393000", "192117.395000", "192117.398000", "192117.401000", "192117.404000", "192157.369000", "192157.372000", "192157.375000", "192157.378000", "192157.381000", "192157.383000", "192157.386000", "192157.389000", "192157.392000", "192157.395000", "192157.398000", "192157.401000", "192157.404000", "192157.407000", "192157.410000", "192157.412000", "192157.415000", "192157.418000", "192157.421000", "192157.424000", "192157.427000", "192157.430000", "192157.433000", "192157.436000", "192157.438000", "192157.449000", "192157.452000", "192237.369000", "192237.372000", "192237.375000", "192237.378000", "192237.381000", "192237.384000", "192237.386000", "192237.389000", "192237.392000", "192237.395000", "192237.398000", "192237.401000", "192237.404000", "192237.407000", "192237.410000", "192237.413000", "192237.416000", "192237.418000", "192237.421000", "192237.424000", "192237.427000", "192237.430000", "192237.433000", "192237.436000", "192237.439000", "192237.442000", "192237.445000", "192317.369000", "192317.372000", "192317.375000", "192317.378000", "192317.380000", "192317.383000", "192317.386000", "192317.389000", "192317.392000", "192317.395000", "192317.398000", "192317.401000", "192317.404000", "192317.407000", "192317.415000", "192317.418000", "192317.420000", "192317.423000", "192317.426000", "192317.429000", "192317.432000", "192317.435000", "192317.438000", "192317.441000", "192317.444000", "192317.447000", "192317.450000", "192357.369000", "192357.372000", "192357.375000", "192357.378000", "192357.381000", "192357.384000", "192357.387000", "192357.390000", "192357.392000", "192357.395000", "192357.398000", "192357.401000", "192357.404000", "192357.407000", "192357.410000", "192357.413000", "192357.416000", "192357.419000", "192357.430000", "192357.433000", "192357.436000", "192357.439000", "192357.442000", "192357.444000", "192357.447000", "192357.450000", "192437.369000", "192437.372000", "192437.375000", "192437.378000", "192437.381000", "192437.383000", "192437.386000", "192437.389000", "192437.392000", "192437.395000", "192437.398000", "192437.401000", "192437.404000", "192437.407000", "192437.410000", "192437.412000", "192437.415000", "192437.418000", "192437.421000", "192437.424000", "192437.427000", "192437.430000", "192437.433000", "192437.436000", "192437.438000", "192437.441000", "192437.444000", "192517.369000", "192517.372000", "192517.375000", "192517.378000", "192517.381000", "192517.384000", "192517.387000", "192517.389000", "192517.392000", "192517.395000", "192517.398000", "192517.401000", "192517.404000", "192517.407000", "192517.410000", "192517.413000", "192517.416000", "192517.418000", "192517.421000", "192517.424000", "192517.427000", "192517.430000", "192517.433000", "192517.436000", "192517.439000", "192517.442000", "192517.445000", "192557.369000", "192557.372000", "192557.375000", "192557.378000", "192557.381000", "192557.384000", "192557.387000", "192557.389000", "192557.392000", "192557.395000", "192557.398000", "192557.401000", "192557.404000", "192557.407000", "192557.410000", "192557.413000", "192557.416000", "192557.419000", "192557.422000", "192557.425000", "192557.427000", "192557.430000", "192557.433000", "192557.436000", "192557.439000", "192557.442000", "192557.445000", "192637.369000", "192637.372000", "192637.375000", "192637.378000", "192637.381000", "192637.384000", "192637.387000", "192637.390000", "192637.393000", "192637.396000", "192637.398000", "192637.401000", "192637.404000", "192637.407000", "192637.410000", "192637.413000", "192637.416000", "192637.419000", "192637.422000", "192637.425000", "192637.444000", "192637.447000", "192637.450000", "192637.452000", "192637.455000", "192637.458000", "192637.461000", "192717.369000", "192717.372000", "192717.375000", "192717.378000", "192717.381000", "192717.384000", "192717.387000", "192717.390000", "192717.392000", "192717.395000", "192717.398000", "192717.401000", "192717.404000", "192717.407000", "192717.410000", "192717.413000", "192717.416000", "192717.419000", "192717.421000", "192717.424000", "192717.427000", "192717.430000", "192717.433000", "192717.436000", "192717.439000", "192717.442000", "192717.445000", "192757.369000", "192757.381000", "192757.384000", "192757.387000", "192757.390000", "192757.398000", "192757.401000", "192757.404000", "192757.407000", "192757.410000", "192757.413000", "192757.416000", "192757.419000", "192757.422000", "192757.425000", "192757.427000", "192757.430000", "192757.433000", "192757.436000", "192757.439000", "192757.442000", "192757.445000", "192757.448000", "192757.451000", "192757.454000", "192757.456000", "192757.459000", "192837.369000", "192837.372000", "192837.379000", "192837.382000", "192837.385000", "192837.388000", "192837.391000", "192837.394000", "192837.397000", "192837.400000", "192837.403000", "192837.406000", "192837.409000", "192837.412000", "192837.415000", "192837.418000", "192837.421000", "192837.424000", "192837.427000", "192837.430000", "192837.433000", "192837.436000", "192837.439000", "192837.442000", "192837.444000", "192837.448000", "192917.369000", "192917.372000", "192917.375000", "192917.378000", "192917.381000", "192917.384000", "192917.387000", "192917.390000", "192917.393000", "192917.396000", "192917.399000", "192917.402000", "192917.405000", "192917.407000", "192917.411000", "192917.413000", "192917.416000", "192917.419000", "192917.422000", "192917.425000", "192917.428000", "192917.431000", "192917.434000", "192917.437000", "192917.446000", "192917.449000", "192917.451000", "192947.661000", "192947.664000", "192947.667000", "192947.670000", "192947.673000", "192947.676000", "192947.679000", "192947.682000", "192947.685000", "192947.688000", "192947.691000", "192947.694000", "192947.696000", "192947.699000", "192947.702000", "192947.705000", "192947.708000", "192947.711000", "192947.714000", "192947.717000", "192947.720000"],
