{
  "AcquisitionMatrixPE": 104,
  "AcquisitionNumber": 1,
  "AcquisitionTime": "19:31:12.490000",
  "BandwidthPerPixelPhaseEncode": 17.17,
  "BaseResolution": 104,
  "BodyPartExamined": "BRAIN",
  "CoilCombinationMethod": "Sum of Squares",
  "ConsistencyInfo": "N4_VE11C_LATEST_20160120",
  "ConversionSoftware": "dcm2niix",
  "ConversionSoftwareVersion": "v1.0.20220505",
  "DerivedVendorReportedEchoSpacing": 0.000560011,
  "DeviceSerialNumber": "167006",
  "DwellTime": 2.1e-06,
  "EchoTime": 0.037,
  "EchoTrainLength": 104,
  "EffectiveEchoSpacing": 0.000560011,
  "FlipAngle": 52,
  "HeudiconvVersion": "0.5.3.post811+g6206e14",
  "ImageComments": "Unaliased MB4/PE3/LB",
  "ImageOrientationPatientDICOM": [0.999749, -0.010129, -0.0199846, 0.00191933, 0.927413, -0.374033],
  "ImageOrientationText": "Tra>Cor(-22.0)>Sag(-1.3)",
  "ImageType": [
    "ORIGINAL",
    "PRIMARY",
    "M",
    "MB",
    "ND",
    "MOSAIC"
],
  "ImagingFrequency": 123.259,
  "InPlanePhaseEncodingDirectionDICOM": "COL",
  "InstitutionAddress": "Chemin Queen-Mary 4565,Montreal,District,CA,H3W 1W5",
  "InstitutionName": "IUGM",
  "InstitutionalDepartmentName": "Department",
  "MRAcquisitionType": "2D",
  "MagneticFieldStrength": 3,
  "Manufacturer": "Siemens",
  "ManufacturersModelName": "Prisma_fit",
  "MatrixCoilMode": "SENSE",
  "Modality": "MR",
  "MultibandAccelerationFactor": 4,
  "PartialFourier": 1,
  "PatientPosition": "HFS",
  "PercentPhaseFOV": 100,
  "PercentSampling": 100,
  "PhaseEncodingDirection": "j",
  "PhaseEncodingSteps": 104,
  "PhaseResolution": 1,
  "PixelBandwidth": 2290,
  "ProcedureStepDescription": "video^friends",
  "ProtocolName": "func_task-friends-s06e11a",
  "PulseSequenceDetails": "%CustomerSeq%\\cmrr_mbep2d_bold",
  "ReceiveCoilActiveElements": "HC1-7;NC1,2",
  "ReceiveCoilName": "HeadNeck_64",
  "ReconMatrixPE": 104,
  "RepetitionTime": 1.49,
  "SAR": 0.0780075,
  "ScanOptions": "FS",
  "ScanningSequence": "EP",
  "SequenceName": "epfid2d1_104",
  "SequenceVariant": "SK\\SS",
  "SeriesDescription": "func_task-friends-s06e11a",
  "SeriesNumber": 14,
  "ShimSetting": [607, -7264, -8817, 418, 15, -355, -9, 33],
  "SliceThickness": 2,
  "SliceTiming": [0, 0.7825, 0.0975, 0.88, 0.195, 0.98, 0.2925, 1.0775, 0.39, 1.175, 0.49, 1.2725, 0.5875, 1.37, 0.685, 0, 0.7825, 0.0975, 0.88, 0.195, 0.98, 0.2925, 1.0775, 0.39, 1.175, 0.49, 1.2725, 0.5875, 1.37, 0.685, 0, 0.7825, 0.0975, 0.88, 0.195, 0.98, 0.2925, 1.0775, 0.39, 1.175, 0.49, 1.2725, 0.5875, 1.37, 0.685, 0, 0.7825, 0.0975, 0.88, 0.195, 0.98, 0.2925, 1.0775, 0.39, 1.175, 0.49, 1.2725, 0.5875, 1.37, 0.685],
  "SoftwareVersions": "syngo MR E11",
  "SpacingBetweenSlices": 2,
  "StationName": "MRC35049",
  "TaskName": "s06e11a",
  "TotalReadoutTime": 0.0576811,
  "TxRefAmp": 313.6,
  "WipMemBlock": "05d83932-7728-4547-974d-c73ba8d5ba2e||Sequence: R017 ve11c/master r/75a17815+; Jun 28 2022 16:32:11 by eja",
  "dcmmeta_affine": [
    [-1.9994980096817017, 0.003838653676211834, -0.044645193964242935, 100.62249755859375],
    [0.020257992669939995, 1.85482656955719, -0.7478022575378418, -71.18179321289062],
    [-0.039969269186258316, 0.748066782951355, 1.8543998003005981, -59.77779769897461],
    [0.0, 0.0, 0.0, 1.0]
],
  "dcmmeta_reorient_transform": [
    [0.0, -1.0, 0.0, 103.0],
    [1.0, 0.0, 0.0, 0.0],
    [0.0, 0.0, 1.0, 0.0],
    [0.0, 0.0, 0.0, 1.0]
],
  "dcmmeta_shape": [104, 104, 60, 450],
  "dcmmeta_slice_dim": 2,
  "dcmmeta_version": 0.6,
  "global": {
    "const": {
      "AcquisitionMatrix": [104, 0, 0, 104],
      "AngioFlag": "N",
      "BitsAllocated": 16,
      "BitsStored": 16,
      "BodyPartExamined": "BRAIN",
      "Columns": 832,
      "EchoNumbers": 1,
      "EchoTime": 37.0,
      "EchoTrainLength": 104,
      "FlipAngle": 52.0,
      "HighBit": 15,
      "ImageOrientationPatient": [0.99974897741547, -0.010128996004, -0.0199846340138, 0.00191932680665, 0.92741325668827, -0.374033377526],
      "ImagePositionPatient": [-830.2324066305, -787.64828023415, 304.118191671],
      "ImageType": [
        "ORIGINAL",
        "PRIMARY",
        "M",
        "MB",
        "ND",
        "MOSAIC"
],
      "ImagedNucleus": "1H",
      "ImagingFrequency": 123.258783,
      "InPlanePhaseEncodingDirection": "COL",
      "MRAcquisitionType": "2D",
      "MagneticFieldStrength": 3.0,
      "Manufacturer": "SIEMENS",
      "ManufacturerModelName": "Prisma_fit",
      "Modality": "MR",
      "NumberOfAverages": 1.0,
      "NumberOfPhaseEncodingSteps": 104,
      "PercentPhaseFieldOfView": 100.0,
      "PercentSampling": 100.0,
      "PerformedProcedureStepStartTime": "185909.609000",
      "PhotometricInterpretation": "MONOCHROME2",
      "PixelBandwidth": 2290.0,
      "PixelRepresentation": 0,
      "PixelSpacing": [2.0, 2.0],
      "ProtocolName": "func_task-friends-s06e11a",
      "RepetitionTime": 1490.0,
      "Rows": 832,
      "SAR": 0.07800750164102,
      "SamplesPerPixel": 1,
      "ScanOptions": "FS",
      "ScanningSequence": "EP",
      "SequenceName": "epfid2d1_104",
      "SequenceVariant": [
        "SK",
        "SS"
],
      "SeriesDescription": "func_task-friends-s06e11a",
      "SeriesNumber": 14,
      "SeriesTime": "193219.995000",
      "SliceLocation": -31.057169615906,
      "SliceThickness": 2.0,
      "SmallestImagePixelValue": 0,
      "SoftwareVersions": "syngo MR E11",
      "SpacingBetweenSlices": 2.000000028654,
      "SpecificCharacterSet": "ISO_IR 100",
      "StudyID": "1",
      "StudyTime": "185909.524000",
      "TransmitCoilName": "Body",
      "VariableFlipAngleFlag": "N",
      "WindowCenterWidthExplanation": "Algo1",
      "dBdt": 0.0},
    "slices": {}
  },
  "time": {
    "samples": {
      "AcquisitionNumber": [1, 2, 3, 4, 5, 6, 7, 8, 9, 10, 11, 12, 13, 14, 15, 16, 17, 18, 19, 20, 21, 22, 23, 24, 25, 26, 27, 28, 29, 30, 31, 32, 33, 34, 35, 36, 37, 38, 39, 40, 41, 42, 43, 44, 45, 46, 47, 48, 49, 50, 51, 52, 53, 54, 55, 56, 57, 58, 59, 60, 61, 62, 63, 64, 65, 66, 67, 68, 69, 70, 71, 72, 73, 74, 75, 76, 77, 78, 79, 80, 81, 82, 83, 84, 85, 86, 87, 88, 89, 90, 91, 92, 93, 94, 95, 96, 97, 98, 99, 100, 101, 102, 103, 104, 105, 106, 107, 108, 109, 110, 111, 112, 113, 114, 115, 116, 117, 118, 119, 120, 121, 122, 123, 124, 125, 126, 127, 128, 129, 130, 131, 132, 133, 134, 135, 136, 137, 138, 139, 140, 141, 142, 143, 144, 145, 146, 147, 148, 149, 150, 151, 152, 153, 154, 155, 156, 157, 158, 159, 160, 161, 162, 163, 164, 165, 166, 167, 168, 169, 170, 171, 172, 173, 174, 175, 176, 177, 178, 179, 180, 181, 182, 183, 184, 185, 186, 187, 188, 189, 190, 191, 192, 193, 194, 195, 196, 197, 198, 199, 200, 201, 202, 203, 204, 205, 206, 207, 208, 209, 210, 211, 212, 213, 214, 215, 216, 217, 218, 219, 220, 221, 222, 223, 224, 225, 226, 227, 228, 229, 230, 231, 232, 233, 234, 235, 236, 237, 238, 239, 240, 241, 242, 243, 244, 245, 246, 247, 248, 249, 250, 251, 252, 253, 254, 255, 256, 257, 258, 259, 260, 261, 262, 263, 264, 265, 266, 267, 268, 269, 270, 271, 272, 273, 274, 275, 276, 277, 278, 279, 280, 281, 282, 283, 284, 285, 286, 287, 288, 289, 290, 291, 292, 293, 294, 295, 296, 297, 298, 299, 300, 301, 302, 303, 304, 305, 306, 307, 308, 309, 310, 311, 312, 313, 314, 315, 316, 317, 318, 319, 320, 321, 322, 323, 324, 325, 326, 327, 328, 329, 330, 331, 332, 333, 334, 335, 336, 337, 338, 339, 340, 341, 342, 343, 344, 345, 346, 347, 348, 349, 350, 351, 352, 353, 354, 355, 356, 357, 358, 359, 360, 361, 362, 363, 364, 365, 366, 367, 368, 369, 370, 371, 372, 373, 374, 375, 376, 377, 378, 379, 380, 381, 382, 383, 384, 385, 386, 387, 388, 389, 390, 391, 392, 393, 394, 395, 396, 397, 398, 399, 400, 401, 402, 403, 404, 405, 406, 407, 408, 409, 410, 411, 412, 413, 414, 415, 416, 417, 418, 419, 420, 421, 422, 423, 424, 425, 426, 427, 428, 429, 430, 431, 432, 433, 434, 435, 436, 437, 438, 439, 440, 441, 442, 443, 444, 445, 446, 447, 448, 449, 450],
      "AcquisitionTime": ["193112.490000", "193113.980000", "193115.470000", "193116.960000", "193118.450000", "193119.940000", "193121.430000", "193122.920000", "193124.410000", "193125.900000", "193127.390000", "193128.880000", "193130.370000", "193131.860000", "193133.350000", "193134.840000", "193136.330000", "193137.820000", "193139.310000", "193140.800000", "193142.290000", "193143.780000", "193145.270000", "193146.760000", "193148.250000", "193149.740000", "193151.230000", "193152.720000", "193154.210000", "193155.700000", "193157.190000", "193158.680000", "193200.170000", "193201.660000", "193203.150000", "193204.640000", "193206.130000", "193207.620000", "193209.110000", "193210.600000", "193212.090000", "193213.580000", "193215.070000", "193216.560000", "193218.050000", "193219.540000", "193221.030000", "193222.520000", "193224.010000", "193225.500000", "193226.990000", "193228.480000", "193229.970000", "193231.460000", "193232.950000", "193234.440000", "193235.930000", "193237.420000", "193238.910000", "193240.400000", "193241.890000", "193243.380000", "193244.870000", "193246.360000", "193247.850000", "193249.340000", "193250.830000", "193252.320000", "193253.810000", "193255.300000", "193256.790000", "193258.280000", "193259.770000", "193301.260000", "193302.750000", "193304.240000", "193305.730000", "193307.220000", "193308.710000", "193310.200000", "193311.690000", "193313.180000", "193314.670000", "193316.160000", "193317.650000", "193319.140000", "193320.630000", "193322.120000", "193323.610000", "193325.100000", "193326.590000", "193328.080000", "193329.570000", "193331.060000", "193332.550000", "193334.040000", "193335.530000", "193337.020000", "193338.510000", "193340.000000", "193341.490000", "193342.980000", "193344.470000", "193345.960000", "193347.450000", "193348.940000", "193350.430000", "193351.920000", "193353.410000", "193354.900000", "193356.390000", "193357.880000", "193359.370000", "193400.860000", "193402.350000", "193403.840000", "193405.330000", "193406.820000", "193408.310000", "193409.800000", "193411.290000", "193412.780000", "193414.270000", "193415.760000", "193417.250000", "193418.740000", "193420.230000", "193421.720000", "193423.210000", "193424.700000", "193426.190000", "193427.680000", "193429.170000", "193430.660000", "193432.150000", "193433.640000", "193435.130000", "193436.620000", "193438.110000", "193439.600000", "193441.090000", "193442.580000", "193444.070000", "193445.560000", "193447.050000", "193448.540000", "193450.030000", "193451.520000", "193453.010000", "193454.500000", "193455.990000", "193457.480000", "193458.970000", "193500.460000", "193501.950000", "193503.440000", "193504.930000", "193506.420000", "193507.910000", "193509.400000", "193510.890000", "193512.380000", "193513.870000", "193515.360000", "193516.850000", "193518.340000", "193519.830000", "193521.320000", "193522.810000", "193524.300000", "193525.790000", "193527.280000", "193528.770000", "193530.260000", "193531.750000", "193533.240000", "193534.730000", "193536.220000", "193537.710000", "193539.200000", "193540.690000", "193542.180000", "193543.670000", "193545.160000", "193546.650000", "193548.140000", "193549.630000", "193551.120000", "193552.610000", "193554.100000", "193555.590000", "193557.080000", "193558.570000", "193600.060000", "193601.550000", "193603.040000", "193604.530000", "193606.020000", "193607.510000", "193609.000000", "193610.490000", "193611.980000", "193613.470000", "193614.960000", "193616.450000", "193617.940000", "193619.430000", "193620.920000", "193622.410000", "193623.900000", "193625.390000", "193626.880000", "193628.370000", "193629.860000", "193631.350000", "193632.840000", "193634.330000", "193635.820000", "193637.310000", "193638.800000", "193640.290000", "193641.780000", "193643.270000", "193644.760000", "193646.250000", "193647.740000", "193649.230000", "193650.720000", "193652.210000", "193653.700000", "193655.190000", "193656.680000", "193658.170000", "193659.660000", "193701.150000", "193702.640000", "193704.130000", "193705.620000", "193707.110000", "193708.600000", "193710.090000", "193711.580000", "193713.070000", "193714.560000", "193716.050000", "193717.540000", "193719.030000", "193720.520000", "193722.010000", "193723.500000", "193724.990000", "193726.480000", "193727.970000", "193729.460000", "193730.950000", "193732.440000", "193733.930000", "193735.420000", "193736.910000", "193738.400000", "193739.890000", "193741.380000", "193742.870000", "193744.360000", "193745.850000", "193747.340000", "193748.830000", "193750.320000", "193751.810000", "193753.300000", "193754.790000", "193756.280000", "193757.770000", "193759.260000", "193800.750000", "193802.240000", "193803.730000", "193805.220000", "193806.710000", "193808.200000", "193809.690000", "193811.180000", "193812.670000", "193814.160000", "193815.650000", "193817.140000", "193818.630000", "193820.120000", "193821.610000", "193823.100000", "193824.590000", "193826.080000", "193827.570000", "193829.060000", "193830.550000", "193832.040000", "193833.530000", "193835.020000", "193836.510000", "193838.000000", "193839.490000", "193840.980000", "193842.470000", "193843.960000", "193845.450000", "193846.940000", "193848.430000", "193849.920000", "193851.410000", "193852.900000", "193854.390000", "193855.880000", "193857.370000", "193858.860000", "193900.350000", "193901.840000", "193903.330000", "193904.820000", "193906.310000", "193907.800000", "193909.290000", "193910.780000", "193912.270000", "193913.760000", "193915.250000", "193916.740000", "193918.230000", "193919.720000", "193921.210000", "193922.700000", "193924.190000", "193925.680000", "193927.170000", "193928.660000", "193930.150000", "193931.640000", "193933.130000", "193934.620000", "193936.110000", "193937.600000", "193939.090000", "193940.580000", "193942.070000", "193943.560000", "193945.050000", "193946.540000", "193948.030000", "193949.520000", "193951.010000", "193952.500000", "193953.990000", "193955.480000", "193956.970000", "193958.460000", "193959.950000", "194001.440000", "194002.930000", "194004.420000", "194005.910000", "194007.400000", "194008.890000", "194010.380000", "194011.870000", "194013.360000", "194014.850000", "194016.340000", "194017.830000", "194019.320000", "194020.810000", "194022.300000", "194023.790000", "194025.280000", "194026.770000", "194028.260000", "194029.750000", "194031.240000", "194032.730000", "194034.220000", "194035.710000", "194037.200000", "194038.690000", "194040.180000", "194041.670000", "194043.160000", "194044.650000", "194046.140000", "194047.630000", "194049.120000", "194050.610000", "194052.100000", "194053.590000", "194055.080000", "194056.570000", "194058.060000", "194059.550000", "194101.040000", "194102.530000", "194104.020000", "194105.510000", "194107.000000", "194108.490000", "194109.980000", "194111.470000", "194112.960000", "194114.450000", "194115.940000", "194117.430000", "194118.920000", "194120.410000", "194121.900000", "194123.390000", "194124.880000", "194126.370000", "194127.860000", "194129.350000", "194130.840000", "194132.330000", "194133.820000", "194135.310000", "194136.800000", "194138.290000", "194139.780000", "194141.270000", "194142.760000", "194144.250000", "194145.740000", "194147.230000", "194148.720000", "194150.210000", "194151.700000", "194153.190000", "194154.680000", "194156.170000", "194157.660000", "194159.150000", "194200.640000", "194202.130000", "194203.620000", "194205.110000", "194206.600000", "194208.090000", "194209.580000", "194211.070000", "194212.560000", "194214.050000", "194215.540000", "194217.030000", "194218.520000", "194220.010000", "194221.500000"],
      "ContentTime": ["193219.998000", "193220.002000", "193220.005000", "193220.008000", "193220.011000", "193220.014000", "193220.017000", "193220.020000", "193220.023000", "193220.026000", "193220.036000", "193220.039000", "193220.042000", "193220.044000", "193220.047000", "193220.050000", "193220.053000", "193220.056000", "193239.967000", "193239.970000", "193239.973000", "193239.976000", "193239.979000", "193239.993000", "193240.006000", "193240.009000", "193240.012000", "193240.015000", "193240.018000", "193240.021000", "193240.024000", "193240.027000", "193240.029000", "193240.032000", "193240.035000", "193240.038000", "193240.041000", "193240.044000", "193259.966000", "193259.969000", "193259.972000", "193259.975000", "193259.978000", "193259.984000", "193259.987000", "193259.990000", "193259.992000", "193259.995000", "193259.998000", "193300.002000", "193300.005000", "193300.008000", "193300.011000", "193300.014000", "193300.017000", "193300.019000", "193300.022000", "193300.025000", "193300.028000", "193319.966000", "193319.969000", "193319.972000", "193319.975000", "193319.978000", "193319.981000", "193319.984000", "193319.987000", "193319.990000", "193319.993000", "193319.995000", "193319.998000", "193320.002000", "193320.005000", "193320.008000", "193320.011000", "193320.014000", "193320.017000", "193320.020000", "193320.023000", "193359.967000", "193359.970000", "193359.973000", "193359.981000", "193359.984000", "193359.987000", "193359.995000", "193359.998000", "193400.002000", "193400.005000", "193400.008000", "193400.011000", "193400.014000", "193400.017000", "193400.020000", "193400.023000", "193400.026000", "193400.028000", "193400.031000", "193400.034000", "193400.037000", "193400.040000", "193400.043000", "193400.046000", "193400.049000", "193400.052000", "193400.055000", "193400.058000", "193400.061000", "193400.064000", "193400.066000", "193400.069000", "193400.072000", "193439.967000", "193439.970000", "193439.973000", "193439.976000", "193439.986000", "193439.989000", "193439.992000", "193439.995000", "193439.998000", "193440.001000", "193440.004000", "193440.007000", "193440.010000", "193440.013000", "193440.016000", "193440.019000", "193440.022000", "193440.025000", "193440.028000", "193440.031000", "193440.034000", "193440.037000", "193440.040000", "193440.042000", "193440.046000", "193440.048000", "193440.051000", "193519.966000", "193519.969000", "193519.972000", "193519.975000", "193519.978000", "193519.981000", "193519.984000", "193519.987000", "193519.990000", "193519.993000", "193519.995000", "193519.998000", "193520.002000", "193520.005000", "193520.008000", "193520.011000", "193520.014000", "193520.018000", "193520.020000", "193520.023000", "193520.026000", "193520.029000", "193520.032000", "193520.035000", "193520.038000", "193520.041000", "193559.966000", "193559.969000", "193559.972000", "193559.975000", "193559.978000", "193559.981000", "193559.984000", "193559.987000", "193559.990000", "193559.993000", "193559.996000", "193600.000000", "193600.003000", "193600.005000", "193600.008000", "193600.011000", "193600.014000", "193600.017000", "193600.020000", "193600.023000", "193600.026000", "193600.029000", "193600.032000", "193600.034000", "193600.037000", "193600.040000", "193600.043000", "193639.967000", "193639.970000", "193639.973000", "193639.976000", "193639.979000", "193639.982000", "193639.985000", "193639.988000", "193639.991000", "193639.994000", "193639.997000", "193640.001000", "193640.004000", "193640.007000", "193640.010000", "193640.013000", "193640.016000", "193640.019000", "193640.022000", "193640.025000", "193640.028000", "193640.030000", "193640.033000", "193640.036000", "193640.039000", "193640.042000", "193640.045000", "193719.967000", "193719.970000", "193719.983000", "193719.986000", "193719.989000", "193719.992000", "193719.995000", "193719.998000", "193720.002000", "193720.005000", "193720.008000", "193720.011000", "193720.013000", "193720.016000", "193720.019000", "193720.022000", "193720.025000", "193720.028000", "193720.031000", "193720.034000", "193720.037000", "193720.040000", "193720.043000", "193720.045000", "193720.048000", "193720.051000", "193720.054000", "193759.966000", "193759.969000", "193759.972000", "193759.995000", "193759.998000", "193800.006000", "193800.009000", "193800.012000", "193800.032000", "193800.035000", "193800.037000", "193800.040000", "193800.043000", "193800.046000", "193800.049000", "193800.052000", "193800.055000", "193800.058000", "193800.061000", "193800.064000", "193800.066000", "193800.069000", "193800.072000", "193800.075000", "193800.078000", "193800.081000", "193800.084000", "193839.967000", "193839.970000", "193839.973000", "193839.976000", "193839.979000", "193839.982000", "193839.984000", "193839.987000", "193839.990000", "193839.993000", "193839.996000", "193840.000000", "193840.003000", "193840.006000", "193840.009000", "193840.012000", "193840.015000", "193840.018000", "193840.021000", "193840.024000", "193840.027000", "193840.030000", "193840.033000", "193840.035000", "193840.038000", "193840.041000", "193840.044000", "193919.967000", "193919.970000", "193919.973000", "193919.976000", "193919.979000", "193919.982000", "193919.985000", "193919.988000", "193919.998000", "193920.002000", "193920.005000", "193920.008000", "193920.011000", "193920.014000", "193920.017000", "193920.020000", "193920.023000", "193920.026000", "193920.029000", "193920.032000", "193920.035000", "193920.037000", "193920.040000", "193920.043000", "193920.046000", "193920.049000", "193920.052000", "193959.966000", "193959.969000", "193959.972000", "193959.975000", "193959.978000", "193959.981000", "193959.984000", "193959.987000", "193959.989000", "193959.992000", "193959.995000", "193959.998000", "194000.002000", "194000.005000", "194000.008000", "194000.011000", "194000.014000", "194000.017000", "194000.021000", "194000.024000", "194000.027000", "194000.030000", "194000.032000", "194000.035000", "194000.038000", "194000.041000", "194039.966000", "194039.969000", "194039.972000", "194039.975000", "194039.978000", "194039.981000", "194039.984000", "194039.987000", "194039.989000", "194039.992000", "194039.995000", "194039.998000", "194040.002000", "194040.005000", "194040.008000", "194040.011000", "194040.014000", "194040.017000", "194040.020000", "194040.023000", "194040.026000", "194040.028000", "194040.031000", "194040.034000", "194040.037000", "194040.040000", "194040.043000", "194119.967000", "194119.970000", "194119.973000", "194119.976000", "194119.979000", "194119.982000", "194119.985000", "194119.988000", "194119.991000", "194119.993000", "194119.996000", "194120.000000", "194120.003000", "194120.006000", "194120.009000", "194120.012000", "194120.015000", "194120.018000", "194120.021000", "194120.024000", "194120.027000", "194120.030000", "194120.033000", "194120.035000", "194120.038000", "194120.053000", "194120.056000", "194159.967000", "194159.970000", "194159.973000", "194159.976000", "194159.979000", "194159.982000", "194159.985000", "194159.987000", "194159.990000", "194159.994000", "194159.997000", "194200.001000", "194200.003000", "194200.006000", "194200.009000", "194200.012000", "194200.015000", "194200.018000", "194200.021000", "194200.024000", "194200.027000", "194200.030000", "194200.032000", "194200.047000", "194200.050000", "194200.053000", "194200.056000", "194223.229000", "194223.233000", "194223.236000", "194223.239000", "194223.242000", "194223.245000", "194223.248000", "194223.251000", "194223.254000", "194223.257000", "194223.260000", "194223.263000", "194223.266000", "194223.268000", "194223.271000", "194223.274000"],
