{
  "AcquisitionMatrixPE": 104,
  "AcquisitionNumber": 1,
  "AcquisitionTime": "19:43:51.037500",
  "BandwidthPerPixelPhaseEncode": 17.17,
  "BaseResolution": 104,
  "BodyPartExamined": "BRAIN",
  "CoilCombinationMethod": "Sum of Squares",
  "ConsistencyInfo": "N4_VE11C_LATEST_20160120",
  "ConversionSoftware": "dcm2niix",
  "ConversionSoftwareVersion": "v1.0.20220505",
  "DerivedVendorReportedEchoSpacing": 0.000560011,
  "DeviceSerialNumber": "167006",
  "DwellTime": 2.1e-06,
  "EchoTime": 0.037,
  "EchoTrainLength": 104,
  "EffectiveEchoSpacing": 0.000560011,
  "FlipAngle": 52,
  "HeudiconvVersion": "0.5.3.post811+g6206e14",
  "ImageComments": "Unaliased MB4/PE3/LB",
  "ImageOrientationPatientDICOM": [0.999749, -0.010129, -0.0199846, 0.00191933, 0.927413, -0.374033],
  "ImageOrientationText": "Tra>Cor(-22.0)>Sag(-1.3)",
  "ImageType": [
    "ORIGINAL",
    "PRIMARY",
    "M",
    "MB",
    "ND",
    "MOSAIC"
],
  "ImagingFrequency": 123.259,
  "InPlanePhaseEncodingDirectionDICOM": "COL",
  "InstitutionAddress": "Chemin Queen-Mary 4565,Montreal,District,CA,H3W 1W5",
  "InstitutionName": "IUGM",
  "InstitutionalDepartmentName": "Department",
  "MRAcquisitionType": "2D",
  "MagneticFieldStrength": 3,
  "Manufacturer": "Siemens",
  "ManufacturersModelName": "Prisma_fit",
  "MatrixCoilMode": "SENSE",
  "Modality": "MR",
  "MultibandAccelerationFactor": 4,
  "PartialFourier": 1,
  "PatientPosition": "HFS",
  "PercentPhaseFOV": 100,
  "PercentSampling": 100,
  "PhaseEncodingDirection": "j",
  "PhaseEncodingSteps": 104,
  "PhaseResolution": 1,
  "PixelBandwidth": 2290,
  "ProcedureStepDescription": "video^friends",
  "ProtocolName": "func_task-friends-s06e11b",
  "PulseSequenceDetails": "%CustomerSeq%\\cmrr_mbep2d_bold",
  "ReceiveCoilActiveElements": "HC1-7;NC1,2",
  "ReceiveCoilName": "HeadNeck_64",
  "ReconMatrixPE": 104,
  "RepetitionTime": 1.49,
  "SAR": 0.0780075,
  "ScanOptions": "FS",
  "ScanningSequence": "EP",
  "SequenceName": "epfid2d1_104",
  "SequenceVariant": "SK\\SS",
  "SeriesDescription": "func_task-friends-s06e11b",
  "SeriesNumber": 16,
  "ShimSetting": [607, -7264, -8817, 418, 15, -355, -9, 33],
  "SliceThickness": 2,
  "SliceTiming": [0, 0.7825, 0.0975, 0.88, 0.195, 0.98, 0.2925, 1.0775, 0.39, 1.175, 0.49, 1.2725, 0.5875, 1.37, 0.685, 0, 0.7825, 0.0975, 0.88, 0.195, 0.98, 0.2925, 1.0775, 0.39, 1.175, 0.49, 1.2725, 0.5875, 1.37, 0.685, 0, 0.7825, 0.0975, 0.88, 0.195, 0.98, 0.2925, 1.0775, 0.39, 1.175, 0.49, 1.2725, 0.5875, 1.37, 0.685, 0, 0.7825, 0.0975, 0.88, 0.195, 0.98, 0.2925, 1.0775, 0.39, 1.175, 0.49, 1.2725, 0.5875, 1.37, 0.685],
  "SoftwareVersions": "syngo MR E11",
  "SpacingBetweenSlices": 2,
  "StationName": "MRC35049",
  "TaskName": "s06e11b",
  "TotalReadoutTime": 0.0576811,
  "TxRefAmp": 313.6,
  "WipMemBlock": "fe05f370-f34f-4598-be98-7f85524868b3||Sequence: R017 ve11c/master r/75a17815+; Jun 28 2022 16:32:11 by eja",
  "dcmmeta_affine": [
    [-1.9994980096817017, 0.003838653676211834, -0.044645193964242935, 100.62249755859375],
    [0.020257992669939995, 1.85482656955719, -0.7478022575378418, -71.18179321289062],
    [-0.039969269186258316, 0.748066782951355, 1.8543998003005981, -59.77779769897461],
    [0.0, 0.0, 0.0, 1.0]
],
  "dcmmeta_reorient_transform": [
    [0.0, -1.0, 0.0, 103.0],
    [1.0, 0.0, 0.0, 0.0],
    [0.0, 0.0, 1.0, 0.0],
    [0.0, 0.0, 0.0, 1.0]
],
  "dcmmeta_shape": [104, 104, 60, 484],
  "dcmmeta_slice_dim": 2,
  "dcmmeta_version": 0.6,
  "global": {
    "const": {
      "AcquisitionMatrix": [104, 0, 0, 104],
      "AngioFlag": "N",
      "BitsAllocated": 16,
      "BitsStored": 16,
      "BodyPartExamined": "BRAIN",
      "Columns": 832,
      "EchoNumbers": 1,
      "EchoTime": 37.0,
      "EchoTrainLength": 104,
      "FlipAngle": 52.0,
      "HighBit": 15,
      "ImageOrientationPatient": [0.99974897741547, -0.010128996004, -0.0199846340138, 0.00191932680665, 0.92741325668827, -0.374033377526],
      "ImagePositionPatient": [-830.2324066305, -787.64828023415, 304.118191671],
      "ImageType": [
        "ORIGINAL",
        "PRIMARY",
        "M",
        "MB",
        "ND",
        "MOSAIC"
],
      "ImagedNucleus": "1H",
      "ImagingFrequency": 123.258782,
      "InPlanePhaseEncodingDirection": "COL",
      "MRAcquisitionType": "2D",
      "MagneticFieldStrength": 3.0,
      "Manufacturer": "SIEMENS",
      "ManufacturerModelName": "Prisma_fit",
      "Modality": "MR",
      "NumberOfAverages": 1.0,
      "NumberOfPhaseEncodingSteps": 104,
      "PercentPhaseFieldOfView": 100.0,
      "PercentSampling": 100.0,
      "PerformedProcedureStepStartTime": "185909.609000",
      "PhotometricInterpretation": "MONOCHROME2",
      "PixelBandwidth": 2290.0,
      "PixelRepresentation": 0,
      "PixelSpacing": [2.0, 2.0],
      "ProtocolName": "func_task-friends-s06e11b",
      "RepetitionTime": 1490.0,
      "Rows": 832,
      "SAR": 0.07800749761634,
      "SamplesPerPixel": 1,
      "ScanOptions": "FS",
      "ScanningSequence": "EP",
      "SequenceName": "epfid2d1_104",
      "SequenceVariant": [
        "SK",
        "SS"
],
      "SeriesDescription": "func_task-friends-s06e11b",
      "SeriesNumber": 16,
      "SeriesTime": "194459.989000",
      "SliceLocation": -31.057169615906,
      "SliceThickness": 2.0,
      "SmallestImagePixelValue": 0,
      "SoftwareVersions": "syngo MR E11",
      "SpacingBetweenSlices": 2.000000028654,
      "SpecificCharacterSet": "ISO_IR 100",
      "StudyID": "1",
      "StudyTime": "185909.524000",
      "TransmitCoilName": "Body",
      "VariableFlipAngleFlag": "N",
      "WindowCenterWidthExplanation": "Algo1",
      "dBdt": 0.0},
    "slices": {}
  },
  "time": {
    "samples": {
      "AcquisitionNumber": [1, 2, 3, 4, 5, 6, 7, 8, 9, 10, 11, 12, 13, 14, 15, 16, 17, 18, 19, 20, 21, 22, 23, 24, 25, 26, 27, 28, 29, 30, 31, 32, 33, 34, 35, 36, 37, 38, 39, 40, 41, 42, 43, 44, 45, 46, 47, 48, 49, 50, 51, 52, 53, 54, 55, 56, 57, 58, 59, 60, 61, 62, 63, 64, 65, 66, 67, 68, 69, 70, 71, 72, 73, 74, 75, 76, 77, 78, 79, 80, 81, 82, 83, 84, 85, 86, 87, 88, 89, 90, 91, 92, 93, 94, 95, 96, 97, 98, 99, 100, 101, 102, 103, 104, 105, 106, 107, 108, 109, 110, 111, 112, 113, 114, 115, 116, 117, 118, 119, 120, 121, 122, 123, 124, 125, 126, 127, 128, 129, 130, 131, 132, 133, 134, 135, 136, 137, 138, 139, 140, 141, 142, 143, 144, 145, 146, 147, 148, 149, 150, 151, 152, 153, 154, 155, 156, 157, 158, 159, 160, 161, 162, 163, 164, 165, 166, 167, 168, 169, 170, 171, 172, 173, 174, 175, 176, 177, 178, 179, 180, 181, 182, 183, 184, 185, 186, 187, 188, 189, 190, 191, 192, 193, 194, 195, 196, 197, 198, 199, 200, 201, 202, 203, 204, 205, 206, 207, 208, 209, 210, 211, 212, 213, 214, 215, 216, 217, 218, 219, 220, 221, 222, 223, 224, 225, 226, 227, 228, 229, 230, 231, 232, 233, 234, 235, 236, 237, 238, 239, 240, 241, 242, 243, 244, 245, 246, 247, 248, 249, 250, 251, 252, 253, 254, 255, 256, 257, 258, 259, 260, 261, 262, 263, 264, 265, 266, 267, 268, 269, 270, 271, 272, 273, 274, 275, 276, 277, 278, 279, 280, 281, 282, 283, 284, 285, 286, 287, 288, 289, 290, 291, 292, 293, 294, 295, 296, 297, 298, 299, 300, 301, 302, 303, 304, 305, 306, 307, 308, 309, 310, 311, 312, 313, 314, 315, 316, 317, 318, 319, 320, 321, 322, 323, 324, 325, 326, 327, 328, 329, 330, 331, 332, 333, 334, 335, 336, 337, 338, 339, 340, 341, 342, 343, 344, 345, 346, 347, 348, 349, 350, 351, 352, 353, 354, 355, 356, 357, 358, 359, 360, 361, 362, 363, 364, 365, 366, 367, 368, 369, 370, 371, 372, 373, 374, 375, 376, 377, 378, 379, 380, 381, 382, 383, 384, 385, 386, 387, 388, 389, 390, 391, 392, 393, 394, 395, 396, 397, 398, 399, 400, 401, 402, 403, 404, 405, 406, 407, 408, 409, 410, 411, 412, 413, 414, 415, 416, 417, 418, 419, 420, 421, 422, 423, 424, 425, 426, 427, 428, 429, 430, 431, 432, 433, 434, 435, 436, 437, 438, 439, 440, 441, 442, 443, 444, 445, 446, 447, 448, 449, 450, 451, 452, 453, 454, 455, 456, 457, 458, 459, 460, 461, 462, 463, 464, 465, 466, 467, 468, 469, 470, 471, 472, 473, 474, 475, 476, 477, 478, 479, 480, 481, 482, 483, 484],
      "AcquisitionTime": ["194351.037500", "194352.527500", "194354.017500", "194355.507500", "194356.997500", "194358.487500", "194359.977500", "194401.467500", "194402.957500", "194404.447500", "194405.937500", "194407.427500", "194408.917500", "194410.407500", "194411.897500", "194413.387500", "194414.877500", "194416.367500", "194417.857500", "194419.347500", "194420.837500", "194422.327500", "194423.817500", "194425.307500", "194426.797500", "194428.287500", "194429.777500", "194431.267500", "194432.757500", "194434.247500", "194435.737500", "194437.227500", "194438.717500", "194440.207500", "194441.697500", "194443.187500", "194444.677500", "194446.167500", "194447.657500", "194449.147500", "194450.637500", "194452.127500", "194453.617500", "194455.107500", "194456.597500", "194458.087500", "194459.577500", "194501.067500", "194502.557500", "194504.047500", "194505.537500", "194507.027500", "194508.517500", "194510.007500", "194511.497500", "194512.987500", "194514.477500", "194515.967500", "194517.457500", "194518.947500", "194520.437500", "194521.927500", "194523.417500", "194524.907500", "194526.397500", "194527.887500", "194529.377500", "194530.867500", "194532.357500", "194533.847500", "194535.337500", "194536.827500", "194538.317500", "194539.807500", "194541.297500", "194542.787500", "194544.277500", "194545.767500", "194547.257500", "194548.747500", "194550.237500", "194551.727500", "194553.217500", "194554.707500", "194556.197500", "194557.687500", "194559.177500", "194600.667500", "194602.157500", "194603.647500", "194605.137500", "194606.627500", "194608.117500", "194609.607500", "194611.097500", "194612.587500", "194614.077500", "194615.567500", "194617.057500", "194618.547500", "194620.037500", "194621.527500", "194623.017500", "194624.507500", "194625.997500", "194627.487500", "194628.977500", "194630.467500", "194631.957500", "194633.447500", "194634.937500", "194636.427500", "194637.917500", "194639.407500", "194640.897500", "194642.387500", "194643.877500", "194645.367500", "194646.857500", "194648.347500", "194649.837500", "194651.327500", "194652.817500", "194654.307500", "194655.797500", "194657.287500", "194658.777500", "194700.267500", "194701.757500", "194703.247500", "194704.737500", "194706.227500", "194707.717500", "194709.207500", "194710.697500", "194712.187500", "194713.677500", "194715.167500", "194716.657500", "194718.147500", "194719.637500", "194721.127500", "194722.617500", "194724.107500", "194725.597500", "194727.087500", "194728.577500", "194730.067500", "194731.557500", "194733.047500", "194734.537500", "194736.027500", "194737.517500", "194739.007500", "194740.497500", "194741.987500", "194743.477500", "194744.967500", "194746.457500", "194747.947500", "194749.437500", "194750.927500", "194752.417500", "194753.907500", "194755.397500", "194756.887500", "194758.377500", "194759.867500", "194801.357500", "194802.847500", "194804.337500", "194805.827500", "194807.317500", "194808.807500", "194810.297500", "194811.787500", "194813.277500", "194814.767500", "194816.257500", "194817.747500", "194819.237500", "194820.727500", "194822.217500", "194823.707500", "194825.197500", "194826.687500", "194828.177500", "194829.667500", "194831.157500", "194832.647500", "194834.137500", "194835.627500", "194837.117500", "194838.607500", "194840.097500", "194841.587500", "194843.077500", "194844.567500", "194846.057500", "194847.547500", "194849.037500", "194850.527500", "194852.017500", "194853.507500", "194854.997500", "194856.487500", "194857.977500", "194859.467500", "194900.957500", "194902.447500", "194903.937500", "194905.427500", "194906.917500", "194908.407500", "194909.897500", "194911.387500", "194912.877500", "194914.367500", "194915.857500", "194917.347500", "194918.837500", "194920.327500", "194921.817500", "194923.307500", "194924.797500", "194926.287500", "194927.777500", "194929.267500", "194930.757500", "194932.247500", "194933.737500", "194935.227500", "194936.717500", "194938.207500", "194939.697500", "194941.187500", "194942.677500", "194944.167500", "194945.657500", "194947.147500", "194948.637500", "194950.127500", "194951.617500", "194953.107500", "194954.597500", "194956.087500", "194957.577500", "194959.067500", "195000.557500", "195002.047500", "195003.537500", "195005.027500", "195006.517500", "195008.007500", "195009.497500", "195010.987500", "195012.477500", "195013.967500", "195015.457500", "195016.947500", "195018.437500", "195019.927500", "195021.417500", "195022.907500", "195024.397500", "195025.887500", "195027.377500", "195028.867500", "195030.357500", "195031.847500", "195033.337500", "195034.827500", "195036.317500", "195037.807500", "195039.297500", "195040.787500", "195042.277500", "195043.767500", "195045.257500", "195046.747500", "195048.237500", "195049.727500", "195051.217500", "195052.707500", "195054.197500", "195055.687500", "195057.177500", "195058.667500", "195100.157500", "195101.647500", "195103.137500", "195104.627500", "195106.117500", "195107.607500", "195109.097500", "195110.587500", "195112.077500", "195113.567500", "195115.057500", "195116.547500", "195118.037500", "195119.527500", "195121.017500", "195122.507500", "195123.997500", "195125.487500", "195126.977500", "195128.467500", "195129.957500", "195131.447500", "195132.937500", "195134.427500", "195135.917500", "195137.407500", "195138.897500", "195140.387500", "195141.877500", "195143.367500", "195144.857500", "195146.347500", "195147.837500", "195149.327500", "195150.817500", "195152.307500", "195153.797500", "195155.287500", "195156.777500", "195158.267500", "195159.757500", "195201.247500", "195202.737500", "195204.227500", "195205.717500", "195207.207500", "195208.697500", "195210.187500", "195211.677500", "195213.167500", "195214.657500", "195216.147500", "195217.637500", "195219.127500", "195220.617500", "195222.107500", "195223.597500", "195225.087500", "195226.577500", "195228.067500", "195229.557500", "195231.047500", "195232.537500", "195234.027500", "195235.517500", "195237.007500", "195238.497500", "195239.987500", "195241.477500", "195242.967500", "195244.457500", "195245.947500", "195247.437500", "195248.927500", "195250.417500", "195251.907500", "195253.397500", "195254.887500", "195256.377500", "195257.867500", "195259.357500", "195300.847500", "195302.337500", "195303.827500", "195305.317500", "195306.807500", "195308.297500", "195309.787500", "195311.277500", "195312.767500", "195314.257500", "195315.747500", "195317.237500", "195318.727500", "195320.217500", "195321.707500", "195323.197500", "195324.687500", "195326.177500", "195327.667500", "195329.157500", "195330.647500", "195332.137500", "195333.627500", "195335.117500", "195336.607500", "195338.097500", "195339.587500", "195341.077500", "195342.567500", "195344.057500", "195345.547500", "195347.037500", "195348.527500", "195350.017500", "195351.507500", "195352.997500", "195354.487500", "195355.977500", "195357.467500", "195358.957500", "195400.447500", "195401.937500", "195403.427500", "195404.917500", "195406.407500", "195407.897500", "195409.387500", "195410.877500", "195412.367500", "195413.857500", "195415.347500", "195416.837500", "195418.327500", "195419.817500", "195421.307500", "195422.797500", "195424.287500", "195425.777500", "195427.267500", "195428.757500", "195430.247500", "195431.737500", "195433.227500", "195434.717500", "195436.207500", "195437.697500", "195439.187500", "195440.677500", "195442.167500", "195443.657500", "195445.147500", "195446.637500", "195448.127500", "195449.617500", "195451.107500", "195452.597500", "195454.087500", "195455.577500", "195457.067500", "195458.557500", "195500.047500", "195501.537500", "195503.027500", "195504.517500", "195506.007500", "195507.497500", "195508.987500", "195510.477500", "195511.967500", "195513.457500", "195514.947500", "195516.437500", "195517.927500", "195519.417500", "195520.907500", "195522.397500", "195523.887500", "195525.377500", "195526.867500", "195528.357500", "195529.847500", "195531.337500", "195532.827500", "195534.317500", "195535.807500", "195537.297500", "195538.787500", "195540.277500", "195541.767500", "195543.257500", "195544.747500", "195546.237500", "195547.727500", "195549.217500", "195550.707500"],
      "ContentTime": ["194459.991000", "194459.995000", "194459.998000", "194500.002000", "194500.005000", "194500.008000", "194500.011000", "194500.014000", "194500.016000", "194500.019000", "194500.022000", "194500.025000", "194500.034000", "194500.043000", "194500.046000", "194500.049000", "194500.052000", "194500.054000", "194500.057000", "194500.060000", "194500.063000", "194519.951000", "194519.954000", "194519.957000", "194519.960000", "194519.963000", "194519.966000", "194519.968000", "194519.971000", "194519.974000", "194519.977000", "194519.980000", "194519.983000", "194519.986000", "194519.988000", "194519.991000", "194519.994000", "194519.997000", "194520.003000", "194520.006000", "194520.009000", "194539.952000", "194539.955000", "194539.958000", "194539.968000", "194539.971000", "194539.973000", "194539.976000", "194539.979000", "194539.982000", "194539.985000", "194539.988000", "194539.997000", "194540.001000", "194540.004000", "194540.007000", "194540.010000", "194540.012000", "194540.015000", "194540.018000", "194540.021000", "194559.952000", "194559.955000", "194559.958000", "194559.961000", "194559.964000", "194559.967000", "194559.969000", "194559.972000", "194559.975000", "194559.978000", "194559.981000", "194559.984000", "194559.987000", "194559.990000", "194559.992000", "194559.995000", "194559.998000", "194600.002000", "194600.005000", "194600.008000", "194639.952000", "194639.955000", "194639.958000", "194639.961000", "194639.963000", "194639.966000", "194639.969000", "194639.972000", "194639.975000", "194639.978000", "194639.980000", "194639.983000", "194639.986000", "194639.989000", "194639.992000", "194639.995000", "194639.998000", "194640.002000", "194640.004000", "194640.007000", "194640.010000", "194640.013000", "194640.016000", "194640.019000", "194640.022000", "194640.025000", "194640.027000", "194640.030000", "194640.033000", "194640.036000", "194640.039000", "194719.951000", "194719.954000", "194719.957000", "194719.960000", "194719.963000", "194719.966000", "194719.968000", "194719.971000", "194719.974000", "194719.977000", "194719.980000", "194719.983000", "194719.986000", "194719.988000", "194719.991000", "194719.994000", "194720.005000", "194720.008000", "194720.011000", "194720.014000", "194720.017000", "194720.035000", "194720.038000", "194720.040000", "194720.043000", "194720.046000", "194720.049000", "194759.952000", "194759.955000", "194759.958000", "194759.961000", "194759.964000", "194759.967000", "194759.969000", "194759.972000", "194759.975000", "194759.978000", "194759.981000", "194759.984000", "194759.987000", "194759.990000", "194759.992000", "194759.995000", "194759.998000", "194800.002000", "194800.005000", "194800.008000", "194800.011000", "194800.014000", "194800.016000", "194800.019000", "194800.022000", "194800.025000", "194800.028000", "194839.952000", "194839.955000", "194839.958000", "194839.961000", "194839.964000", "194839.966000", "194839.969000", "194839.972000", "194839.975000", "194839.978000", "194839.981000", "194839.984000", "194839.987000", "194839.989000", "194839.992000", "194840.002000", "194840.005000", "194840.008000", "194840.011000", "194840.014000", "194840.017000", "194840.020000", "194840.023000", "194840.025000", "194840.028000", "194840.031000", "194840.034000", "194919.952000", "194919.955000", "194919.958000", "194919.961000", "194919.964000", "194919.967000", "194919.969000", "194919.972000", "194919.975000", "194919.978000", "194919.981000", "194919.984000", "194919.987000", "194919.990000", "194919.992000", "194919.995000", "194919.998000", "194920.002000", "194920.005000", "194920.008000", "194920.011000", "194920.014000", "194920.016000", "194920.019000", "194920.022000", "194920.025000", "194920.028000", "194959.951000", "194959.954000", "194959.957000", "194959.960000", "194959.963000", "194959.965000", "194959.968000", "194959.971000", "194959.974000", "194959.977000", "194959.980000", "194959.983000", "194959.987000", "194959.989000", "194959.992000", "194959.995000", "194959.998000", "195000.001000", "195000.004000", "195000.007000", "195000.010000", "195000.013000", "195000.016000", "195000.018000", "195000.021000", "195000.024000", "195000.027000", "195039.952000", "195039.955000", "195039.958000", "195039.961000", "195039.964000", "195039.966000", "195039.969000", "195039.972000", "195039.975000", "195039.978000", "195039.981000", "195039.984000", "195039.986000", "195039.989000", "195039.992000", "195039.995000", "195039.998000", "195040.002000", "195040.005000", "195040.007000", "195040.010000", "195040.013000", "195040.016000", "195040.019000", "195040.022000", "195040.026000", "195119.952000", "195119.955000", "195119.958000", "195119.961000", "195119.964000", "195119.967000", "195119.969000", "195119.972000", "195119.975000", "195119.978000", "195119.981000", "195119.984000", "195119.987000", "195119.990000", "195119.992000", "195119.995000", "195119.998000", "195120.002000", "195120.005000", "195120.008000", "195120.011000", "195120.014000", "195120.016000", "195120.019000", "195120.022000", "195120.025000", "195120.028000", "195159.951000", "195159.954000", "195159.957000", "195159.960000", "195159.963000", "195159.966000", "195159.969000", "195159.972000", "195159.975000", "195159.978000", "195159.981000", "195159.983000", "195159.986000", "195159.989000", "195159.992000", "195159.995000", "195159.998000", "195200.002000", "195200.005000", "195200.008000", "195200.011000", "195200.034000", "195200.037000", "195200.040000", "195200.043000", "195200.046000", "195200.050000", "195239.952000", "195239.955000", "195239.958000", "195239.961000", "195239.964000", "195239.967000", "195239.970000", "195239.972000", "195239.975000", "195239.978000", "195239.981000", "195239.984000", "195239.987000", "195239.990000", "195239.992000", "195239.995000", "195239.998000", "195240.002000", "195240.005000", "195240.008000", "195240.011000", "195240.014000", "195240.017000", "195240.019000", "195240.022000", "195240.025000", "195240.028000", "195319.952000", "195319.955000", "195319.958000", "195319.961000", "195319.964000", "195319.967000", "195319.969000", "195319.972000", "195319.975000", "195319.978000", "195319.981000", "195319.984000", "195319.987000", "195319.990000", "195319.992000", "195319.995000", "195319.998000", "195320.002000", "195320.005000", "195320.008000", "195320.011000", "195320.014000", "195320.016000", "195320.019000", "195320.022000", "195320.025000", "195320.028000", "195359.952000", "195359.955000", "195359.958000", "195359.961000", "195359.964000", "195359.967000", "195359.969000", "195359.972000", "195359.975000", "195359.978000", "195359.981000", "195359.984000", "195359.987000", "195359.990000", "195359.993000", "195359.995000", "195359.998000", "195400.002000", "195400.005000", "195400.008000", "195400.011000", "195400.014000", "195400.017000", "195400.020000", "195400.022000", "195400.025000", "195400.028000", "195439.952000", "195439.955000", "195439.958000", "195439.961000", "195439.964000", "195439.967000", "195439.970000", "195439.973000", "195439.975000", "195439.978000", "195439.981000", "195439.984000", "195439.987000", "195439.990000", "195439.993000", "195439.995000", "195439.998000", "195440.001000", "195440.004000", "195440.007000", "195440.010000", "195440.013000", "195440.016000", "195440.018000", "195440.021000", "195440.024000", "195519.952000", "195519.955000", "195519.958000", "195519.961000", "195519.964000", "195519.966000", "195519.969000", "195519.972000", "195519.975000", "195519.978000", "195519.981000", "195519.984000", "195519.987000", "195519.990000", "195519.992000", "195519.995000", "195519.998000", "195520.002000", "195520.005000", "195520.008000", "195520.011000", "195520.014000", "195520.017000", "195520.019000", "195520.022000", "195520.025000", "195520.028000", "195553.097000", "195553.101000", "195553.104000", "195553.106000", "195553.109000", "195553.112000", "195553.115000", "195553.118000", "195553.121000", "195553.124000", "195553.127000", "195553.130000", "195553.132000", "195553.135000", "195553.138000", "195553.141000", "195553.144000", "195553.147000", "195553.150000", "195553.152000", "195553.155000", "195553.159000", "195553.162000"],
