{
  "AcquisitionMatrixPE": 104,
  "AcquisitionNumber": 1,
  "AcquisitionTime": "18:53:35.500000",
  "BandwidthPerPixelPhaseEncode": 17.17,
  "BaseResolution": 104,
  "BodyPartExamined": "BRAIN",
  "CoilCombinationMethod": "Sum of Squares",
  "ConsistencyInfo": "N4_VE11C_LATEST_20160120",
  "ConversionSoftware": "dcm2niix",
  "ConversionSoftwareVersion": "v1.0.20211006",
  "DerivedVendorReportedEchoSpacing": 0.000560011,
  "DeviceSerialNumber": "167006",
  "DwellTime": 2.1e-06,
  "EchoTime": 0.037,
  "EchoTrainLength": 104,
  "EffectiveEchoSpacing": 0.000560011,
  "FlipAngle": 52,
  "HeudiconvVersion": "0.11.3.post9+gc939bf8",
  "ImageComments": "Unaliased MB4/PE3/LB",
  "ImageOrientationPatientDICOM": [0.999552, -0.0288588, -0.00793128, 0.0239048, 0.929273, -0.36862],
  "ImageOrientationText": "Tra>Cor(-21.6)>Sag(-1.0)",
  "ImageType": [
    "ORIGINAL",
    "PRIMARY",
    "M",
    "MB",
    "ND",
    "MOSAIC"
],
  "ImagingFrequency": 123.259,
  "InPlanePhaseEncodingDirectionDICOM": "COL",
  "InstitutionAddress": "Chemin Queen-Mary 4565,Montreal,District,CA,H3W 1W5",
  "InstitutionName": "IUGM",
  "InstitutionalDepartmentName": "Department",
  "MRAcquisitionType": "2D",
  "MagneticFieldStrength": 3,
  "Manufacturer": "Siemens",
  "ManufacturersModelName": "Prisma_fit",
  "MatrixCoilMode": "SENSE",
  "Modality": "MR",
  "MultibandAccelerationFactor": 4,
  "PartialFourier": 1,
  "PatientPosition": "HFS",
  "PercentPhaseFOV": 100,
  "PercentSampling": 100,
  "PhaseEncodingDirection": "j",
  "PhaseEncodingSteps": 104,
  "PhaseResolution": 1,
  "PixelBandwidth": 2290,
  "ProcedureStepDescription": "video^friends",
  "ProtocolName": "func_task-friends-s06e21b",
  "PulseSequenceDetails": "%CustomerSeq%\\cmrr_mbep2d_bold",
  "ReceiveCoilActiveElements": "HC1-7;NC1,2",
  "ReceiveCoilName": "HeadNeck_64",
  "ReconMatrixPE": 104,
  "RepetitionTime": 1.49,
  "SAR": 0.0672526,
  "ScanOptions": "FS",
  "ScanningSequence": "EP",
  "SequenceName": "epfid2d1_104",
  "SequenceVariant": "SK\\SS",
  "SeriesDescription": "func_task-friends-s06e21b",
  "SeriesNumber": 12,
  "ShimSetting": [615, -7260, -8823, 439, 27, -349, 3, 25],
  "SliceThickness": 2,
  "SliceTiming": [0, 0.7825, 0.0975, 0.88, 0.195, 0.98, 0.2925, 1.0775, 0.39, 1.175, 0.49, 1.2725, 0.5875, 1.37, 0.685, 0, 0.7825, 0.0975, 0.88, 0.195, 0.98, 0.2925, 1.0775, 0.39, 1.175, 0.49, 1.2725, 0.5875, 1.37, 0.685, 0, 0.7825, 0.0975, 0.88, 0.195, 0.98, 0.2925, 1.0775, 0.39, 1.175, 0.49, 1.2725, 0.5875, 1.37, 0.685, 0, 0.7825, 0.0975, 0.88, 0.195, 0.98, 0.2925, 1.0775, 0.39, 1.175, 0.49, 1.2725, 0.5875, 1.37, 0.685],
  "SoftwareVersions": "syngo MR E11",
  "SpacingBetweenSlices": 2,
  "StationName": "MRC35049",
  "TaskName": "s06e21b",
  "TotalReadoutTime": 0.0576811,
  "TxRefAmp": 280.369,
  "WipMemBlock": "11dcb003-f7e6-4ff0-bfd1-9599786c1c9d||Sequence: R017 ve11c/master r/75a17815+; Jun 28 2022 16:32:11 by eja",
  "dcmmeta_affine": [
    [-1.9991040229797363, 0.04780954867601395, -0.03601650521159172, 98.14552307128906],
    [0.057717595249414444, 1.8585455417633057, -0.736530601978302, -73.32421112060547],
    [-0.015862559899687767, 0.7372400164604187, 1.8590925931930542, -61.61762237548828],
    [0.0, 0.0, 0.0, 1.0]
],
  "dcmmeta_reorient_transform": [
    [0.0, -1.0, 0.0, 103.0],
    [1.0, 0.0, 0.0, 0.0],
    [0.0, 0.0, 1.0, 0.0],
    [0.0, 0.0, 0.0, 1.0]
],
  "dcmmeta_shape": [104, 104, 60, 494],
  "dcmmeta_slice_dim": 2,
  "dcmmeta_version": 0.6,
  "global": {
    "const": {
      "AcquisitionMatrix": [104, 0, 0, 104],
      "AngioFlag": "N",
      "BitsAllocated": 16,
      "BitsStored": 16,
      "BodyPartExamined": "BRAIN",
      "Columns": 832,
      "EchoNumbers": 1,
      "EchoTime": 37.0,
      "EchoTrainLength": 104,
      "FlipAngle": 52.0,
      "HighBit": 15,
      "ImageOrientationPatient": [0.99955203195205, -0.0288587979473, -0.0079312799445, 0.02390477446696, 0.92927274835393, -0.3686200224139],
      "ImagePositionPatient": [-848.14646192934, -773.60732978821, 288.44745045366],
      "ImageType": [
        "ORIGINAL",
        "PRIMARY",
        "M",
        "MB",
        "ND",
        "MOSAIC"
],
      "ImagedNucleus": "1H",
      "ImagingFrequency": 123.258772,
      "InPlanePhaseEncodingDirection": "COL",
      "MRAcquisitionType": "2D",
      "MagneticFieldStrength": 3.0,
      "Manufacturer": "SIEMENS",
      "ManufacturerModelName": "Prisma_fit",
      "Modality": "MR",
      "NumberOfAverages": 1.0,
      "NumberOfPhaseEncodingSteps": 104,
      "PercentPhaseFieldOfView": 100.0,
      "PercentSampling": 100.0,
      "PerformedProcedureStepStartTime": "183639.296000",
      "PhotometricInterpretation": "MONOCHROME2",
      "PixelBandwidth": 2290.0,
      "PixelRepresentation": 0,
      "PixelSpacing": [2.0, 2.0],
      "ProtocolName": "func_task-friends-s06e21b",
      "RepetitionTime": 1490.0,
      "Rows": 832,
      "SAR": 0.06725259545392,
      "SamplesPerPixel": 1,
      "ScanOptions": "FS",
      "ScanningSequence": "EP",
      "SequenceName": "epfid2d1_104",
      "SequenceVariant": [
        "SK",
        "SS"
],
      "SeriesDescription": "func_task-friends-s06e21b",
      "SeriesNumber": 12,
      "SeriesTime": "185506.480000",
      "SliceLocation": -32.041101078488,
      "SliceThickness": 2.0,
      "SmallestImagePixelValue": 0,
      "SoftwareVersions": "syngo MR E11",
      "SpacingBetweenSlices": 1.9999999528035,
      "SpecificCharacterSet": "ISO_IR 100",
      "StudyID": "1",
      "StudyTime": "183639.232000",
      "TransmitCoilName": "Body",
      "VariableFlipAngleFlag": "N",
      "WindowCenterWidthExplanation": "Algo1",
      "dBdt": 0.0},
    "slices": {}
  },
  "time": {
    "samples": {
      "AcquisitionNumber": [1, 2, 3, 4, 5, 6, 7, 8, 9, 10, 11, 12, 13, 14, 15, 16, 17, 18, 19, 20, 21, 22, 23, 24, 25, 26, 27, 28, 29, 30, 31, 32, 33, 34, 35, 36, 37, 38, 39, 40, 41, 42, 43, 44, 45, 46, 47, 48, 49, 50, 51, 52, 53, 54, 55, 56, 57, 58, 59, 60, 61, 62, 63, 64, 65, 66, 67, 68, 69, 70, 71, 72, 73, 74, 75, 76, 77, 78, 79, 80, 81, 82, 83, 84, 85, 86, 87, 88, 89, 90, 91, 92, 93, 94, 95, 96, 97, 98, 99, 100, 101, 102, 103, 104, 105, 106, 107, 108, 109, 110, 111, 112, 113, 114, 115, 116, 117, 118, 119, 120, 121, 122, 123, 124, 125, 126, 127, 128, 129, 130, 131, 132, 133, 134, 135, 136, 137, 138, 139, 140, 141, 142, 143, 144, 145, 146, 147, 148, 149, 150, 151, 152, 153, 154, 155, 156, 157, 158, 159, 160, 161, 162, 163, 164, 165, 166, 167, 168, 169, 170, 171, 172, 173, 174, 175, 176, 177, 178, 179, 180, 181, 182, 183, 184, 185, 186, 187, 188, 189, 190, 191, 192, 193, 194, 195, 196, 197, 198, 199, 200, 201, 202, 203, 204, 205, 206, 207, 208, 209, 210, 211, 212, 213, 214, 215, 216, 217, 218, 219, 220, 221, 222, 223, 224, 225, 226, 227, 228, 229, 230, 231, 232, 233, 234, 235, 236, 237, 238, 239, 240, 241, 242, 243, 244, 245, 246, 247, 248, 249, 250, 251, 252, 253, 254, 255, 256, 257, 258, 259, 260, 261, 262, 263, 264, 265, 266, 267, 268, 269, 270, 271, 272, 273, 274, 275, 276, 277, 278, 279, 280, 281, 282, 283, 284, 285, 286, 287, 288, 289, 290, 291, 292, 293, 294, 295, 296, 297, 298, 299, 300, 301, 302, 303, 304, 305, 306, 307, 308, 309, 310, 311, 312, 313, 314, 315, 316, 317, 318, 319, 320, 321, 322, 323, 324, 325, 326, 327, 328, 329, 330, 331, 332, 333, 334, 335, 336, 337, 338, 339, 340, 341, 342, 343, 344, 345, 346, 347, 348, 349, 350, 351, 352, 353, 354, 355, 356, 357, 358, 359, 360, 361, 362, 363, 364, 365, 366, 367, 368, 369, 370, 371, 372, 373, 374, 375, 376, 377, 378, 379, 380, 381, 382, 383, 384, 385, 386, 387, 388, 389, 390, 391, 392, 393, 394, 395, 396, 397, 398, 399, 400, 401, 402, 403, 404, 405, 406, 407, 408, 409, 410, 411, 412, 413, 414, 415, 416, 417, 418, 419, 420, 421, 422, 423, 424, 425, 426, 427, 428, 429, 430, 431, 432, 433, 434, 435, 436, 437, 438, 439, 440, 441, 442, 443, 444, 445, 446, 447, 448, 449, 450, 451, 452, 453, 454, 455, 456, 457, 458, 459, 460, 461, 462, 463, 464, 465, 466, 467, 468, 469, 470, 471, 472, 473, 474, 475, 476, 477, 478, 479, 480, 481, 482, 483, 484, 485, 486, 487, 488, 489, 490, 491, 492, 493, 494],
      "AcquisitionTime": ["185335.500000", "185336.990000", "185338.480000", "185339.970000", "185341.460000", "185342.950000", "185344.440000", "185345.930000", "185347.420000", "185348.910000", "185350.400000", "185351.890000", "185353.380000", "185354.870000", "185356.360000", "185357.850000", "185359.340000", "185400.830000", "185402.320000", "185403.810000", "185405.300000", "185406.790000", "185408.280000", "185409.770000", "185411.260000", "185412.750000", "185414.240000", "185415.730000", "185417.220000", "185418.710000", "185420.200000", "185421.690000", "185423.180000", "185424.670000", "185426.160000", "185427.650000", "185429.140000", "185430.630000", "185432.120000", "185433.610000", "185435.100000", "185436.590000", "185438.080000", "185439.570000", "185441.060000", "185442.550000", "185444.040000", "185445.530000", "185447.020000", "185448.510000", "185450.000000", "185451.490000", "185452.980000", "185454.470000", "185455.960000", "185457.450000", "185458.940000", "185500.430000", "185501.920000", "185503.410000", "185504.900000", "185506.390000", "185507.880000", "185509.370000", "185510.860000", "185512.350000", "185513.840000", "185515.330000", "185516.820000", "185518.310000", "185519.800000", "185521.290000", "185522.780000", "185524.270000", "185525.760000", "185527.250000", "185528.740000", "185530.230000", "185531.720000", "185533.210000", "185534.700000", "185536.190000", "185537.680000", "185539.170000", "185540.660000", "185542.150000", "185543.640000", "185545.130000", "185546.620000", "185548.110000", "185549.600000", "185551.090000", "185552.580000", "185554.070000", "185555.560000", "185557.050000", "185558.540000", "185600.030000", "185601.520000", "185603.010000", "185604.500000", "185605.990000", "185607.480000", "185608.970000", "185610.460000", "185611.950000", "185613.440000", "185614.930000", "185616.420000", "185617.910000", "185619.400000", "185620.890000", "185622.380000", "185623.870000", "185625.360000", "185626.850000", "185628.340000", "185629.830000", "185631.320000", "185632.810000", "185634.300000", "185635.790000", "185637.280000", "185638.770000", "185640.260000", "185641.750000", "185643.240000", "185644.730000", "185646.220000", "185647.710000", "185649.200000", "185650.690000", "185652.180000", "185653.670000", "185655.160000", "185656.650000", "185658.140000", "185659.630000", "185701.120000", "185702.610000", "185704.100000", "185705.590000", "185707.080000", "185708.570000", "185710.060000", "185711.550000", "185713.040000", "185714.530000", "185716.020000", "185717.510000", "185719.000000", "185720.490000", "185721.980000", "185723.470000", "185724.960000", "185726.450000", "185727.940000", "185729.430000", "185730.920000", "185732.410000", "185733.900000", "185735.390000", "185736.880000", "185738.370000", "185739.860000", "185741.350000", "185742.840000", "185744.330000", "185745.820000", "185747.310000", "185748.800000", "185750.290000", "185751.780000", "185753.270000", "185754.760000", "185756.250000", "185757.740000", "185759.230000", "185800.720000", "185802.210000", "185803.700000", "185805.190000", "185806.680000", "185808.170000", "185809.660000", "185811.150000", "185812.640000", "185814.130000", "185815.620000", "185817.110000", "185818.600000", "185820.090000", "185821.580000", "185823.070000", "185824.560000", "185826.050000", "185827.540000", "185829.030000", "185830.520000", "185832.010000", "185833.500000", "185834.990000", "185836.480000", "185837.970000", "185839.460000", "185840.950000", "185842.440000", "185843.930000", "185845.420000", "185846.910000", "185848.400000", "185849.890000", "185851.380000", "185852.870000", "185854.360000", "185855.850000", "185857.340000", "185858.830000", "185900.320000", "185901.810000", "185903.300000", "185904.790000", "185906.280000", "185907.770000", "185909.260000", "185910.750000", "185912.240000", "185913.730000", "185915.220000", "185916.710000", "185918.200000", "185919.690000", "185921.180000", "185922.670000", "185924.160000", "185925.650000", "185927.140000", "185928.630000", "185930.120000", "185931.610000", "185933.100000", "185934.590000", "185936.080000", "185937.570000", "185939.060000", "185940.550000", "185942.040000", "185943.530000", "185945.020000", "185946.510000", "185948.000000", "185949.490000", "185950.980000", "185952.470000", "185953.960000", "185955.450000", "185956.940000", "185958.430000", "185959.920000", "190001.410000", "190002.900000", "190004.390000", "190005.880000", "190007.370000", "190008.860000", "190010.350000", "190011.840000", "190013.330000", "190014.820000", "190016.310000", "190017.800000", "190019.290000", "190020.780000", "190022.270000", "190023.760000", "190025.250000", "190026.740000", "190028.230000", "190029.720000", "190031.210000", "190032.700000", "190034.190000", "190035.680000", "190037.170000", "190038.660000", "190040.150000", "190041.640000", "190043.130000", "190044.620000", "190046.110000", "190047.600000", "190049.090000", "190050.580000", "190052.070000", "190053.560000", "190055.050000", "190056.540000", "190058.030000", "190059.520000", "190101.010000", "190102.500000", "190103.990000", "190105.480000", "190106.970000", "190108.460000", "190109.950000", "190111.440000", "190112.930000", "190114.420000", "190115.910000", "190117.400000", "190118.890000", "190120.380000", "190121.870000", "190123.360000", "190124.850000", "190126.340000", "190127.830000", "190129.320000", "190130.810000", "190132.300000", "190133.790000", "190135.280000", "190136.770000", "190138.260000", "190139.750000", "190141.240000", "190142.730000", "190144.220000", "190145.710000", "190147.200000", "190148.690000", "190150.180000", "190151.670000", "190153.160000", "190154.650000", "190156.140000", "190157.630000", "190159.120000", "190200.610000", "190202.100000", "190203.590000", "190205.080000", "190206.570000", "190208.060000", "190209.550000", "190211.040000", "190212.530000", "190214.020000", "190215.510000", "190217.000000", "190218.490000", "190219.980000", "190221.470000", "190222.960000", "190224.450000", "190225.940000", "190227.430000", "190228.920000", "190230.410000", "190231.900000", "190233.390000", "190234.880000", "190236.370000", "190237.860000", "190239.350000", "190240.840000", "190242.330000", "190243.820000", "190245.310000", "190246.800000", "190248.290000", "190249.780000", "190251.270000", "190252.760000", "190254.250000", "190255.740000", "190257.230000", "190258.720000", "190300.210000", "190301.700000", "190303.190000", "190304.680000", "190306.170000", "190307.660000", "190309.150000", "190310.640000", "190312.130000", "190313.620000", "190315.110000", "190316.600000", "190318.090000", "190319.580000", "190321.070000", "190322.560000", "190324.050000", "190325.540000", "190327.030000", "190328.520000", "190330.010000", "190331.500000", "190332.990000", "190334.480000", "190335.970000", "190337.460000", "190338.950000", "190340.440000", "190341.930000", "190343.420000", "190344.910000", "190346.400000", "190347.890000", "190349.380000", "190350.870000", "190352.360000", "190353.850000", "190355.340000", "190356.830000", "190358.320000", "190359.810000", "190401.300000", "190402.790000", "190404.280000", "190405.770000", "190407.260000", "190408.750000", "190410.240000", "190411.730000", "190413.220000", "190414.710000", "190416.200000", "190417.690000", "190419.180000", "190420.670000", "190422.160000", "190423.650000", "190425.140000", "190426.630000", "190428.120000", "190429.610000", "190431.100000", "190432.590000", "190434.080000", "190435.570000", "190437.060000", "190438.550000", "190440.040000", "190441.530000", "190443.020000", "190444.510000", "190446.000000", "190447.490000", "190448.980000", "190450.470000", "190451.960000", "190453.450000", "190454.940000", "190456.430000", "190457.920000", "190459.410000", "190500.900000", "190502.390000", "190503.880000", "190505.370000", "190506.860000", "190508.350000", "190509.840000", "190511.330000", "190512.820000", "190514.310000", "190515.800000", "190517.290000", "190518.780000", "190520.270000", "190521.760000", "190523.250000", "190524.740000", "190526.230000", "190527.720000", "190529.210000", "190530.700000", "190532.190000", "190533.680000", "190535.170000", "190536.660000", "190538.150000", "190539.640000", "190541.130000", "190542.620000", "190544.110000", "190545.600000", "190547.090000", "190548.580000", "190550.070000"],
      "ContentTime": ["185506.483000", "185506.486000", "185506.489000", "185506.492000", "185506.495000", "185506.498000", "185506.501000", "185506.504000", "185506.507000", "185506.510000", "185506.513000", "185506.516000", "185506.519000", "185506.522000", "185506.525000", "185506.527000", "185506.530000", "185506.533000", "185506.536000", "185506.539000", "185506.542000", "185506.545000", "185506.548000", "185506.551000", "185506.554000", "185506.556000", "185506.559000", "185506.562000", "185506.565000", "185506.568000", "185506.571000", "185506.584000", "185506.587000", "185506.590000", "185506.593000", "185506.596000", "185506.599000", "185506.602000", "185506.605000", "185506.608000", "185526.435000", "185526.438000", "185526.441000", "185526.444000", "185526.447000", "185526.449000", "185526.452000", "185526.460000", "185526.463000", "185526.466000", "185526.469000", "185526.472000", "185526.475000", "185526.477000", "185526.480000", "185526.483000", "185526.486000", "185526.489000", "185526.492000", "185526.495000", "185546.436000", "185546.439000", "185546.442000", "185546.445000", "185546.448000", "185546.451000", "185546.454000", "185546.457000", "185546.460000", "185546.463000", "185546.466000", "185546.469000", "185546.472000", "185546.475000", "185546.478000", "185546.481000", "185546.483000", "185546.486000", "185546.489000", "185546.492000", "185606.435000", "185606.438000", "185606.441000", "185606.444000", "185606.447000", "185606.450000", "185606.453000", "185606.456000", "185606.459000", "185606.462000", "185606.464000", "185606.467000", "185606.470000", "185606.473000", "185606.476000", "185606.479000", "185606.482000", "185606.485000", "185606.488000", "185606.491000", "185646.435000", "185646.438000", "185646.441000", "185646.444000", "185646.447000", "185646.450000", "185646.453000", "185646.455000", "185646.458000", "185646.461000", "185646.464000", "185646.467000", "185646.470000", "185646.473000", "185646.476000", "185646.479000", "185646.482000", "185646.484000", "185646.492000", "185646.494000", "185646.497000", "185646.500000", "185646.503000", "185646.506000", "185646.509000", "185646.512000", "185646.515000", "185726.435000", "185726.438000", "185726.441000", "185726.444000", "185726.447000", "185726.450000", "185726.453000", "185726.455000", "185726.458000", "185726.461000", "185726.486000", "185726.489000", "185726.491000", "185726.494000", "185726.497000", "185726.500000", "185726.503000", "185726.506000", "185726.509000", "185726.512000", "185726.515000", "185726.518000", "185726.521000", "185726.524000", "185726.527000", "185726.530000", "185726.533000", "185806.436000", "185806.439000", "185806.442000", "185806.445000", "185806.448000", "185806.451000", "185806.454000", "185806.457000", "185806.459000", "185806.462000", "185806.465000", "185806.468000", "185806.471000", "185806.474000", "185806.477000", "185806.480000", "185806.483000", "185806.485000", "185806.488000", "185806.491000", "185806.494000", "185806.497000", "185806.500000", "185806.503000", "185806.506000", "185806.509000", "185806.512000", "185846.435000", "185846.438000", "185846.441000", "185846.444000", "185846.447000", "185846.450000", "185846.453000", "185846.456000", "185846.458000", "185846.461000", "185846.464000", "185846.467000", "185846.471000", "185846.474000", "185846.485000", "185846.488000", "185846.491000", "185846.494000", "185846.496000", "185846.499000", "185846.502000", "185846.505000", "185846.508000", "185846.511000", "185846.518000", "185846.521000", "185906.435000", "185906.438000", "185906.441000", "185906.444000", "185906.447000", "185906.450000", "185906.453000", "185906.455000", "185906.458000", "185906.461000", "185906.464000", "185906.467000", "185906.470000", "185906.473000", "185946.435000", "185946.438000", "185946.441000", "185946.444000", "185946.447000", "185946.450000", "185946.453000", "185946.455000", "185946.458000", "185946.462000", "185946.465000", "185946.468000", "185946.470000", "185946.473000", "185946.476000", "185946.479000", "185946.482000", "185946.485000", "185946.488000", "185946.491000", "185946.494000", "185946.497000", "185946.499000", "185946.502000", "185946.505000", "185946.508000", "185946.511000", "190026.436000", "190026.439000", "190026.442000", "190026.445000", "190026.448000", "190026.451000", "190026.454000", "190026.457000", "190026.459000", "190026.462000", "190026.465000", "190026.468000", "190026.471000", "190026.474000", "190026.477000", "190026.480000", "190026.483000", "190026.486000", "190026.488000", "190026.491000", "190026.494000", "190026.497000", "190026.500000", "190026.503000", "190026.506000", "190026.509000", "190026.512000", "190106.435000", "190106.438000", "190106.441000", "190106.444000", "190106.447000", "190106.450000", "190106.453000", "190106.456000", "190106.459000", "190106.462000", "190106.465000", "190106.468000", "190106.471000", "190106.473000", "190106.476000", "190106.486000", "190106.488000", "190106.491000", "190106.494000", "190106.497000", "190106.500000", "190106.503000", "190106.506000", "190106.509000", "190106.512000", "190106.515000", "190146.435000", "190146.438000", "190146.441000", "190146.444000", "190146.447000", "190146.449000", "190146.452000", "190146.455000", "190146.458000", "190146.461000", "190146.464000", "190146.467000", "190146.470000", "190146.473000", "190146.476000", "190146.479000", "190146.482000", "190146.485000", "190146.487000", "190146.490000", "190146.493000", "190146.496000", "190146.499000", "190146.502000", "190146.510000", "190146.513000", "190146.516000", "190226.435000", "190226.438000", "190226.441000", "190226.444000", "190226.447000", "190226.450000", "190226.453000", "190226.456000", "190226.458000", "190226.461000", "190226.464000", "190226.467000", "190226.470000", "190226.473000", "190226.476000", "190226.479000", "190226.482000", "190226.485000", "190226.488000", "190226.490000", "190226.493000", "190226.496000", "190226.499000", "190226.502000", "190226.505000", "190226.508000", "190226.511000", "190306.435000", "190306.438000", "190306.441000", "190306.444000", "190306.447000", "190306.450000", "190306.453000", "190306.456000", "190306.458000", "190306.461000", "190306.464000", "190306.467000", "190306.470000", "190306.473000", "190306.476000", "190306.479000", "190306.482000", "190306.485000", "190306.488000", "190306.491000", "190306.493000", "190306.496000", "190306.499000", "190306.502000", "190306.505000", "190306.508000", "190306.511000", "190346.435000", "190346.438000", "190346.441000", "190346.444000", "190346.447000", "190346.450000", "190346.453000", "190346.456000", "190346.459000", "190346.462000", "190346.465000", "190346.468000", "190346.471000", "190346.473000", "190346.476000", "190346.479000", "190346.482000", "190346.485000", "190346.488000", "190346.491000", "190346.498000", "190346.501000", "190346.504000", "190346.507000", "190346.510000", "190346.513000", "190346.516000", "190426.435000", "190426.438000", "190426.441000", "190426.444000", "190426.447000", "190426.450000", "190426.453000", "190426.456000", "190426.458000", "190426.461000", "190426.464000", "190426.467000", "190426.470000", "190426.473000", "190426.476000", "190426.479000", "190426.482000", "190426.484000", "190426.487000", "190426.490000", "190426.493000", "190426.496000", "190426.499000", "190426.502000", "190426.505000", "190426.508000", "190426.511000", "190506.436000", "190506.439000", "190506.442000", "190506.445000", "190506.448000", "190506.451000", "190506.453000", "190506.456000", "190506.459000", "190506.462000", "190506.465000", "190506.468000", "190506.471000", "190506.474000", "190506.477000", "190506.479000", "190506.482000", "190506.485000", "190506.488000", "190506.491000", "190506.494000", "190506.510000", "190506.513000", "190506.516000", "190506.519000", "190506.522000", "190506.524000", "190546.435000", "190546.438000", "190546.441000", "190546.444000", "190546.447000", "190546.450000", "190546.452000", "190546.456000", "190546.458000", "190546.461000", "190546.464000", "190546.467000", "190546.470000", "190546.473000", "190546.476000", "190546.479000", "190546.482000", "190546.485000", "190546.487000", "190546.490000", "190546.493000", "190546.496000", "190546.499000", "190546.502000", "190546.505000", "190546.508000", "190552.674000", "190552.677000", "190552.680000", "190552.683000", "190552.687000"],
