{
  "AcquisitionMatrixPE": 104,
  "AcquisitionNumber": 1,
  "AcquisitionTime": "19:19:38.432500",
  "BandwidthPerPixelPhaseEncode": 17.17,
  "BaseResolution": 104,
  "BodyPartExamined": "BRAIN",
  "CoilCombinationMethod": "Sum of Squares",
  "ConsistencyInfo": "N4_VE11C_LATEST_20160120",
  "ConversionSoftware": "dcm2niix",
  "ConversionSoftwareVersion": "v1.0.20211006",
  "DerivedVendorReportedEchoSpacing": 0.000560011,
  "DeviceSerialNumber": "167006",
  "DwellTime": 2.1e-06,
  "EchoTime": 0.037,
  "EchoTrainLength": 104,
  "EffectiveEchoSpacing": 0.000560011,
  "FlipAngle": 52,
  "HeudiconvVersion": "0.11.3.post9+gc939bf8",
  "ImageComments": "Unaliased MB4/PE3/LB",
  "ImageOrientationPatientDICOM": [0.999552, -0.0288588, -0.00793128, 0.0239048, 0.929273, -0.36862],
  "ImageOrientationText": "Tra>Cor(-21.6)>Sag(-1.0)",
  "ImageType": [
    "ORIGINAL",
    "PRIMARY",
    "M",
    "MB",
    "ND",
    "MOSAIC"
],
  "ImagingFrequency": 123.259,
  "InPlanePhaseEncodingDirectionDICOM": "COL",
  "InstitutionAddress": "Chemin Queen-Mary 4565,Montreal,District,CA,H3W 1W5",
  "InstitutionName": "IUGM",
  "InstitutionalDepartmentName": "Department",
  "MRAcquisitionType": "2D",
  "MagneticFieldStrength": 3,
  "Manufacturer": "Siemens",
  "ManufacturersModelName": "Prisma_fit",
  "MatrixCoilMode": "SENSE",
  "Modality": "MR",
  "MultibandAccelerationFactor": 4,
  "PartialFourier": 1,
  "PatientPosition": "HFS",
  "PercentPhaseFOV": 100,
  "PercentSampling": 100,
  "PhaseEncodingDirection": "j",
  "PhaseEncodingSteps": 104,
  "PhaseResolution": 1,
  "PixelBandwidth": 2290,
  "ProcedureStepDescription": "video^friends",
  "ProtocolName": "func_task-friends-s06e22b",
  "PulseSequenceDetails": "%CustomerSeq%\\cmrr_mbep2d_bold",
  "ReceiveCoilActiveElements": "HC1-7;NC1,2",
  "ReceiveCoilName": "HeadNeck_64",
  "ReconMatrixPE": 104,
  "RepetitionTime": 1.49,
  "SAR": 0.0672526,
  "ScanOptions": "FS",
  "ScanningSequence": "EP",
  "SequenceName": "epfid2d1_104",
  "SequenceVariant": "SK\\SS",
  "SeriesDescription": "func_task-friends-s06e22b",
  "SeriesNumber": 16,
  "ShimSetting": [615, -7260, -8823, 439, 27, -349, 3, 25],
  "SliceThickness": 2,
  "SliceTiming": [0, 0.785, 0.0975, 0.8825, 0.195, 0.98, 0.295, 1.0775, 0.3925, 1.175, 0.49, 1.275, 0.5875, 1.3725, 0.685, 0, 0.785, 0.0975, 0.8825, 0.195, 0.98, 0.295, 1.0775, 0.3925, 1.175, 0.49, 1.275, 0.5875, 1.3725, 0.685, 0, 0.785, 0.0975, 0.8825, 0.195, 0.98, 0.295, 1.0775, 0.3925, 1.175, 0.49, 1.275, 0.5875, 1.3725, 0.685, 0, 0.785, 0.0975, 0.8825, 0.195, 0.98, 0.295, 1.0775, 0.3925, 1.175, 0.49, 1.275, 0.5875, 1.3725, 0.685],
  "SoftwareVersions": "syngo MR E11",
  "SpacingBetweenSlices": 2,
  "StationName": "MRC35049",
  "TaskName": "s06e22b",
  "TotalReadoutTime": 0.0576811,
  "TxRefAmp": 280.369,
  "WipMemBlock": "fffc8b2a-ea2e-49ed-8ad8-bee40dcf4a9d||Sequence: R017 ve11c/master r/75a17815+; Jun 28 2022 16:32:11 by eja",
  "dcmmeta_affine": [
    [-1.9991040229797363, 0.04780954867601395, -0.03601650521159172, 98.14552307128906],
    [0.057717595249414444, 1.8585455417633057, -0.736530601978302, -73.32421112060547],
    [-0.015862559899687767, 0.7372400164604187, 1.8590925931930542, -61.61762237548828],
    [0.0, 0.0, 0.0, 1.0]
],
  "dcmmeta_reorient_transform": [
    [0.0, -1.0, 0.0, 103.0],
    [1.0, 0.0, 0.0, 0.0],
    [0.0, 0.0, 1.0, 0.0],
    [0.0, 0.0, 0.0, 1.0]
],
  "dcmmeta_shape": [104, 104, 60, 486],
  "dcmmeta_slice_dim": 2,
  "dcmmeta_version": 0.6,
  "global": {
    "const": {
      "AcquisitionMatrix": [104, 0, 0, 104],
      "AngioFlag": "N",
      "BitsAllocated": 16,
      "BitsStored": 16,
      "BodyPartExamined": "BRAIN",
      "Columns": 832,
      "EchoNumbers": 1,
      "EchoTime": 37.0,
      "EchoTrainLength": 104,
      "FlipAngle": 52.0,
      "HighBit": 15,
      "ImageOrientationPatient": [0.99955203195205, -0.0288587979473, -0.0079312799445, 0.02390477446696, 0.92927274835393, -0.3686200224139],
      "ImagePositionPatient": [-848.14646192934, -773.60732978821, 288.44745045366],
      "ImageType": [
        "ORIGINAL",
        "PRIMARY",
        "M",
        "MB",
        "ND",
        "MOSAIC"
],
      "ImagedNucleus": "1H",
      "ImagingFrequency": 123.258778,
      "InPlanePhaseEncodingDirection": "COL",
      "MRAcquisitionType": "2D",
      "MagneticFieldStrength": 3.0,
      "Manufacturer": "SIEMENS",
      "ManufacturerModelName": "Prisma_fit",
      "Modality": "MR",
      "NumberOfAverages": 1.0,
      "NumberOfPhaseEncodingSteps": 104,
      "PercentPhaseFieldOfView": 100.0,
      "PercentSampling": 100.0,
      "PerformedProcedureStepStartTime": "183639.296000",
      "PhotometricInterpretation": "MONOCHROME2",
      "PixelBandwidth": 2290.0,
      "PixelRepresentation": 0,
      "PixelSpacing": [2.0, 2.0],
      "ProtocolName": "func_task-friends-s06e22b",
      "RepetitionTime": 1490.0,
      "Rows": 832,
      "SAR": 0.06725259828652,
      "SamplesPerPixel": 1,
      "ScanOptions": "FS",
      "ScanningSequence": "EP",
      "SequenceName": "epfid2d1_104",
      "SequenceVariant": [
        "SK",
        "SS"
],
      "SeriesDescription": "func_task-friends-s06e22b",
      "SeriesNumber": 16,
      "SeriesTime": "192029.054000",
      "SliceLocation": -32.041101078488,
      "SliceThickness": 2.0,
      "SmallestImagePixelValue": 0,
      "SoftwareVersions": "syngo MR E11",
      "SpacingBetweenSlices": 1.9999999528035,
      "SpecificCharacterSet": "ISO_IR 100",
      "StudyID": "1",
      "StudyTime": "183639.232000",
      "TransmitCoilName": "Body",
      "VariableFlipAngleFlag": "N",
      "WindowCenterWidthExplanation": "Algo1",
      "dBdt": 0.0},
    "slices": {}
  },
  "time": {
    "samples": {
      "AcquisitionNumber": [1, 2, 3, 4, 5, 6, 7, 8, 9, 10, 11, 12, 13, 14, 15, 16, 17, 18, 19, 20, 21, 22, 23, 24, 25, 26, 27, 28, 29, 30, 31, 32, 33, 34, 35, 36, 37, 38, 39, 40, 41, 42, 43, 44, 45, 46, 47, 48, 49, 50, 51, 52, 53, 54, 55, 56, 57, 58, 59, 60, 61, 62, 63, 64, 65, 66, 67, 68, 69, 70, 71, 72, 73, 74, 75, 76, 77, 78, 79, 80, 81, 82, 83, 84, 85, 86, 87, 88, 89, 90, 91, 92, 93, 94, 95, 96, 97, 98, 99, 100, 101, 102, 103, 104, 105, 106, 107, 108, 109, 110, 111, 112, 113, 114, 115, 116, 117, 118, 119, 120, 121, 122, 123, 124, 125, 126, 127, 128, 129, 130, 131, 132, 133, 134, 135, 136, 137, 138, 139, 140, 141, 142, 143, 144, 145, 146, 147, 148, 149, 150, 151, 152, 153, 154, 155, 156, 157, 158, 159, 160, 161, 162, 163, 164, 165, 166, 167, 168, 169, 170, 171, 172, 173, 174, 175, 176, 177, 178, 179, 180, 181, 182, 183, 184, 185, 186, 187, 188, 189, 190, 191, 192, 193, 194, 195, 196, 197, 198, 199, 200, 201, 202, 203, 204, 205, 206, 207, 208, 209, 210, 211, 212, 213, 214, 215, 216, 217, 218, 219, 220, 221, 222, 223, 224, 225, 226, 227, 228, 229, 230, 231, 232, 233, 234, 235, 236, 237, 238, 239, 240, 241, 242, 243, 244, 245, 246, 247, 248, 249, 250, 251, 252, 253, 254, 255, 256, 257, 258, 259, 260, 261, 262, 263, 264, 265, 266, 267, 268, 269, 270, 271, 272, 273, 274, 275, 276, 277, 278, 279, 280, 281, 282, 283, 284, 285, 286, 287, 288, 289, 290, 291, 292, 293, 294, 295, 296, 297, 298, 299, 300, 301, 302, 303, 304, 305, 306, 307, 308, 309, 310, 311, 312, 313, 314, 315, 316, 317, 318, 319, 320, 321, 322, 323, 324, 325, 326, 327, 328, 329, 330, 331, 332, 333, 334, 335, 336, 337, 338, 339, 340, 341, 342, 343, 344, 345, 346, 347, 348, 349, 350, 351, 352, 353, 354, 355, 356, 357, 358, 359, 360, 361, 362, 363, 364, 365, 366, 367, 368, 369, 370, 371, 372, 373, 374, 375, 376, 377, 378, 379, 380, 381, 382, 383, 384, 385, 386, 387, 388, 389, 390, 391, 392, 393, 394, 395, 396, 397, 398, 399, 400, 401, 402, 403, 404, 405, 406, 407, 408, 409, 410, 411, 412, 413, 414, 415, 416, 417, 418, 419, 420, 421, 422, 423, 424, 425, 426, 427, 428, 429, 430, 431, 432, 433, 434, 435, 436, 437, 438, 439, 440, 441, 442, 443, 444, 445, 446, 447, 448, 449, 450, 451, 452, 453, 454, 455, 456, 457, 458, 459, 460, 461, 462, 463, 464, 465, 466, 467, 468, 469, 470, 471, 472, 473, 474, 475, 476, 477, 478, 479, 480, 481, 482, 483, 484, 485, 486],
      "AcquisitionTime": ["191938.432500", "191939.922500", "191941.412500", "191942.902500", "191944.392500", "191945.882500", "191947.372500", "191948.862500", "191950.352500", "191951.842500", "191953.332500", "191954.822500", "191956.312500", "191957.802500", "191959.292500", "192000.782500", "192002.272500", "192003.762500", "192005.252500", "192006.742500", "192008.232500", "192009.722500", "192011.212500", "192012.702500", "192014.192500", "192015.682500", "192017.172500", "192018.662500", "192020.152500", "192021.642500", "192023.132500", "192024.622500", "192026.112500", "192027.602500", "192029.092500", "192030.582500", "192032.072500", "192033.562500", "192035.052500", "192036.542500", "192038.032500", "192039.522500", "192041.012500", "192042.502500", "192043.992500", "192045.482500", "192046.972500", "192048.462500", "192049.952500", "192051.442500", "192052.932500", "192054.422500", "192055.912500", "192057.402500", "192058.892500", "192100.382500", "192101.872500", "192103.362500", "192104.852500", "192106.342500", "192107.832500", "192109.322500", "192110.812500", "192112.302500", "192113.792500", "192115.282500", "192116.772500", "192118.262500", "192119.752500", "192121.242500", "192122.732500", "192124.222500", "192125.712500", "192127.202500", "192128.692500", "192130.182500", "192131.672500", "192133.162500", "192134.652500", "192136.142500", "192137.632500", "192139.122500", "192140.612500", "192142.102500", "192143.592500", "192145.082500", "192146.572500", "192148.062500", "192149.552500", "192151.042500", "192152.532500", "192154.022500", "192155.512500", "192157.002500", "192158.492500", "192159.982500", "192201.472500", "192202.962500", "192204.452500", "192205.942500", "192207.432500", "192208.922500", "192210.412500", "192211.902500", "192213.392500", "192214.882500", "192216.372500", "192217.862500", "192219.352500", "192220.842500", "192222.332500", "192223.822500", "192225.312500", "192226.802500", "192228.292500", "192229.782500", "192231.272500", "192232.762500", "192234.252500", "192235.742500", "192237.232500", "192238.722500", "192240.212500", "192241.702500", "192243.192500", "192244.682500", "192246.172500", "192247.662500", "192249.152500", "192250.642500", "192252.132500", "192253.622500", "192255.112500", "192256.602500", "192258.092500", "192259.582500", "192301.072500", "192302.562500", "192304.052500", "192305.542500", "192307.032500", "192308.522500", "192310.012500", "192311.502500", "192312.992500", "192314.482500", "192315.972500", "192317.462500", "192318.952500", "192320.442500", "192321.932500", "192323.422500", "192324.912500", "192326.402500", "192327.892500", "192329.382500", "192330.872500", "192332.362500", "192333.852500", "192335.342500", "192336.832500", "192338.322500", "192339.812500", "192341.302500", "192342.792500", "192344.282500", "192345.772500", "192347.262500", "192348.752500", "192350.242500", "192351.732500", "192353.222500", "192354.712500", "192356.202500", "192357.692500", "192359.182500", "192400.672500", "192402.162500", "192403.652500", "192405.142500", "192406.632500", "192408.122500", "192409.612500", "192411.102500", "192412.592500", "192414.082500", "192415.572500", "192417.062500", "192418.552500", "192420.042500", "192421.532500", "192423.022500", "192424.512500", "192426.002500", "192427.492500", "192428.982500", "192430.472500", "192431.962500", "192433.452500", "192434.942500", "192436.432500", "192437.922500", "192439.412500", "192440.902500", "192442.392500", "192443.882500", "192445.372500", "192446.862500", "192448.352500", "192449.842500", "192451.332500", "192452.822500", "192454.312500", "192455.802500", "192457.292500", "192458.782500", "192500.272500", "192501.762500", "192503.252500", "192504.742500", "192506.232500", "192507.722500", "192509.212500", "192510.702500", "192512.192500", "192513.682500", "192515.172500", "192516.662500", "192518.152500", "192519.642500", "192521.132500", "192522.622500", "192524.112500", "192525.602500", "192527.092500", "192528.582500", "192530.072500", "192531.562500", "192533.052500", "192534.542500", "192536.032500", "192537.522500", "192539.012500", "192540.502500", "192541.992500", "192543.482500", "192544.972500", "192546.462500", "192547.952500", "192549.442500", "192550.932500", "192552.422500", "192553.912500", "192555.402500", "192556.892500", "192558.382500", "192559.872500", "192601.362500", "192602.852500", "192604.342500", "192605.832500", "192607.322500", "192608.812500", "192610.302500", "192611.792500", "192613.282500", "192614.772500", "192616.262500", "192617.752500", "192619.242500", "192620.732500", "192622.222500", "192623.712500", "192625.202500", "192626.692500", "192628.182500", "192629.672500", "192631.162500", "192632.652500", "192634.142500", "192635.632500", "192637.122500", "192638.612500", "192640.102500", "192641.592500", "192643.082500", "192644.572500", "192646.062500", "192647.552500", "192649.042500", "192650.532500", "192652.022500", "192653.512500", "192655.002500", "192656.492500", "192657.982500", "192659.472500", "192700.962500", "192702.452500", "192703.942500", "192705.432500", "192706.922500", "192708.412500", "192709.902500", "192711.392500", "192712.882500", "192714.372500", "192715.862500", "192717.352500", "192718.842500", "192720.332500", "192721.822500", "192723.312500", "192724.802500", "192726.292500", "192727.782500", "192729.272500", "192730.762500", "192732.252500", "192733.742500", "192735.232500", "192736.722500", "192738.212500", "192739.702500", "192741.192500", "192742.682500", "192744.172500", "192745.662500", "192747.152500", "192748.642500", "192750.132500", "192751.622500", "192753.112500", "192754.602500", "192756.092500", "192757.582500", "192759.072500", "192800.562500", "192802.052500", "192803.542500", "192805.032500", "192806.522500", "192808.012500", "192809.502500", "192810.992500", "192812.482500", "192813.972500", "192815.462500", "192816.952500", "192818.442500", "192819.932500", "192821.422500", "192822.912500", "192824.402500", "192825.892500", "192827.382500", "192828.872500", "192830.362500", "192831.852500", "192833.342500", "192834.832500", "192836.322500", "192837.812500", "192839.302500", "192840.792500", "192842.282500", "192843.772500", "192845.262500", "192846.752500", "192848.242500", "192849.732500", "192851.222500", "192852.712500", "192854.202500", "192855.692500", "192857.182500", "192858.672500", "192900.162500", "192901.652500", "192903.142500", "192904.632500", "192906.122500", "192907.612500", "192909.102500", "192910.592500", "192912.082500", "192913.572500", "192915.062500", "192916.552500", "192918.042500", "192919.532500", "192921.022500", "192922.512500", "192924.002500", "192925.492500", "192926.982500", "192928.472500", "192929.962500", "192931.452500", "192932.942500", "192934.432500", "192935.922500", "192937.412500", "192938.902500", "192940.392500", "192941.882500", "192943.372500", "192944.862500", "192946.352500", "192947.842500", "192949.332500", "192950.822500", "192952.312500", "192953.802500", "192955.292500", "192956.782500", "192958.272500", "192959.762500", "193001.252500", "193002.742500", "193004.232500", "193005.722500", "193007.212500", "193008.702500", "193010.192500", "193011.682500", "193013.172500", "193014.662500", "193016.152500", "193017.642500", "193019.132500", "193020.622500", "193022.112500", "193023.602500", "193025.092500", "193026.582500", "193028.072500", "193029.562500", "193031.052500", "193032.542500", "193034.032500", "193035.522500", "193037.012500", "193038.502500", "193039.992500", "193041.482500", "193042.972500", "193044.462500", "193045.952500", "193047.442500", "193048.932500", "193050.422500", "193051.912500", "193053.402500", "193054.892500", "193056.382500", "193057.872500", "193059.362500", "193100.852500", "193102.342500", "193103.832500", "193105.322500", "193106.812500", "193108.302500", "193109.792500", "193111.282500", "193112.772500", "193114.262500", "193115.752500", "193117.242500", "193118.732500", "193120.222500", "193121.712500", "193123.202500", "193124.692500", "193126.182500", "193127.672500", "193129.162500", "193130.652500", "193132.142500", "193133.632500", "193135.122500", "193136.612500", "193138.102500", "193139.592500", "193141.082500"],
      "ContentTime": ["192029.056000", "192049.017000", "192049.020000", "192049.026000", "192049.029000", "192049.039000", "192049.042000", "192049.045000", "192049.048000", "192049.051000", "192049.054000", "192049.057000", "192049.060000", "192049.063000", "192049.066000", "192049.069000", "192049.072000", "192049.075000", "192049.078000", "192049.081000", "192049.083000", "192109.017000", "192109.020000", "192109.023000", "192109.026000", "192109.029000", "192109.032000", "192109.035000", "192109.038000", "192109.040000", "192109.043000", "192109.046000", "192109.049000", "192109.052000", "192109.055000", "192109.058000", "192109.061000", "192109.064000", "192109.082000", "192109.085000", "192109.088000", "192129.017000", "192129.020000", "192129.023000", "192129.029000", "192129.032000", "192129.035000", "192129.038000", "192129.041000", "192129.044000", "192129.047000", "192129.050000", "192129.052000", "192129.055000", "192129.058000", "192129.061000", "192129.064000", "192129.067000", "192129.070000", "192129.073000", "192129.076000", "192149.017000", "192149.020000", "192149.023000", "192149.026000", "192149.029000", "192149.032000", "192149.035000", "192149.038000", "192149.040000", "192149.043000", "192149.046000", "192149.049000", "192149.052000", "192149.055000", "192149.058000", "192149.061000", "192149.064000", "192149.067000", "192149.070000", "192149.072000", "192229.016000", "192229.019000", "192229.022000", "192229.025000", "192229.028000", "192229.031000", "192229.034000", "192229.036000", "192229.039000", "192229.042000", "192229.045000", "192229.048000", "192229.051000", "192229.054000", "192229.057000", "192229.067000", "192229.070000", "192229.073000", "192229.076000", "192229.078000", "192229.082000", "192229.084000", "192229.087000", "192229.090000", "192229.093000", "192229.096000", "192229.099000", "192229.102000", "192229.105000", "192229.108000", "192229.111000", "192229.114000", "192309.017000", "192309.020000", "192309.023000", "192309.026000", "192309.029000", "192309.033000", "192309.043000", "192309.046000", "192309.049000", "192309.052000", "192309.055000", "192309.058000", "192309.061000", "192309.064000", "192309.067000", "192309.070000", "192309.073000", "192309.076000", "192309.079000", "192309.081000", "192309.084000", "192309.087000", "192309.090000", "192309.093000", "192309.096000", "192309.099000", "192309.102000", "192349.018000", "192349.021000", "192349.024000", "192349.027000", "192349.030000", "192349.033000", "192349.036000", "192349.039000", "192349.042000", "192349.045000", "192349.048000", "192349.051000", "192349.054000", "192349.057000", "192349.059000", "192349.062000", "192349.065000", "192349.068000", "192349.071000", "192349.074000", "192349.077000", "192349.080000", "192349.083000", "192349.086000", "192349.089000", "192349.092000", "192349.095000", "192429.016000", "192429.019000", "192429.022000", "192429.025000", "192429.028000", "192429.031000", "192429.034000", "192429.037000", "192429.040000", "192429.043000", "192429.045000", "192429.048000", "192429.051000", "192429.054000", "192429.057000", "192429.060000", "192429.063000", "192429.066000", "192429.069000", "192429.072000", "192429.075000", "192429.078000", "192429.080000", "192429.083000", "192429.086000", "192429.089000", "192429.092000", "192509.016000", "192509.019000", "192509.022000", "192509.025000", "192509.028000", "192509.031000", "192509.034000", "192509.037000", "192509.040000", "192509.042000", "192509.045000", "192509.048000", "192509.051000", "192509.054000", "192509.057000", "192509.060000", "192509.063000", "192509.066000", "192509.069000", "192509.072000", "192509.075000", "192509.078000", "192509.081000", "192509.083000", "192509.086000", "192509.089000", "192509.092000", "192549.017000", "192549.020000", "192549.023000", "192549.026000", "192549.029000", "192549.032000", "192549.035000", "192549.038000", "192549.041000", "192549.044000", "192549.047000", "192549.050000", "192549.053000", "192549.068000", "192549.071000", "192549.074000", "192549.077000", "192549.080000", "192549.083000", "192549.086000", "192549.088000", "192549.091000", "192549.094000", "192549.097000", "192549.100000", "192549.103000", "192629.016000", "192629.019000", "192629.022000", "192629.025000", "192629.028000", "192629.031000", "192629.034000", "192629.037000", "192629.040000", "192629.043000", "192629.046000", "192629.049000", "192629.052000", "192629.055000", "192629.058000", "192629.061000", "192629.064000", "192629.067000", "192629.069000", "192629.072000", "192629.075000", "192629.078000", "192629.081000", "192629.084000", "192629.087000", "192629.090000", "192629.093000", "192709.016000", "192709.019000", "192709.022000", "192709.025000", "192709.028000", "192709.031000", "192709.034000", "192709.037000", "192709.040000", "192709.043000", "192709.045000", "192709.048000", "192709.051000", "192709.054000", "192709.057000", "192709.060000", "192709.063000", "192709.066000", "192709.069000", "192709.072000", "192709.075000", "192709.078000", "192709.081000", "192709.083000", "192709.086000", "192709.089000", "192709.092000", "192749.017000", "192749.020000", "192749.023000", "192749.026000", "192749.029000", "192749.032000", "192749.035000", "192749.038000", "192749.041000", "192749.044000", "192749.047000", "192749.050000", "192749.053000", "192749.056000", "192749.059000", "192749.062000", "192749.065000", "192749.068000", "192749.070000", "192749.073000", "192749.076000", "192749.079000", "192749.082000", "192749.085000", "192749.088000", "192749.091000", "192749.094000", "192829.017000", "192829.020000", "192829.023000", "192829.026000", "192829.029000", "192829.032000", "192829.035000", "192829.038000", "192829.041000", "192829.044000", "192829.046000", "192829.049000", "192829.052000", "192829.055000", "192829.058000", "192829.061000", "192829.064000", "192829.067000", "192829.070000", "192829.073000", "192829.076000", "192829.079000", "192829.082000", "192829.084000", "192829.087000", "192829.090000", "192829.093000", "192909.016000", "192909.019000", "192909.022000", "192909.025000", "192909.028000", "192909.031000", "192909.034000", "192909.037000", "192909.040000", "192909.043000", "192909.046000", "192909.049000", "192909.052000", "192909.055000", "192909.057000", "192909.060000", "192909.063000", "192909.066000", "192909.069000", "192909.072000", "192909.075000", "192909.078000", "192909.081000", "192909.084000", "192909.087000", "192909.090000", "192909.093000", "192949.016000", "192949.019000", "192949.022000", "192949.025000", "192949.028000", "192949.031000", "192949.034000", "192949.037000", "192949.040000", "192949.043000", "192949.045000", "192949.048000", "192949.051000", "192949.054000", "192949.057000", "192949.060000", "192949.063000", "192949.066000", "192949.069000", "192949.072000", "192949.075000", "192949.078000", "192949.081000", "192949.084000", "192949.087000", "192949.090000", "192949.093000", "193029.017000", "193029.020000", "193029.023000", "193029.026000", "193029.029000", "193029.032000", "193029.035000", "193029.038000", "193029.041000", "193029.056000", "193029.059000", "193029.062000", "193029.066000", "193029.069000", "193029.072000", "193029.075000", "193029.077000", "193029.080000", "193029.083000", "193029.086000", "193029.089000", "193029.092000", "193029.095000", "193029.098000", "193029.101000", "193029.104000", "193109.016000", "193109.019000", "193109.022000", "193109.025000", "193109.028000", "193109.031000", "193109.034000", "193109.037000", "193109.040000", "193109.043000", "193109.046000", "193109.049000", "193109.052000", "193109.054000", "193109.057000", "193109.060000", "193109.063000", "193109.066000", "193109.069000", "193109.072000", "193109.075000", "193109.078000", "193109.081000", "193109.084000", "193109.087000", "193109.090000", "193109.092000", "193143.681000", "193143.685000", "193143.687000", "193143.690000", "193143.693000", "193143.696000", "193143.699000", "193143.702000", "193143.705000", "193143.708000", "193143.711000", "193143.714000", "193143.717000", "193143.720000", "193143.723000", "193143.726000", "193143.729000", "193143.732000", "193143.735000", "193143.739000", "193143.742000", "193143.745000", "193143.748000", "193143.751000"],
