{
  "AcquisitionMatrixPE": 104,
  "AcquisitionNumber": 1,
  "AcquisitionTime": "19:32:59.997500",
  "BandwidthPerPixelPhaseEncode": 17.17,
  "BaseResolution": 104,
  "BodyPartExamined": "BRAIN",
  "CoilCombinationMethod": "Sum of Squares",
  "ConsistencyInfo": "N4_VE11C_LATEST_20160120",
  "ConversionSoftware": "dcm2niix",
  "ConversionSoftwareVersion": "v1.0.20211006",
  "DerivedVendorReportedEchoSpacing": 0.000560011,
  "DeviceSerialNumber": "167006",
  "DwellTime": 2.1e-06,
  "EchoTime": 0.037,
  "EchoTrainLength": 104,
  "EffectiveEchoSpacing": 0.000560011,
  "FlipAngle": 52,
  "HeudiconvVersion": "0.11.3.post9+gc939bf8",
  "ImageComments": "Unaliased MB4/PE3/LB",
  "ImageOrientationPatientDICOM": [0.999552, -0.0288588, -0.00793128, 0.0239048, 0.929273, -0.36862],
  "ImageOrientationText": "Tra>Cor(-21.6)>Sag(-1.0)",
  "ImageType": [
    "ORIGINAL",
    "PRIMARY",
    "M",
    "MB",
    "ND",
    "MOSAIC"
],
  "ImagingFrequency": 123.259,
  "InPlanePhaseEncodingDirectionDICOM": "COL",
  "InstitutionAddress": "Chemin Queen-Mary 4565,Montreal,District,CA,H3W 1W5",
  "InstitutionName": "IUGM",
  "InstitutionalDepartmentName": "Department",
  "MRAcquisitionType": "2D",
  "MagneticFieldStrength": 3,
  "Manufacturer": "Siemens",
  "ManufacturersModelName": "Prisma_fit",
  "MatrixCoilMode": "SENSE",
  "Modality": "MR",
  "MultibandAccelerationFactor": 4,
  "PartialFourier": 1,
  "PatientPosition": "HFS",
  "PercentPhaseFOV": 100,
  "PercentSampling": 100,
  "PhaseEncodingDirection": "j",
  "PhaseEncodingSteps": 104,
  "PhaseResolution": 1,
  "PixelBandwidth": 2290,
  "ProcedureStepDescription": "video^friends",
  "ProtocolName": "func_task-friends-s06e23a",
  "PulseSequenceDetails": "%CustomerSeq%\\cmrr_mbep2d_bold",
  "ReceiveCoilActiveElements": "HC1-7;NC1,2",
  "ReceiveCoilName": "HeadNeck_64",
  "ReconMatrixPE": 104,
  "RepetitionTime": 1.49,
  "SAR": 0.0672526,
  "ScanOptions": "FS",
  "ScanningSequence": "EP",
  "SequenceName": "epfid2d1_104",
  "SequenceVariant": "SK\\SS",
  "SeriesDescription": "func_task-friends-s06e23a",
  "SeriesNumber": 18,
  "ShimSetting": [615, -7260, -8823, 439, 27, -349, 3, 25],
  "SliceThickness": 2,
  "SliceTiming": [0, 0.7825, 0.0975, 0.8825, 0.195, 0.98, 0.2925, 1.0775, 0.3925, 1.175, 0.49, 1.2725, 0.5875, 1.3725, 0.685, 0, 0.7825, 0.0975, 0.8825, 0.195, 0.98, 0.2925, 1.0775, 0.3925, 1.175, 0.49, 1.2725, 0.5875, 1.3725, 0.685, 0, 0.7825, 0.0975, 0.8825, 0.195, 0.98, 0.2925, 1.0775, 0.3925, 1.175, 0.49, 1.2725, 0.5875, 1.3725, 0.685, 0, 0.7825, 0.0975, 0.8825, 0.195, 0.98, 0.2925, 1.0775, 0.3925, 1.175, 0.49, 1.2725, 0.5875, 1.3725, 0.685],
  "SoftwareVersions": "syngo MR E11",
  "SpacingBetweenSlices": 2,
  "StationName": "MRC35049",
  "TaskName": "s06e23a",
  "TotalReadoutTime": 0.0576811,
  "TxRefAmp": 280.369,
  "WipMemBlock": "838d18f8-44c5-49e9-a2a8-6d4c7557f786||Sequence: R017 ve11c/master r/75a17815+; Jun 28 2022 16:32:11 by eja",
  "dcmmeta_affine": [
    [-1.9991040229797363, 0.04780954867601395, -0.03601650521159172, 98.14552307128906],
    [0.057717595249414444, 1.8585455417633057, -0.736530601978302, -73.32421112060547],
    [-0.015862559899687767, 0.7372400164604187, 1.8590925931930542, -61.61762237548828],
    [0.0, 0.0, 0.0, 1.0]
],
  "dcmmeta_reorient_transform": [
    [0.0, -1.0, 0.0, 103.0],
    [1.0, 0.0, 0.0, 0.0],
    [0.0, 0.0, 1.0, 0.0],
    [0.0, 0.0, 0.0, 1.0]
],
  "dcmmeta_shape": [104, 104, 60, 486],
  "dcmmeta_slice_dim": 2,
  "dcmmeta_version": 0.6,
  "global": {
    "const": {
      "AcquisitionMatrix": [104, 0, 0, 104],
      "AngioFlag": "N",
      "BitsAllocated": 16,
      "BitsStored": 16,
      "BodyPartExamined": "BRAIN",
      "Columns": 832,
      "EchoNumbers": 1,
      "EchoTime": 37.0,
      "EchoTrainLength": 104,
      "FlipAngle": 52.0,
      "HighBit": 15,
      "ImageOrientationPatient": [0.99955203195205, -0.0288587979473, -0.0079312799445, 0.02390477446696, 0.92927274835393, -0.3686200224139],
      "ImagePositionPatient": [-848.14646192934, -773.60732978821, 288.44745045366],
      "ImageType": [
        "ORIGINAL",
        "PRIMARY",
        "M",
        "MB",
        "ND",
        "MOSAIC"
],
      "ImagedNucleus": "1H",
      "ImagingFrequency": 123.258782,
      "InPlanePhaseEncodingDirection": "COL",
      "MRAcquisitionType": "2D",
      "MagneticFieldStrength": 3.0,
      "Manufacturer": "SIEMENS",
      "ManufacturerModelName": "Prisma_fit",
      "Modality": "MR",
      "NumberOfAverages": 1.0,
      "NumberOfPhaseEncodingSteps": 104,
      "PercentPhaseFieldOfView": 100.0,
      "PercentSampling": 100.0,
      "PerformedProcedureStepStartTime": "183639.296000",
      "PhotometricInterpretation": "MONOCHROME2",
      "PixelBandwidth": 2290.0,
      "PixelRepresentation": 0,
      "PixelSpacing": [2.0, 2.0],
      "ProtocolName": "func_task-friends-s06e23a",
      "RepetitionTime": 1490.0,
      "Rows": 832,
      "SAR": 0.06725259828652,
      "SamplesPerPixel": 1,
      "ScanOptions": "FS",
      "ScanningSequence": "EP",
      "SequenceName": "epfid2d1_104",
      "SequenceVariant": [
        "SK",
        "SS"
],
      "SeriesDescription": "func_task-friends-s06e23a",
      "SeriesNumber": 18,
      "SeriesTime": "193426.470000",
      "SliceLocation": -32.041101078488,
      "SliceThickness": 2.0,
      "SmallestImagePixelValue": 0,
      "SoftwareVersions": "syngo MR E11",
      "SpacingBetweenSlices": 1.9999999528035,
      "SpecificCharacterSet": "ISO_IR 100",
      "StudyID": "1",
      "StudyTime": "183639.232000",
      "TransmitCoilName": "Body",
      "VariableFlipAngleFlag": "N",
      "WindowCenterWidthExplanation": "Algo1",
      "dBdt": 0.0},
    "slices": {}
  },
  "time": {
    "samples": {
      "AcquisitionNumber": [1, 2, 3, 4, 5, 6, 7, 8, 9, 10, 11, 12, 13, 14, 15, 16, 17, 18, 19, 20, 21, 22, 23, 24, 25, 26, 27, 28, 29, 30, 31, 32, 33, 34, 35, 36, 37, 38, 39, 40, 41, 42, 43, 44, 45, 46, 47, 48, 49, 50, 51, 52, 53, 54, 55, 56, 57, 58, 59, 60, 61, 62, 63, 64, 65, 66, 67, 68, 69, 70, 71, 72, 73, 74, 75, 76, 77, 78, 79, 80, 81, 82, 83, 84, 85, 86, 87, 88, 89, 90, 91, 92, 93, 94, 95, 96, 97, 98, 99, 100, 101, 102, 103, 104, 105, 106, 107, 108, 109, 110, 111, 112, 113, 114, 115, 116, 117, 118, 119, 120, 121, 122, 123, 124, 125, 126, 127, 128, 129, 130, 131, 132, 133, 134, 135, 136, 137, 138, 139, 140, 141, 142, 143, 144, 145, 146, 147, 148, 149, 150, 151, 152, 153, 154, 155, 156, 157, 158, 159, 160, 161, 162, 163, 164, 165, 166, 167, 168, 169, 170, 171, 172, 173, 174, 175, 176, 177, 178, 179, 180, 181, 182, 183, 184, 185, 186, 187, 188, 189, 190, 191, 192, 193, 194, 195, 196, 197, 198, 199, 200, 201, 202, 203, 204, 205, 206, 207, 208, 209, 210, 211, 212, 213, 214, 215, 216, 217, 218, 219, 220, 221, 222, 223, 224, 225, 226, 227, 228, 229, 230, 231, 232, 233, 234, 235, 236, 237, 238, 239, 240, 241, 242, 243, 244, 245, 246, 247, 248, 249, 250, 251, 252, 253, 254, 255, 256, 257, 258, 259, 260, 261, 262, 263, 264, 265, 266, 267, 268, 269, 270, 271, 272, 273, 274, 275, 276, 277, 278, 279, 280, 281, 282, 283, 284, 285, 286, 287, 288, 289, 290, 291, 292, 293, 294, 295, 296, 297, 298, 299, 300, 301, 302, 303, 304, 305, 306, 307, 308, 309, 310, 311, 312, 313, 314, 315, 316, 317, 318, 319, 320, 321, 322, 323, 324, 325, 326, 327, 328, 329, 330, 331, 332, 333, 334, 335, 336, 337, 338, 339, 340, 341, 342, 343, 344, 345, 346, 347, 348, 349, 350, 351, 352, 353, 354, 355, 356, 357, 358, 359, 360, 361, 362, 363, 364, 365, 366, 367, 368, 369, 370, 371, 372, 373, 374, 375, 376, 377, 378, 379, 380, 381, 382, 383, 384, 385, 386, 387, 388, 389, 390, 391, 392, 393, 394, 395, 396, 397, 398, 399, 400, 401, 402, 403, 404, 405, 406, 407, 408, 409, 410, 411, 412, 413, 414, 415, 416, 417, 418, 419, 420, 421, 422, 423, 424, 425, 426, 427, 428, 429, 430, 431, 432, 433, 434, 435, 436, 437, 438, 439, 440, 441, 442, 443, 444, 445, 446, 447, 448, 449, 450, 451, 452, 453, 454, 455, 456, 457, 458, 459, 460, 461, 462, 463, 464, 465, 466, 467, 468, 469, 470, 471, 472, 473, 474, 475, 476, 477, 478, 479, 480, 481, 482, 483, 484, 485, 486],
      "AcquisitionTime": ["193259.997500", "193301.487500", "193302.977500", "193304.467500", "193305.957500", "193307.447500", "193308.937500", "193310.427500", "193311.917500", "193313.407500", "193314.897500", "193316.387500", "193317.877500", "193319.367500", "193320.857500", "193322.347500", "193323.837500", "193325.327500", "193326.817500", "193328.307500", "193329.797500", "193331.287500", "193332.777500", "193334.267500", "193335.757500", "193337.247500", "193338.737500", "193340.227500", "193341.717500", "193343.207500", "193344.697500", "193346.187500", "193347.677500", "193349.167500", "193350.657500", "193352.147500", "193353.637500", "193355.127500", "193356.617500", "193358.107500", "193359.597500", "193401.087500", "193402.577500", "193404.067500", "193405.557500", "193407.047500", "193408.537500", "193410.027500", "193411.517500", "193413.007500", "193414.497500", "193415.987500", "193417.477500", "193418.967500", "193420.457500", "193421.947500", "193423.437500", "193424.927500", "193426.417500", "193427.907500", "193429.397500", "193430.887500", "193432.377500", "193433.867500", "193435.357500", "193436.847500", "193438.337500", "193439.827500", "193441.317500", "193442.807500", "193444.297500", "193445.787500", "193447.277500", "193448.767500", "193450.257500", "193451.747500", "193453.237500", "193454.727500", "193456.217500", "193457.707500", "193459.197500", "193500.687500", "193502.177500", "193503.667500", "193505.157500", "193506.647500", "193508.137500", "193509.627500", "193511.117500", "193512.607500", "193514.097500", "193515.587500", "193517.077500", "193518.567500", "193520.057500", "193521.547500", "193523.037500", "193524.527500", "193526.017500", "193527.507500", "193528.997500", "193530.487500", "193531.977500", "193533.467500", "193534.957500", "193536.447500", "193537.937500", "193539.427500", "193540.917500", "193542.407500", "193543.897500", "193545.387500", "193546.877500", "193548.367500", "193549.857500", "193551.347500", "193552.837500", "193554.327500", "193555.817500", "193557.307500", "193558.797500", "193600.287500", "193601.777500", "193603.267500", "193604.757500", "193606.247500", "193607.737500", "193609.227500", "193610.717500", "193612.207500", "193613.697500", "193615.187500", "193616.677500", "193618.167500", "193619.657500", "193621.147500", "193622.637500", "193624.127500", "193625.617500", "193627.107500", "193628.597500", "193630.087500", "193631.577500", "193633.067500", "193634.557500", "193636.047500", "193637.537500", "193639.027500", "193640.517500", "193642.007500", "193643.497500", "193644.987500", "193646.477500", "193647.967500", "193649.457500", "193650.947500", "193652.437500", "193653.927500", "193655.417500", "193656.907500", "193658.397500", "193659.887500", "193701.377500", "193702.867500", "193704.357500", "193705.847500", "193707.337500", "193708.827500", "193710.317500", "193711.807500", "193713.297500", "193714.787500", "193716.277500", "193717.767500", "193719.257500", "193720.747500", "193722.237500", "193723.727500", "193725.217500", "193726.707500", "193728.197500", "193729.687500", "193731.177500", "193732.667500", "193734.157500", "193735.647500", "193737.137500", "193738.627500", "193740.117500", "193741.607500", "193743.097500", "193744.587500", "193746.077500", "193747.567500", "193749.057500", "193750.547500", "193752.037500", "193753.527500", "193755.017500", "193756.507500", "193757.997500", "193759.487500", "193800.977500", "193802.467500", "193803.957500", "193805.447500", "193806.937500", "193808.427500", "193809.917500", "193811.407500", "193812.897500", "193814.387500", "193815.877500", "193817.367500", "193818.857500", "193820.347500", "193821.837500", "193823.327500", "193824.817500", "193826.307500", "193827.797500", "193829.287500", "193830.777500", "193832.267500", "193833.757500", "193835.247500", "193836.737500", "193838.227500", "193839.717500", "193841.207500", "193842.697500", "193844.187500", "193845.677500", "193847.167500", "193848.657500", "193850.147500", "193851.637500", "193853.127500", "193854.617500", "193856.107500", "193857.597500", "193859.087500", "193900.577500", "193902.067500", "193903.557500", "193905.047500", "193906.537500", "193908.027500", "193909.517500", "193911.007500", "193912.497500", "193913.987500", "193915.477500", "193916.967500", "193918.457500", "193919.947500", "193921.437500", "193922.927500", "193924.417500", "193925.907500", "193927.397500", "193928.887500", "193930.377500", "193931.867500", "193933.357500", "193934.847500", "193936.337500", "193937.827500", "193939.317500", "193940.807500", "193942.297500", "193943.787500", "193945.277500", "193946.767500", "193948.257500", "193949.747500", "193951.237500", "193952.727500", "193954.217500", "193955.707500", "193957.197500", "193958.687500", "194000.177500", "194001.667500", "194003.157500", "194004.647500", "194006.137500", "194007.627500", "194009.117500", "194010.607500", "194012.097500", "194013.587500", "194015.077500", "194016.567500", "194018.057500", "194019.547500", "194021.037500", "194022.527500", "194024.017500", "194025.507500", "194026.997500", "194028.487500", "194029.977500", "194031.467500", "194032.957500", "194034.447500", "194035.937500", "194037.427500", "194038.917500", "194040.407500", "194041.897500", "194043.387500", "194044.877500", "194046.367500", "194047.857500", "194049.347500", "194050.837500", "194052.327500", "194053.817500", "194055.307500", "194056.797500", "194058.287500", "194059.777500", "194101.267500", "194102.757500", "194104.247500", "194105.737500", "194107.227500", "194108.717500", "194110.207500", "194111.697500", "194113.187500", "194114.677500", "194116.167500", "194117.657500", "194119.147500", "194120.637500", "194122.127500", "194123.617500", "194125.107500", "194126.597500", "194128.087500", "194129.577500", "194131.067500", "194132.557500", "194134.047500", "194135.537500", "194137.027500", "194138.517500", "194140.007500", "194141.497500", "194142.987500", "194144.477500", "194145.967500", "194147.457500", "194148.947500", "194150.437500", "194151.927500", "194153.417500", "194154.907500", "194156.397500", "194157.887500", "194159.377500", "194200.867500", "194202.357500", "194203.847500", "194205.337500", "194206.827500", "194208.317500", "194209.807500", "194211.297500", "194212.787500", "194214.277500", "194215.767500", "194217.257500", "194218.747500", "194220.237500", "194221.727500", "194223.217500", "194224.707500", "194226.197500", "194227.687500", "194229.177500", "194230.667500", "194232.157500", "194233.647500", "194235.137500", "194236.627500", "194238.117500", "194239.607500", "194241.097500", "194242.587500", "194244.077500", "194245.567500", "194247.057500", "194248.547500", "194250.037500", "194251.527500", "194253.017500", "194254.507500", "194255.997500", "194257.487500", "194258.977500", "194300.467500", "194301.957500", "194303.447500", "194304.937500", "194306.427500", "194307.917500", "194309.407500", "194310.897500", "194312.387500", "194313.877500", "194315.367500", "194316.857500", "194318.347500", "194319.837500", "194321.327500", "194322.817500", "194324.307500", "194325.797500", "194327.287500", "194328.777500", "194330.267500", "194331.757500", "194333.247500", "194334.737500", "194336.227500", "194337.717500", "194339.207500", "194340.697500", "194342.187500", "194343.677500", "194345.167500", "194346.657500", "194348.147500", "194349.637500", "194351.127500", "194352.617500", "194354.107500", "194355.597500", "194357.087500", "194358.577500", "194400.067500", "194401.557500", "194403.047500", "194404.537500", "194406.027500", "194407.517500", "194409.007500", "194410.497500", "194411.987500", "194413.477500", "194414.967500", "194416.457500", "194417.947500", "194419.437500", "194420.927500", "194422.417500", "194423.907500", "194425.397500", "194426.887500", "194428.377500", "194429.867500", "194431.357500", "194432.847500", "194434.337500", "194435.827500", "194437.317500", "194438.807500", "194440.297500", "194441.787500", "194443.277500", "194444.767500", "194446.257500", "194447.747500", "194449.237500", "194450.727500", "194452.217500", "194453.707500", "194455.197500", "194456.687500", "194458.177500", "194459.667500", "194501.157500", "194502.647500"],
      "ContentTime": ["193426.473000", "193426.476000", "193426.479000", "193426.482000", "193426.485000", "193426.488000", "193426.491000", "193426.494000", "193426.497000", "193426.499000", "193426.502000", "193426.505000", "193426.508000", "193426.511000", "193426.514000", "193426.517000", "193426.520000", "193426.523000", "193426.526000", "193426.529000", "193426.532000", "193426.535000", "193426.537000", "193426.540000", "193426.543000", "193426.549000", "193426.552000", "193426.555000", "193426.558000", "193426.561000", "193426.564000", "193426.575000", "193426.578000", "193426.581000", "193426.584000", "193426.587000", "193426.590000", "193426.592000", "193426.595000", "193446.435000", "193446.438000", "193446.443000", "193446.446000", "193446.449000", "193446.452000", "193446.455000", "193446.458000", "193446.461000", "193446.464000", "193446.467000", "193446.469000", "193446.473000", "193446.475000", "193446.478000", "193446.481000", "193446.484000", "193446.487000", "193446.490000", "193446.493000", "193506.436000", "193506.439000", "193506.442000", "193506.445000", "193506.448000", "193506.451000", "193506.454000", "193506.457000", "193506.460000", "193506.462000", "193506.465000", "193506.468000", "193506.471000", "193506.474000", "193506.477000", "193506.480000", "193506.483000", "193506.486000", "193506.489000", "193506.492000", "193546.435000", "193546.438000", "193546.441000", "193546.444000", "193546.447000", "193546.449000", "193546.452000", "193546.455000", "193546.458000", "193546.461000", "193546.464000", "193546.467000", "193546.470000", "193546.473000", "193546.475000", "193546.478000", "193546.481000", "193546.484000", "193546.487000", "193546.490000", "193546.500000", "193546.503000", "193546.506000", "193546.509000", "193546.531000", "193546.534000", "193546.537000", "193546.540000", "193546.543000", "193546.546000", "193546.549000", "193546.552000", "193626.435000", "193626.438000", "193626.441000", "193626.444000", "193626.447000", "193626.454000", "193626.457000", "193626.460000", "193626.463000", "193626.466000", "193626.469000", "193626.471000", "193626.474000", "193626.477000", "193626.480000", "193626.483000", "193626.486000", "193626.489000", "193626.492000", "193626.494000", "193626.497000", "193626.500000", "193626.503000", "193626.506000", "193626.509000", "193626.512000", "193626.515000", "193706.435000", "193706.439000", "193706.441000", "193706.444000", "193706.447000", "193706.450000", "193706.453000", "193706.456000", "193706.459000", "193706.462000", "193706.465000", "193706.468000", "193706.471000", "193706.474000", "193706.477000", "193706.480000", "193706.483000", "193706.485000", "193706.488000", "193706.491000", "193706.494000", "193706.497000", "193706.500000", "193706.503000", "193706.506000", "193706.509000", "193746.435000", "193746.438000", "193746.441000", "193746.444000", "193746.447000", "193746.450000", "193746.453000", "193746.456000", "193746.458000", "193746.461000", "193746.464000", "193746.467000", "193746.470000", "193746.473000", "193746.476000", "193746.479000", "193746.482000", "193746.485000", "193746.488000", "193746.491000", "193746.493000", "193746.496000", "193746.499000", "193746.502000", "193746.505000", "193746.508000", "193746.511000", "193826.435000", "193826.438000", "193826.441000", "193826.444000", "193826.447000", "193826.450000", "193826.453000", "193826.456000", "193826.459000", "193826.462000", "193826.465000", "193826.468000", "193826.470000", "193826.473000", "193826.476000", "193826.479000", "193826.482000", "193826.485000", "193826.488000", "193826.491000", "193826.494000", "193826.496000", "193826.499000", "193826.502000", "193826.505000", "193826.508000", "193826.511000", "193906.435000", "193906.438000", "193906.441000", "193906.444000", "193906.447000", "193906.450000", "193906.453000", "193906.456000", "193906.459000", "193906.461000", "193906.464000", "193906.467000", "193906.470000", "193906.473000", "193906.476000", "193906.479000", "193906.482000", "193906.485000", "193906.488000", "193906.491000", "193906.493000", "193906.496000", "193906.499000", "193906.502000", "193906.505000", "193906.508000", "193906.511000", "193946.436000", "193946.439000", "193946.442000", "193946.445000", "193946.448000", "193946.451000", "193946.454000", "193946.457000", "193946.460000", "193946.463000", "193946.465000", "193946.468000", "193946.471000", "193946.474000", "193946.477000", "193946.480000", "193946.483000", "193946.486000", "193946.489000", "193946.492000", "193946.495000", "193946.498000", "193946.500000", "193946.503000", "193946.506000", "193946.509000", "193946.512000", "194026.435000", "194026.438000", "194026.441000", "194026.444000", "194026.447000", "194026.450000", "194026.453000", "194026.456000", "194026.459000", "194026.461000", "194026.464000", "194026.467000", "194026.470000", "194026.473000", "194026.476000", "194026.491000", "194026.494000", "194026.497000", "194026.500000", "194026.503000", "194026.506000", "194026.509000", "194026.512000", "194026.515000", "194026.517000", "194026.520000", "194026.523000", "194106.435000", "194106.438000", "194106.441000", "194106.444000", "194106.447000", "194106.450000", "194106.453000", "194106.456000", "194106.458000", "194106.461000", "194106.464000", "194106.467000", "194106.470000", "194106.473000", "194106.476000", "194106.479000", "194106.482000", "194106.485000", "194106.488000", "194106.490000", "194106.493000", "194106.496000", "194106.499000", "194106.502000", "194106.505000", "194106.508000", "194106.511000", "194146.435000", "194146.438000", "194146.441000", "194146.444000", "194146.447000", "194146.450000", "194146.453000", "194146.456000", "194146.459000", "194146.461000", "194146.464000", "194146.467000", "194146.470000", "194146.473000", "194146.476000", "194146.479000", "194146.482000", "194146.485000", "194146.488000", "194146.491000", "194146.494000", "194146.497000", "194146.500000", "194146.502000", "194146.505000", "194146.508000", "194226.435000", "194226.438000", "194226.441000", "194226.444000", "194226.447000", "194226.450000", "194226.453000", "194226.455000", "194226.458000", "194226.461000", "194226.464000", "194226.467000", "194226.470000", "194226.473000", "194226.476000", "194226.479000", "194226.482000", "194226.485000", "194226.488000", "194226.491000", "194226.493000", "194226.496000", "194226.499000", "194226.502000", "194226.505000", "194226.508000", "194226.511000", "194306.435000", "194306.438000", "194306.447000", "194306.450000", "194306.453000", "194306.456000", "194306.458000", "194306.461000", "194306.464000", "194306.467000", "194306.470000", "194306.473000", "194306.476000", "194306.479000", "194306.482000", "194306.485000", "194306.488000", "194306.491000", "194306.494000", "194306.497000", "194306.499000", "194306.502000", "194306.505000", "194306.509000", "194306.511000", "194306.514000", "194306.517000", "194346.435000", "194346.438000", "194346.441000", "194346.444000", "194346.447000", "194346.458000", "194346.461000", "194346.464000", "194346.467000", "194346.469000", "194346.472000", "194346.475000", "194346.478000", "194346.481000", "194346.484000", "194346.487000", "194346.490000", "194346.493000", "194346.496000", "194346.499000", "194346.502000", "194346.504000", "194346.507000", "194346.510000", "194346.513000", "194346.516000", "194346.519000", "194426.436000", "194426.439000", "194426.442000", "194426.445000", "194426.448000", "194426.451000", "194426.454000", "194426.457000", "194426.460000", "194426.462000", "194426.466000", "194426.469000", "194426.472000", "194426.475000", "194426.477000", "194426.480000", "194426.483000", "194426.486000", "194426.489000", "194426.492000", "194426.495000", "194426.498000", "194426.501000", "194426.504000", "194426.507000", "194426.510000", "194426.513000", "194504.767000", "194504.770000", "194504.773000", "194504.776000", "194504.779000", "194504.782000", "194504.785000", "194504.788000", "194504.791000", "194504.794000", "194504.797000", "194504.800000", "194504.803000", "194504.806000", "194504.808000", "194504.817000", "194504.820000", "194504.822000", "194504.825000", "194504.828000", "194504.831000", "194504.834000", "194504.837000", "194504.840000", "194504.843000", "194504.846000"],
