{
  "AcquisitionMatrixPE": 104,
  "AcquisitionNumber": 1,
  "AcquisitionTime": "19:46:18.915000",
  "BandwidthPerPixelPhaseEncode": 17.17,
  "BaseResolution": 104,
  "BodyPartExamined": "BRAIN",
  "CoilCombinationMethod": "Sum of Squares",
  "ConsistencyInfo": "N4_VE11C_LATEST_20160120",
  "ConversionSoftware": "dcm2niix",
  "ConversionSoftwareVersion": "v1.0.20211006",
  "DerivedVendorReportedEchoSpacing": 0.000560011,
  "DeviceSerialNumber": "167006",
  "DwellTime": 2.1e-06,
  "EchoTime": 0.037,
  "EchoTrainLength": 104,
  "EffectiveEchoSpacing": 0.000560011,
  "FlipAngle": 52,
  "HeudiconvVersion": "0.11.3.post9+gc939bf8",
  "ImageComments": "Unaliased MB4/PE3/LB",
  "ImageOrientationPatientDICOM": [0.999552, -0.0288588, -0.00793128, 0.0239048, 0.929273, -0.36862],
  "ImageOrientationText": "Tra>Cor(-21.6)>Sag(-1.0)",
  "ImageType": [
    "ORIGINAL",
    "PRIMARY",
    "M",
    "MB",
    "ND",
    "MOSAIC"
],
  "ImagingFrequency": 123.259,
  "InPlanePhaseEncodingDirectionDICOM": "COL",
  "InstitutionAddress": "Chemin Queen-Mary 4565,Montreal,District,CA,H3W 1W5",
  "InstitutionName": "IUGM",
  "InstitutionalDepartmentName": "Department",
  "MRAcquisitionType": "2D",
  "MagneticFieldStrength": 3,
  "Manufacturer": "Siemens",
  "ManufacturersModelName": "Prisma_fit",
  "MatrixCoilMode": "SENSE",
  "Modality": "MR",
  "MultibandAccelerationFactor": 4,
  "PartialFourier": 1,
  "PatientPosition": "HFS",
  "PercentPhaseFOV": 100,
  "PercentSampling": 100,
  "PhaseEncodingDirection": "j",
  "PhaseEncodingSteps": 104,
  "PhaseResolution": 1,
  "PixelBandwidth": 2290,
  "ProcedureStepDescription": "video^friends",
  "ProtocolName": "func_task-friends-s06e23b",
  "PulseSequenceDetails": "%CustomerSeq%\\cmrr_mbep2d_bold",
  "ReceiveCoilActiveElements": "HC1-7;NC1,2",
  "ReceiveCoilName": "HeadNeck_64",
  "ReconMatrixPE": 104,
  "RepetitionTime": 1.49,
  "SAR": 0.0672526,
  "ScanOptions": "FS",
  "ScanningSequence": "EP",
  "SequenceName": "epfid2d1_104",
  "SequenceVariant": "SK\\SS",
  "SeriesDescription": "func_task-friends-s06e23b",
  "SeriesNumber": 20,
  "ShimSetting": [615, -7260, -8823, 439, 27, -349, 3, 25],
  "SliceThickness": 2,
  "SliceTiming": [0, 0.7825, 0.0975, 0.8825, 0.195, 0.98, 0.2925, 1.0775, 0.3925, 1.175, 0.49, 1.2725, 0.5875, 1.3725, 0.685, 0, 0.7825, 0.0975, 0.8825, 0.195, 0.98, 0.2925, 1.0775, 0.3925, 1.175, 0.49, 1.2725, 0.5875, 1.3725, 0.685, 0, 0.7825, 0.0975, 0.8825, 0.195, 0.98, 0.2925, 1.0775, 0.3925, 1.175, 0.49, 1.2725, 0.5875, 1.3725, 0.685, 0, 0.7825, 0.0975, 0.8825, 0.195, 0.98, 0.2925, 1.0775, 0.3925, 1.175, 0.49, 1.2725, 0.5875, 1.3725, 0.685],
  "SoftwareVersions": "syngo MR E11",
  "SpacingBetweenSlices": 2,
  "StationName": "MRC35049",
  "TaskName": "s06e23b",
  "TotalReadoutTime": 0.0576811,
  "TxRefAmp": 280.369,
  "WipMemBlock": "48a0d95a-5804-4944-a466-b0266eea884f||Sequence: R017 ve11c/master r/75a17815+; Jun 28 2022 16:32:11 by eja",
  "dcmmeta_affine": [
    [-1.9991040229797363, 0.04780954867601395, -0.03601650521159172, 98.14552307128906],
    [0.057717595249414444, 1.8585455417633057, -0.736530601978302, -73.32421112060547],
    [-0.015862559899687767, 0.7372400164604187, 1.8590925931930542, -61.61762237548828],
    [0.0, 0.0, 0.0, 1.0]
],
  "dcmmeta_reorient_transform": [
    [0.0, -1.0, 0.0, 103.0],
    [1.0, 0.0, 0.0, 0.0],
    [0.0, 0.0, 1.0, 0.0],
    [0.0, 0.0, 0.0, 1.0]
],
  "dcmmeta_shape": [104, 104, 60, 520],
  "dcmmeta_slice_dim": 2,
  "dcmmeta_version": 0.6,
  "global": {
    "const": {
      "AcquisitionMatrix": [104, 0, 0, 104],
      "AngioFlag": "N",
      "BitsAllocated": 16,
      "BitsStored": 16,
      "BodyPartExamined": "BRAIN",
      "Columns": 832,
      "EchoNumbers": 1,
      "EchoTime": 37.0,
      "EchoTrainLength": 104,
      "FlipAngle": 52.0,
      "HighBit": 15,
      "ImageOrientationPatient": [0.99955203195205, -0.0288587979473, -0.0079312799445, 0.02390477446696, 0.92927274835393, -0.3686200224139],
      "ImagePositionPatient": [-848.14646192934, -773.60732978821, 288.44745045366],
      "ImageType": [
        "ORIGINAL",
        "PRIMARY",
        "M",
        "MB",
        "ND",
        "MOSAIC"
],
      "ImagedNucleus": "1H",
      "ImagingFrequency": 123.258776,
      "InPlanePhaseEncodingDirection": "COL",
      "MRAcquisitionType": "2D",
      "MagneticFieldStrength": 3.0,
      "Manufacturer": "SIEMENS",
      "ManufacturerModelName": "Prisma_fit",
      "Modality": "MR",
      "NumberOfAverages": 1.0,
      "NumberOfPhaseEncodingSteps": 104,
      "PercentPhaseFieldOfView": 100.0,
      "PercentSampling": 100.0,
      "PerformedProcedureStepStartTime": "183639.296000",
      "PhotometricInterpretation": "MONOCHROME2",
      "PixelBandwidth": 2290.0,
      "PixelRepresentation": 0,
      "PixelSpacing": [2.0, 2.0],
      "ProtocolName": "func_task-friends-s06e23b",
      "RepetitionTime": 1490.0,
      "Rows": 832,
      "SAR": 0.06725259415614,
      "SamplesPerPixel": 1,
      "ScanOptions": "FS",
      "ScanningSequence": "EP",
      "SequenceName": "epfid2d1_104",
      "SequenceVariant": [
        "SK",
        "SS"
],
      "SeriesDescription": "func_task-friends-s06e23b",
      "SeriesNumber": 20,
      "SeriesTime": "194738.219000",
      "SliceLocation": -32.041101078488,
      "SliceThickness": 2.0,
      "SmallestImagePixelValue": 0,
      "SoftwareVersions": "syngo MR E11",
      "SpacingBetweenSlices": 1.9999999528035,
      "SpecificCharacterSet": "ISO_IR 100",
      "StudyID": "1",
      "StudyTime": "183639.232000",
      "TransmitCoilName": "Body",
      "VariableFlipAngleFlag": "N",
      "WindowCenterWidthExplanation": "Algo1",
      "dBdt": 0.0},
    "slices": {}
  },
  "time": {
    "samples": {
      "AcquisitionNumber": [1, 2, 3, 4, 5, 6, 7, 8, 9, 10, 11, 12, 13, 14, 15, 16, 17, 18, 19, 20, 21, 22, 23, 24, 25, 26, 27, 28, 29, 30, 31, 32, 33, 34, 35, 36, 37, 38, 39, 40, 41, 42, 43, 44, 45, 46, 47, 48, 49, 50, 51, 52, 53, 54, 55, 56, 57, 58, 59, 60, 61, 62, 63, 64, 65, 66, 67, 68, 69, 70, 71, 72, 73, 74, 75, 76, 77, 78, 79, 80, 81, 82, 83, 84, 85, 86, 87, 88, 89, 90, 91, 92, 93, 94, 95, 96, 97, 98, 99, 100, 101, 102, 103, 104, 105, 106, 107, 108, 109, 110, 111, 112, 113, 114, 115, 116, 117, 118, 119, 120, 121, 122, 123, 124, 125, 126, 127, 128, 129, 130, 131, 132, 133, 134, 135, 136, 137, 138, 139, 140, 141, 142, 143, 144, 145, 146, 147, 148, 149, 150, 151, 152, 153, 154, 155, 156, 157, 158, 159, 160, 161, 162, 163, 164, 165, 166, 167, 168, 169, 170, 171, 172, 173, 174, 175, 176, 177, 178, 179, 180, 181, 182, 183, 184, 185, 186, 187, 188, 189, 190, 191, 192, 193, 194, 195, 196, 197, 198, 199, 200, 201, 202, 203, 204, 205, 206, 207, 208, 209, 210, 211, 212, 213, 214, 215, 216, 217, 218, 219, 220, 221, 222, 223, 224, 225, 226, 227, 228, 229, 230, 231, 232, 233, 234, 235, 236, 237, 238, 239, 240, 241, 242, 243, 244, 245, 246, 247, 248, 249, 250, 251, 252, 253, 254, 255, 256, 257, 258, 259, 260, 261, 262, 263, 264, 265, 266, 267, 268, 269, 270, 271, 272, 273, 274, 275, 276, 277, 278, 279, 280, 281, 282, 283, 284, 285, 286, 287, 288, 289, 290, 291, 292, 293, 294, 295, 296, 297, 298, 299, 300, 301, 302, 303, 304, 305, 306, 307, 308, 309, 310, 311, 312, 313, 314, 315, 316, 317, 318, 319, 320, 321, 322, 323, 324, 325, 326, 327, 328, 329, 330, 331, 332, 333, 334, 335, 336, 337, 338, 339, 340, 341, 342, 343, 344, 345, 346, 347, 348, 349, 350, 351, 352, 353, 354, 355, 356, 357, 358, 359, 360, 361, 362, 363, 364, 365, 366, 367, 368, 369, 370, 371, 372, 373, 374, 375, 376, 377, 378, 379, 380, 381, 382, 383, 384, 385, 386, 387, 388, 389, 390, 391, 392, 393, 394, 395, 396, 397, 398, 399, 400, 401, 402, 403, 404, 405, 406, 407, 408, 409, 410, 411, 412, 413, 414, 415, 416, 417, 418, 419, 420, 421, 422, 423, 424, 425, 426, 427, 428, 429, 430, 431, 432, 433, 434, 435, 436, 437, 438, 439, 440, 441, 442, 443, 444, 445, 446, 447, 448, 449, 450, 451, 452, 453, 454, 455, 456, 457, 458, 459, 460, 461, 462, 463, 464, 465, 466, 467, 468, 469, 470, 471, 472, 473, 474, 475, 476, 477, 478, 479, 480, 481, 482, 483, 484, 485, 486, 487, 488, 489, 490, 491, 492, 493, 494, 495, 496, 497, 498, 499, 500, 501, 502, 503, 504, 505, 506, 507, 508, 509, 510, 511, 512, 513, 514, 515, 516, 517, 518, 519, 520],
      "AcquisitionTime": ["194618.915000", "194620.405000", "194621.895000", "194623.385000", "194624.875000", "194626.365000", "194627.855000", "194629.345000", "194630.835000", "194632.325000", "194633.815000", "194635.305000", "194636.795000", "194638.285000", "194639.775000", "194641.265000", "194642.755000", "194644.245000", "194645.735000", "194647.225000", "194648.715000", "194650.205000", "194651.695000", "194653.185000", "194654.675000", "194656.165000", "194657.655000", "194659.145000", "194700.635000", "194702.125000", "194703.615000", "194705.105000", "194706.595000", "194708.085000", "194709.575000", "194711.065000", "194712.555000", "194714.045000", "194715.535000", "194717.025000", "194718.515000", "194720.005000", "194721.495000", "194722.985000", "194724.475000", "194725.965000", "194727.455000", "194728.945000", "194730.435000", "194731.925000", "194733.415000", "194734.905000", "194736.395000", "194737.885000", "194739.375000", "194740.865000", "194742.355000", "194743.845000", "194745.335000", "194746.825000", "194748.315000", "194749.805000", "194751.295000", "194752.785000", "194754.275000", "194755.765000", "194757.255000", "194758.745000", "194800.235000", "194801.725000", "194803.215000", "194804.705000", "194806.195000", "194807.685000", "194809.175000", "194810.665000", "194812.155000", "194813.645000", "194815.135000", "194816.625000", "194818.115000", "194819.605000", "194821.095000", "194822.585000", "194824.075000", "194825.565000", "194827.055000", "194828.545000", "194830.035000", "194831.525000", "194833.015000", "194834.505000", "194835.995000", "194837.485000", "194838.975000", "194840.465000", "194841.955000", "194843.445000", "194844.935000", "194846.425000", "194847.915000", "194849.405000", "194850.895000", "194852.385000", "194853.875000", "194855.365000", "194856.855000", "194858.345000", "194859.835000", "194901.325000", "194902.815000", "194904.305000", "194905.795000", "194907.285000", "194908.775000", "194910.265000", "194911.755000", "194913.245000", "194914.735000", "194916.225000", "194917.715000", "194919.205000", "194920.695000", "194922.185000", "194923.675000", "194925.165000", "194926.655000", "194928.145000", "194929.635000", "194931.125000", "194932.615000", "194934.105000", "194935.595000", "194937.085000", "194938.575000", "194940.065000", "194941.555000", "194943.045000", "194944.535000", "194946.025000", "194947.515000", "194949.005000", "194950.495000", "194951.985000", "194953.475000", "194954.965000", "194956.455000", "194957.945000", "194959.435000", "195000.925000", "195002.415000", "195003.905000", "195005.395000", "195006.885000", "195008.375000", "195009.865000", "195011.355000", "195012.845000", "195014.335000", "195015.825000", "195017.315000", "195018.805000", "195020.295000", "195021.785000", "195023.275000", "195024.765000", "195026.255000", "195027.745000", "195029.235000", "195030.725000", "195032.215000", "195033.705000", "195035.195000", "195036.685000", "195038.175000", "195039.665000", "195041.155000", "195042.645000", "195044.135000", "195045.625000", "195047.115000", "195048.605000", "195050.095000", "195051.585000", "195053.075000", "195054.565000", "195056.055000", "195057.545000", "195059.035000", "195100.525000", "195102.015000", "195103.505000", "195104.995000", "195106.485000", "195107.975000", "195109.465000", "195110.955000", "195112.445000", "195113.935000", "195115.425000", "195116.915000", "195118.405000", "195119.895000", "195121.385000", "195122.875000", "195124.365000", "195125.855000", "195127.345000", "195128.835000", "195130.325000", "195131.815000", "195133.305000", "195134.795000", "195136.285000", "195137.775000", "195139.265000", "195140.755000", "195142.245000", "195143.735000", "195145.225000", "195146.715000", "195148.205000", "195149.695000", "195151.185000", "195152.675000", "195154.165000", "195155.655000", "195157.145000", "195158.635000", "195200.125000", "195201.615000", "195203.105000", "195204.595000", "195206.085000", "195207.575000", "195209.065000", "195210.555000", "195212.045000", "195213.535000", "195215.025000", "195216.515000", "195218.005000", "195219.495000", "195220.985000", "195222.475000", "195223.965000", "195225.455000", "195226.945000", "195228.435000", "195229.925000", "195231.415000", "195232.905000", "195234.395000", "195235.885000", "195237.375000", "195238.865000", "195240.355000", "195241.845000", "195243.335000", "195244.825000", "195246.315000", "195247.805000", "195249.295000", "195250.785000", "195252.275000", "195253.765000", "195255.255000", "195256.745000", "195258.235000", "195259.725000", "195301.215000", "195302.705000", "195304.195000", "195305.685000", "195307.175000", "195308.665000", "195310.155000", "195311.645000", "195313.135000", "195314.625000", "195316.115000", "195317.605000", "195319.095000", "195320.585000", "195322.075000", "195323.565000", "195325.055000", "195326.545000", "195328.035000", "195329.525000", "195331.015000", "195332.505000", "195333.995000", "195335.485000", "195336.975000", "195338.465000", "195339.955000", "195341.445000", "195342.935000", "195344.425000", "195345.915000", "195347.405000", "195348.895000", "195350.385000", "195351.875000", "195353.365000", "195354.855000", "195356.345000", "195357.835000", "195359.325000", "195400.815000", "195402.305000", "195403.795000", "195405.285000", "195406.775000", "195408.265000", "195409.755000", "195411.245000", "195412.735000", "195414.225000", "195415.715000", "195417.205000", "195418.695000", "195420.185000", "195421.675000", "195423.165000", "195424.655000", "195426.145000", "195427.635000", "195429.125000", "195430.615000", "195432.105000", "195433.595000", "195435.085000", "195436.575000", "195438.065000", "195439.555000", "195441.045000", "195442.535000", "195444.025000", "195445.515000", "195447.005000", "195448.495000", "195449.985000", "195451.475000", "195452.965000", "195454.455000", "195455.945000", "195457.435000", "195458.925000", "195500.415000", "195501.905000", "195503.395000", "195504.885000", "195506.375000", "195507.865000", "195509.355000", "195510.845000", "195512.335000", "195513.825000", "195515.315000", "195516.805000", "195518.295000", "195519.785000", "195521.275000", "195522.765000", "195524.255000", "195525.745000", "195527.235000", "195528.725000", "195530.215000", "195531.705000", "195533.195000", "195534.685000", "195536.175000", "195537.665000", "195539.155000", "195540.645000", "195542.135000", "195543.625000", "195545.115000", "195546.605000", "195548.095000", "195549.585000", "195551.075000", "195552.565000", "195554.055000", "195555.545000", "195557.035000", "195558.525000", "195600.015000", "195601.505000", "195602.995000", "195604.485000", "195605.975000", "195607.465000", "195608.955000", "195610.445000", "195611.935000", "195613.425000", "195614.915000", "195616.405000", "195617.895000", "195619.385000", "195620.875000", "195622.365000", "195623.855000", "195625.345000", "195626.835000", "195628.325000", "195629.815000", "195631.305000", "195632.795000", "195634.285000", "195635.775000", "195637.265000", "195638.755000", "195640.245000", "195641.735000", "195643.225000", "195644.715000", "195646.205000", "195647.695000", "195649.185000", "195650.675000", "195652.165000", "195653.655000", "195655.145000", "195656.635000", "195658.125000", "195659.615000", "195701.105000", "195702.595000", "195704.085000", "195705.575000", "195707.065000", "195708.555000", "195710.045000", "195711.535000", "195713.025000", "195714.515000", "195716.005000", "195717.495000", "195718.985000", "195720.475000", "195721.965000", "195723.455000", "195724.945000", "195726.435000", "195727.925000", "195729.415000", "195730.905000", "195732.395000", "195733.885000", "195735.375000", "195736.865000", "195738.355000", "195739.845000", "195741.335000", "195742.825000", "195744.315000", "195745.805000", "195747.295000", "195748.785000", "195750.275000", "195751.765000", "195753.255000", "195754.745000", "195756.235000", "195757.725000", "195759.215000", "195800.705000", "195802.195000", "195803.685000", "195805.175000", "195806.665000", "195808.155000", "195809.645000", "195811.135000", "195812.625000", "195814.115000", "195815.605000", "195817.095000", "195818.585000", "195820.075000", "195821.565000", "195823.055000", "195824.545000", "195826.035000", "195827.525000", "195829.015000", "195830.505000", "195831.995000", "195833.485000", "195834.975000", "195836.465000", "195837.955000", "195839.445000", "195840.935000", "195842.425000", "195843.915000", "195845.405000", "195846.895000", "195848.385000", "195849.875000", "195851.365000", "195852.855000", "195854.345000", "195855.835000", "195857.325000", "195858.815000", "195900.305000", "195901.795000", "195903.285000", "195904.775000", "195906.265000", "195907.755000", "195909.245000", "195910.735000", "195912.225000"],
      "ContentTime": ["194738.222000", "194738.226000", "194738.229000", "194738.235000", "194738.246000", "194738.249000", "194738.252000", "194738.255000", "194738.258000", "194738.260000", "194738.263000", "194738.266000", "194738.269000", "194738.272000", "194738.275000", "194738.278000", "194738.281000", "194738.284000", "194738.287000", "194738.289000", "194738.302000", "194738.305000", "194738.308000", "194738.311000", "194738.314000", "194738.317000", "194738.320000", "194738.323000", "194738.325000", "194738.328000", "194758.184000", "194758.187000", "194758.190000", "194758.193000", "194758.196000", "194758.199000", "194758.202000", "194758.205000", "194758.208000", "194758.215000", "194758.218000", "194758.221000", "194758.224000", "194758.227000", "194758.229000", "194758.233000", "194758.235000", "194758.238000", "194758.241000", "194758.244000", "194818.184000", "194818.187000", "194818.190000", "194818.193000", "194818.196000", "194818.199000", "194818.202000", "194818.204000", "194818.207000", "194818.210000", "194818.213000", "194818.216000", "194818.219000", "194818.222000", "194818.225000", "194818.227000", "194818.230000", "194818.233000", "194818.236000", "194818.239000", "194838.184000", "194838.187000", "194838.190000", "194838.193000", "194838.196000", "194838.199000", "194838.201000", "194838.214000", "194838.217000", "194838.220000", "194838.223000", "194838.226000", "194838.229000", "194838.232000", "194838.235000", "194838.238000", "194838.240000", "194838.243000", "194838.246000", "194838.249000", "194858.184000", "194858.187000", "194858.190000", "194858.193000", "194858.196000", "194858.199000", "194858.202000", "194858.205000", "194858.208000", "194858.210000", "194858.213000", "194858.216000", "194858.219000", "194858.222000", "194858.225000", "194858.228000", "194938.183000", "194938.186000", "194938.189000", "194938.192000", "194938.195000", "194938.198000", "194938.201000", "194938.204000", "194938.207000", "194938.210000", "194938.213000", "194938.216000", "194938.219000", "194938.222000", "194938.225000", "194938.228000", "194938.231000", "194938.234000", "194938.237000", "194938.239000", "194938.243000", "194938.245000", "194938.248000", "194938.251000", "194938.254000", "194938.257000", "194938.260000", "195018.184000", "195018.187000", "195018.190000", "195018.193000", "195018.196000", "195018.199000", "195018.202000", "195018.204000", "195018.207000", "195018.210000", "195018.213000", "195018.216000", "195018.219000", "195018.222000", "195018.225000", "195018.228000", "195018.231000", "195018.234000", "195018.236000", "195018.239000", "195018.242000", "195018.245000", "195018.248000", "195018.265000", "195018.268000", "195018.271000", "195058.184000", "195058.187000", "195058.190000", "195058.193000", "195058.196000", "195058.199000", "195058.202000", "195058.205000", "195058.208000", "195058.211000", "195058.214000", "195058.216000", "195058.219000", "195058.222000", "195058.225000", "195058.228000", "195058.231000", "195058.234000", "195058.237000", "195058.242000", "195058.244000", "195058.247000", "195058.250000", "195058.253000", "195058.256000", "195058.259000", "195058.262000", "195138.184000", "195138.187000", "195138.190000", "195138.193000", "195138.196000", "195138.199000", "195138.202000", "195138.204000", "195138.207000", "195138.210000", "195138.213000", "195138.216000", "195138.219000", "195138.222000", "195138.225000", "195138.228000", "195138.242000", "195138.245000", "195138.248000", "195138.251000", "195138.254000", "195138.257000", "195138.260000", "195138.263000", "195138.266000", "195138.268000", "195138.271000", "195218.184000", "195218.187000", "195218.190000", "195218.193000", "195218.196000", "195218.199000", "195218.202000", "195218.205000", "195218.208000", "195218.210000", "195218.213000", "195218.216000", "195218.219000", "195218.222000", "195218.225000", "195218.228000", "195218.231000", "195218.234000", "195218.237000", "195218.240000", "195218.243000", "195218.246000", "195218.257000", "195218.260000", "195218.263000", "195218.266000", "195218.269000", "195258.184000", "195258.187000", "195258.190000", "195258.193000", "195258.196000", "195258.199000", "195258.202000", "195258.205000", "195258.208000", "195258.211000", "195258.214000", "195258.217000", "195258.220000", "195258.223000", "195258.225000", "195258.228000", "195258.231000", "195258.234000", "195258.237000", "195258.240000", "195258.243000", "195258.246000", "195258.249000", "195258.252000", "195258.255000", "195258.258000", "195258.260000", "195338.184000", "195338.187000", "195338.190000", "195338.193000", "195338.196000", "195338.199000", "195338.202000", "195338.205000", "195338.208000", "195338.211000", "195338.214000", "195338.217000", "195338.220000", "195338.223000", "195338.226000", "195338.229000", "195338.231000", "195338.234000", "195338.237000", "195338.240000", "195338.243000", "195338.246000", "195338.249000", "195338.252000", "195338.255000", "195338.258000", "195338.260000", "195418.183000", "195418.186000", "195418.189000", "195418.192000", "195418.195000", "195418.198000", "195418.201000", "195418.204000", "195418.207000", "195418.210000", "195418.213000", "195418.216000", "195418.219000", "195418.222000", "195418.225000", "195418.228000", "195418.231000", "195418.233000", "195418.236000", "195418.239000", "195418.242000", "195418.245000", "195418.248000", "195418.251000", "195418.254000", "195418.257000", "195458.184000", "195458.187000", "195458.190000", "195458.193000", "195458.196000", "195458.199000", "195458.202000", "195458.205000", "195458.208000", "195458.211000", "195458.213000", "195458.216000", "195458.219000", "195458.222000", "195458.225000", "195458.228000", "195458.231000", "195458.234000", "195458.237000", "195458.240000", "195458.242000", "195458.245000", "195458.248000", "195458.251000", "195458.254000", "195458.257000", "195458.260000", "195538.184000", "195538.187000", "195538.190000", "195538.193000", "195538.196000", "195538.199000", "195538.202000", "195538.205000", "195538.208000", "195538.211000", "195538.213000", "195538.216000", "195538.219000", "195538.222000", "195538.236000", "195538.239000", "195538.241000", "195538.244000", "195538.247000", "195538.250000", "195538.253000", "195538.256000", "195538.259000", "195538.262000", "195538.265000", "195538.268000", "195538.271000", "195618.184000", "195618.187000", "195618.190000", "195618.193000", "195618.196000", "195618.199000", "195618.202000", "195618.205000", "195618.208000", "195618.211000", "195618.214000", "195618.216000", "195618.219000", "195618.222000", "195618.225000", "195618.228000", "195618.231000", "195618.234000", "195618.237000", "195618.240000", "195618.243000", "195618.246000", "195618.249000", "195618.251000", "195618.254000", "195618.257000", "195618.260000", "195658.184000", "195658.187000", "195658.190000", "195658.193000", "195658.196000", "195658.199000", "195658.202000", "195658.205000", "195658.208000", "195658.211000", "195658.214000", "195658.217000", "195658.220000", "195658.223000", "195658.226000", "195658.229000", "195658.232000", "195658.235000", "195658.238000", "195658.241000", "195658.244000", "195658.247000", "195658.250000", "195658.253000", "195658.256000", "195658.259000", "195658.262000", "195738.184000", "195738.187000", "195738.190000", "195738.193000", "195738.196000", "195738.199000", "195738.202000", "195738.205000", "195738.208000", "195738.211000", "195738.213000", "195738.216000", "195738.219000", "195738.222000", "195738.225000", "195738.228000", "195738.231000", "195738.234000", "195738.237000", "195738.240000", "195738.243000", "195738.245000", "195738.248000", "195738.251000", "195738.254000", "195738.257000", "195738.260000", "195818.184000", "195818.187000", "195818.190000", "195818.193000", "195818.196000", "195818.199000", "195818.202000", "195818.205000", "195818.214000", "195818.217000", "195818.220000", "195818.222000", "195818.225000", "195818.228000", "195818.231000", "195818.234000", "195818.237000", "195818.240000", "195818.243000", "195818.246000", "195818.249000", "195818.252000", "195818.255000", "195818.258000", "195818.261000", "195818.263000", "195818.266000", "195858.183000", "195858.186000", "195858.189000", "195858.192000", "195858.195000", "195858.198000", "195858.201000", "195858.204000", "195858.207000", "195858.210000", "195858.213000", "195858.216000", "195858.218000", "195858.221000", "195858.224000", "195858.227000", "195858.230000", "195858.233000", "195858.236000", "195858.239000", "195858.242000", "195858.245000", "195858.248000", "195858.251000", "195858.254000", "195858.257000", "195914.836000", "195914.840000", "195914.842000", "195914.845000", "195914.849000", "195914.852000", "195914.854000", "195914.857000", "195914.860000", "195914.863000", "195914.866000", "195914.869000"],
