{
  "AcquisitionMatrixPE": 104,
  "AcquisitionNumber": 1,
  "AcquisitionTime": "09:36:23.837500",
  "BandwidthPerPixelPhaseEncode": 17.17,
  "BaseResolution": 104,
  "BodyPartExamined": "BRAIN",
  "CoilString": "HC1-7;NC1_2",
  "ConsistencyInfo": "N4_VE11C_LATEST_20160120",
  "ConversionSoftware": "dcm2niix",
  "ConversionSoftwareVersion": "v1.0.20190720  (JP2:OpenJPEG) GCC7.3.0",
  "DerivedVendorReportedEchoSpacing": 0.000560011,
  "DeviceSerialNumber": "167006",
  "DwellTime": 2.1e-06,
  "EchoTime": 0.037,
  "EchoTrainLength": 104,
  "EffectiveEchoSpacing": 0.000560011,
  "FlipAngle": 52,
  "ImageComments": "Unaliased_MB4_PE3_LB",
  "ImageOrientationPatientDICOM": [0.999256, -0.0363517, 0.0129209, 0.0385622, 0.951213, -0.306116],
  "ImageType": [
    "ORIGINAL",
    "PRIMARY",
    "M",
    "MB",
    "ND",
    "MOSAIC"
],
  "ImagingFrequency": 123.259,
  "InPlanePhaseEncodingDirectionDICOM": "COL",
  "InstitutionAddress": "Chemin_Queen-Mary_4565_Montreal_District_CA_H3W_1W5",
  "InstitutionName": "IUGM",
  "InstitutionalDepartmentName": "Department",
  "MRAcquisitionType": "2D",
  "MagneticFieldStrength": 3,
  "Manufacturer": "Siemens",
  "ManufacturersModelName": "Prisma_fit",
  "Modality": "MR",
  "MultibandAccelerationFactor": 4,
  "PartialFourier": 1,
  "PatientPosition": "HFS",
  "PercentPhaseFOV": 100,
  "PhaseEncodingDirection": "j",
  "PhaseEncodingSteps": 104,
  "PhaseResolution": 1,
  "PixelBandwidth": 2290,
  "ProcedureStepDescription": "video_friends",
  "ProtocolName": "func_task-s02e05b",
  "PulseSequenceDetails": "%CustomerSeq%_cmrr_mbep2d_bold",
  "ReceiveCoilActiveElements": "HC1-7;NC1,2",
  "ReceiveCoilName": "HeadNeck_64",
  "ReconMatrixPE": 104,
  "RepetitionTime": 1.49,
  "SAR": 0.0294832,
  "ScanOptions": "FS",
  "ScanningSequence": "EP",
  "SequenceName": "epfid2d1_104",
  "SequenceVariant": "SK_SS",
  "SeriesDescription": "func_task-s02e05b",
  "SeriesNumber": 10,
  "ShimSetting": [635, -7201, -8798, 719, 19, 10, 9, 15],
  "SliceThickness": 2,
  "SliceTiming": [0, 0.7825, 0.0975, 0.8825, 0.195, 0.98, 0.2925, 1.0775, 0.3925, 1.175, 0.49, 1.2725, 0.5875, 1.37, 0.685, 0, 0.7825, 0.0975, 0.8825, 0.195, 0.98, 0.2925, 1.0775, 0.3925, 1.175, 0.49, 1.2725, 0.5875, 1.37, 0.685, 0, 0.7825, 0.0975, 0.8825, 0.195, 0.98, 0.2925, 1.0775, 0.3925, 1.175, 0.49, 1.2725, 0.5875, 1.37, 0.685, 0, 0.7825, 0.0975, 0.8825, 0.195, 0.98, 0.2925, 1.0775, 0.3925, 1.175, 0.49, 1.2725, 0.5875, 1.37, 0.685],
  "SoftwareVersions": "syngo_MR_E11",
  "SpacingBetweenSlices": 2,
  "StationName": "MRC35049",
  "TaskName": "friends",
  "TotalReadoutTime": 0.0576811,
  "TxRefAmp": 205.912,
  "WipMemBlock": "a745bd1f-be52-4197-9ba2-fa6575dace4c||Sequence: R016 ve11c/master r/e634e98; Dec 19 2017 11:00:25 by eja",
  "dcmmeta_affine": [
    [-1.9985110759735107, 0.07712434232234955, 0.002325360430404544, 99.7259292602539],
    [0.07270334661006927, 1.9024261236190796, -0.61277174949646, -82.51106262207031],
    [0.02584172412753105, 0.6122310757637024, 1.903813362121582, -65.33960723876953],
    [0.0, 0.0, 0.0, 1.0]
],
  "dcmmeta_reorient_transform": [
    [0.0, -1.0, 0.0, 103.0],
    [1.0, 0.0, 0.0, 0.0],
    [0.0, 0.0, 1.0, 0.0],
    [0.0, 0.0, 0.0, 1.0]
],
  "dcmmeta_shape": [104, 104, 60, 455],
  "dcmmeta_slice_dim": 2,
  "dcmmeta_version": 0.6,
  "global": {
    "const": {
      "AcquisitionMatrix": [104, 0, 0, 104],
      "AngioFlag": "N",
      "BitsAllocated": 16,
      "BitsStored": 16,
      "BodyPartExamined": "BRAIN",
      "Columns": 832,
      "EchoNumbers": 1,
      "EchoTime": 37.0,
      "EchoTrainLength": 104,
      "FlipAngle": 52.0,
      "HighBit": 15,
      "ImageOrientationPatient": [0.99925552640244, -0.0363516750702, 0.01292086195978, 0.03856217225284, 0.95121303809175, -0.306115525636],
      "ImagePositionPatient": [-863.20101979595, -779.45789553479, 211.16590741373],
      "ImageType": [
        "ORIGINAL",
        "PRIMARY",
        "M",
        "MB",
        "ND",
        "MOSAIC"
],
      "ImagedNucleus": "1H",
      "ImagingFrequency": 123.259139,
      "InPlanePhaseEncodingDirection": "COL",
      "MRAcquisitionType": "2D",
      "MagneticFieldStrength": 3.0,
      "Manufacturer": "SIEMENS",
      "ManufacturerModelName": "Prisma_fit",
      "Modality": "MR",
      "NumberOfAverages": 1.0,
      "NumberOfPhaseEncodingSteps": 104,
      "PercentPhaseFieldOfView": 100.0,
      "PercentSampling": 100.0,
      "PerformedProcedureStepStartTime": "085936.079000",
      "PhotometricInterpretation": "MONOCHROME2",
      "PixelBandwidth": 2290.0,
      "PixelRepresentation": 0,
      "PixelSpacing": [2.0, 2.0],
      "ProtocolName": "func_task-s02e05b",
      "RepetitionTime": 1490.0,
      "Rows": 832,
      "SAR": 0.02948320502019,
      "SamplesPerPixel": 1,
      "ScanOptions": "FS",
      "ScanningSequence": "EP",
      "SequenceName": "epfid2d1_104",
      "SequenceVariant": [
        "SK",
        "SS"
],
      "SeriesDescription": "func_task-s02e05b",
      "SeriesNumber": 10,
      "SeriesTime": "093749.422000",
      "SliceLocation": -36.801033264108,
      "SliceThickness": 2.0,
      "SmallestImagePixelValue": 0,
      "SoftwareVersions": "syngo MR E11",
      "SpacingBetweenSlices": 1.9999999430552,
      "SpecificCharacterSet": "ISO_IR 100",
      "StudyID": "1",
      "StudyTime": "085935.940000",
      "TransmitCoilName": "Body",
      "VariableFlipAngleFlag": "N",
      "WindowCenterWidthExplanation": "Algo1",
      "dBdt": 0.0},
    "slices": {}
  },
  "time": {
    "samples": {
      "AcquisitionNumber": [1, 2, 3, 4, 5, 6, 7, 8, 9, 10, 11, 12, 13, 14, 15, 16, 17, 18, 19, 20, 21, 22, 23, 24, 25, 26, 27, 28, 29, 30, 31, 32, 33, 34, 35, 36, 37, 38, 39, 40, 41, 42, 43, 44, 45, 46, 47, 48, 49, 50, 51, 52, 53, 54, 55, 56, 57, 58, 59, 60, 61, 62, 63, 64, 65, 66, 67, 68, 69, 70, 71, 72, 73, 74, 75, 76, 77, 78, 79, 80, 81, 82, 83, 84, 85, 86, 87, 88, 89, 90, 91, 92, 93, 94, 95, 96, 97, 98, 99, 100, 101, 102, 103, 104, 105, 106, 107, 108, 109, 110, 111, 112, 113, 114, 115, 116, 117, 118, 119, 120, 121, 122, 123, 124, 125, 126, 127, 128, 129, 130, 131, 132, 133, 134, 135, 136, 137, 138, 139, 140, 141, 142, 143, 144, 145, 146, 147, 148, 149, 150, 151, 152, 153, 154, 155, 156, 157, 158, 159, 160, 161, 162, 163, 164, 165, 166, 167, 168, 169, 170, 171, 172, 173, 174, 175, 176, 177, 178, 179, 180, 181, 182, 183, 184, 185, 186, 187, 188, 189, 190, 191, 192, 193, 194, 195, 196, 197, 198, 199, 200, 201, 202, 203, 204, 205, 206, 207, 208, 209, 210, 211, 212, 213, 214, 215, 216, 217, 218, 219, 220, 221, 222, 223, 224, 225, 226, 227, 228, 229, 230, 231, 232, 233, 234, 235, 236, 237, 238, 239, 240, 241, 242, 243, 244, 245, 246, 247, 248, 249, 250, 251, 252, 253, 254, 255, 256, 257, 258, 259, 260, 261, 262, 263, 264, 265, 266, 267, 268, 269, 270, 271, 272, 273, 274, 275, 276, 277, 278, 279, 280, 281, 282, 283, 284, 285, 286, 287, 288, 289, 290, 291, 292, 293, 294, 295, 296, 297, 298, 299, 300, 301, 302, 303, 304, 305, 306, 307, 308, 309, 310, 311, 312, 313, 314, 315, 316, 317, 318, 319, 320, 321, 322, 323, 324, 325, 326, 327, 328, 329, 330, 331, 332, 333, 334, 335, 336, 337, 338, 339, 340, 341, 342, 343, 344, 345, 346, 347, 348, 349, 350, 351, 352, 353, 354, 355, 356, 357, 358, 359, 360, 361, 362, 363, 364, 365, 366, 367, 368, 369, 370, 371, 372, 373, 374, 375, 376, 377, 378, 379, 380, 381, 382, 383, 384, 385, 386, 387, 388, 389, 390, 391, 392, 393, 394, 395, 396, 397, 398, 399, 400, 401, 402, 403, 404, 405, 406, 407, 408, 409, 410, 411, 412, 413, 414, 415, 416, 417, 418, 419, 420, 421, 422, 423, 424, 425, 426, 427, 428, 429, 430, 431, 432, 433, 434, 435, 436, 437, 438, 439, 440, 441, 442, 443, 444, 445, 446, 447, 448, 449, 450, 451, 452, 453, 454, 455],
      "AcquisitionTime": ["093623.837500", "093625.327500", "093626.817500", "093628.307500", "093629.797500", "093631.287500", "093632.777500", "093634.267500", "093635.757500", "093637.247500", "093638.737500", "093640.227500", "093641.717500", "093643.207500", "093644.697500", "093646.187500", "093647.677500", "093649.167500", "093650.657500", "093652.147500", "093653.637500", "093655.127500", "093656.617500", "093658.107500", "093659.597500", "093701.087500", "093702.577500", "093704.067500", "093705.557500", "093707.047500", "093708.537500", "093710.027500", "093711.517500", "093713.007500", "093714.497500", "093715.987500", "093717.477500", "093718.967500", "093720.457500", "093721.947500", "093723.437500", "093724.927500", "093726.417500", "093727.907500", "093729.397500", "093730.887500", "093732.377500", "093733.867500", "093735.357500", "093736.847500", "093738.337500", "093739.827500", "093741.317500", "093742.807500", "093744.297500", "093745.787500", "093747.277500", "093748.767500", "093750.257500", "093751.747500", "093753.237500", "093754.727500", "093756.217500", "093757.707500", "093759.197500", "093800.687500", "093802.177500", "093803.667500", "093805.157500", "093806.647500", "093808.137500", "093809.627500", "093811.117500", "093812.607500", "093814.097500", "093815.587500", "093817.077500", "093818.567500", "093820.057500", "093821.547500", "093823.037500", "093824.527500", "093826.017500", "093827.507500", "093828.997500", "093830.487500", "093831.977500", "093833.467500", "093834.957500", "093836.447500", "093837.937500", "093839.427500", "093840.917500", "093842.407500", "093843.897500", "093845.387500", "093846.877500", "093848.367500", "093849.857500", "093851.347500", "093852.837500", "093854.327500", "093855.817500", "093857.307500", "093858.797500", "093900.287500", "093901.777500", "093903.267500", "093904.757500", "093906.247500", "093907.737500", "093909.227500", "093910.717500", "093912.207500", "093913.697500", "093915.187500", "093916.677500", "093918.167500", "093919.657500", "093921.147500", "093922.637500", "093924.127500", "093925.617500", "093927.107500", "093928.597500", "093930.087500", "093931.577500", "093933.067500", "093934.557500", "093936.047500", "093937.537500", "093939.027500", "093940.517500", "093942.007500", "093943.497500", "093944.987500", "093946.477500", "093947.967500", "093949.457500", "093950.947500", "093952.437500", "093953.927500", "093955.417500", "093956.907500", "093958.397500", "093959.887500", "094001.377500", "094002.867500", "094004.357500", "094005.847500", "094007.337500", "094008.827500", "094010.317500", "094011.807500", "094013.297500", "094014.787500", "094016.277500", "094017.767500", "094019.257500", "094020.747500", "094022.237500", "094023.727500", "094025.217500", "094026.707500", "094028.197500", "094029.687500", "094031.177500", "094032.667500", "094034.157500", "094035.647500", "094037.137500", "094038.627500", "094040.117500", "094041.607500", "094043.097500", "094044.587500", "094046.077500", "094047.567500", "094049.057500", "094050.547500", "094052.037500", "094053.527500", "094055.017500", "094056.507500", "094057.997500", "094059.487500", "094100.977500", "094102.467500", "094103.957500", "094105.447500", "094106.937500", "094108.427500", "094109.917500", "094111.407500", "094112.897500", "094114.387500", "094115.877500", "094117.367500", "094118.857500", "094120.347500", "094121.837500", "094123.327500", "094124.817500", "094126.307500", "094127.797500", "094129.287500", "094130.777500", "094132.267500", "094133.757500", "094135.247500", "094136.737500", "094138.227500", "094139.717500", "094141.207500", "094142.697500", "094144.187500", "094145.677500", "094147.167500", "094148.657500", "094150.147500", "094151.637500", "094153.127500", "094154.617500", "094156.107500", "094157.597500", "094159.087500", "094200.577500", "094202.067500", "094203.557500", "094205.047500", "094206.537500", "094208.027500", "094209.517500", "094211.007500", "094212.497500", "094213.987500", "094215.477500", "094216.967500", "094218.457500", "094219.947500", "094221.437500", "094222.927500", "094224.417500", "094225.907500", "094227.397500", "094228.887500", "094230.377500", "094231.867500", "094233.357500", "094234.847500", "094236.337500", "094237.827500", "094239.317500", "094240.807500", "094242.297500", "094243.787500", "094245.277500", "094246.767500", "094248.257500", "094249.747500", "094251.237500", "094252.727500", "094254.217500", "094255.707500", "094257.197500", "094258.687500", "094300.177500", "094301.667500", "094303.157500", "094304.647500", "094306.137500", "094307.627500", "094309.117500", "094310.607500", "094312.097500", "094313.587500", "094315.077500", "094316.567500", "094318.057500", "094319.547500", "094321.037500", "094322.527500", "094324.017500", "094325.507500", "094326.997500", "094328.487500", "094329.977500", "094331.467500", "094332.957500", "094334.447500", "094335.937500", "094337.427500", "094338.917500", "094340.407500", "094341.897500", "094343.387500", "094344.877500", "094346.367500", "094347.857500", "094349.347500", "094350.837500", "094352.327500", "094353.817500", "094355.307500", "094356.797500", "094358.287500", "094359.777500", "094401.267500", "094402.757500", "094404.247500", "094405.737500", "094407.227500", "094408.717500", "094410.207500", "094411.697500", "094413.187500", "094414.677500", "094416.167500", "094417.657500", "094419.147500", "094420.637500", "094422.127500", "094423.617500", "094425.107500", "094426.597500", "094428.087500", "094429.577500", "094431.067500", "094432.557500", "094434.047500", "094435.537500", "094437.027500", "094438.517500", "094440.007500", "094441.497500", "094442.987500", "094444.477500", "094445.967500", "094447.457500", "094448.947500", "094450.437500", "094451.927500", "094453.417500", "094454.907500", "094456.397500", "094457.887500", "094459.377500", "094500.867500", "094502.357500", "094503.847500", "094505.337500", "094506.827500", "094508.317500", "094509.807500", "094511.297500", "094512.787500", "094514.277500", "094515.767500", "094517.257500", "094518.747500", "094520.237500", "094521.727500", "094523.217500", "094524.707500", "094526.197500", "094527.687500", "094529.177500", "094530.667500", "094532.157500", "094533.647500", "094535.137500", "094536.627500", "094538.117500", "094539.607500", "094541.097500", "094542.587500", "094544.077500", "094545.567500", "094547.057500", "094548.547500", "094550.037500", "094551.527500", "094553.017500", "094554.507500", "094555.997500", "094557.487500", "094558.977500", "094600.467500", "094601.957500", "094603.447500", "094604.937500", "094606.427500", "094607.917500", "094609.407500", "094610.897500", "094612.387500", "094613.877500", "094615.367500", "094616.857500", "094618.347500", "094619.837500", "094621.327500", "094622.817500", "094624.307500", "094625.797500", "094627.287500", "094628.777500", "094630.267500", "094631.757500", "094633.247500", "094634.737500", "094636.227500", "094637.717500", "094639.207500", "094640.697500", "094642.187500", "094643.677500", "094645.167500", "094646.657500", "094648.147500", "094649.637500", "094651.127500", "094652.617500", "094654.107500", "094655.597500", "094657.087500", "094658.577500", "094700.067500", "094701.557500", "094703.047500", "094704.537500", "094706.027500", "094707.517500", "094709.007500", "094710.497500", "094711.987500", "094713.477500", "094714.967500", "094716.457500", "094717.947500", "094719.437500", "094720.927500", "094722.417500", "094723.907500", "094725.397500", "094726.887500", "094728.377500", "094729.867500", "094731.357500", "094732.847500", "094734.337500", "094735.827500", "094737.317500", "094738.807500", "094740.297500"],
      "ContentTime": ["093749.425000", "093749.428000", "093749.431000", "093749.442000", "093749.445000", "093749.448000", "093749.451000", "093749.454000", "093749.456000", "093749.461000", "093749.464000", "093749.467000", "093749.470000", "093749.473000", "093749.476000", "093749.479000", "093749.482000", "093749.484000", "093749.487000", "093749.490000", "093749.493000", "093749.496000", "093749.499000", "093749.502000", "093749.505000", "093749.507000", "093749.510000", "093749.513000", "093749.516000", "093749.519000", "093749.522000", "093749.525000", "093749.528000", "093809.395000", "093809.398000", "093809.401000", "093809.404000", "093809.407000", "093809.409000", "093809.412000", "093809.415000", "093809.418000", "093809.421000", "093809.424000", "093809.427000", "093809.429000", "093809.432000", "093809.435000", "093809.438000", "093809.441000", "093809.444000", "093809.447000", "093809.450000", "093809.453000", "093829.395000", "093829.398000", "093829.401000", "093829.404000", "093829.407000", "093829.409000", "093829.412000", "093829.415000", "093829.418000", "093829.421000", "093829.424000", "093829.427000", "093829.430000", "093829.432000", "093829.435000", "093829.438000", "093829.441000", "093829.444000", "093829.447000", "093829.450000", "093849.395000", "093849.398000", "093849.401000", "093849.404000", "093849.407000", "093849.409000", "093849.412000", "093849.415000", "093849.418000", "093849.421000", "093849.424000", "093849.427000", "093849.430000", "093849.432000", "093849.435000", "093849.438000", "093849.441000", "093849.444000", "093849.463000", "093849.466000", "093929.396000", "093929.399000", "093929.402000", "093929.405000", "093929.408000", "093929.411000", "093929.414000", "093929.416000", "093929.419000", "093929.422000", "093929.425000", "093929.428000", "093929.431000", "093929.434000", "093929.437000", "093929.440000", "093929.443000", "093929.446000", "093929.449000", "093929.451000", "093929.454000", "093929.457000", "093929.460000", "093929.463000", "093929.466000", "093929.469000", "093929.472000", "093929.475000", "093929.478000", "093929.481000", "094009.395000", "094009.398000", "094009.401000", "094009.404000", "094009.407000", "094009.409000", "094009.412000", "094009.415000", "094009.418000", "094009.421000", "094009.424000", "094009.427000", "094009.430000", "094009.433000", "094009.435000", "094009.438000", "094009.441000", "094009.444000", "094009.447000", "094009.450000", "094009.453000", "094009.456000", "094009.459000", "094009.462000", "094009.464000", "094009.467000", "094009.470000", "094049.395000", "094049.398000", "094049.401000", "094049.404000", "094049.407000", "094049.410000", "094049.413000", "094049.416000", "094049.418000", "094049.421000", "094049.424000", "094049.427000", "094049.432000", "094049.435000", "094049.438000", "094049.440000", "094049.443000", "094049.446000", "094049.449000", "094049.452000", "094049.455000", "094049.458000", "094049.461000", "094049.464000", "094049.467000", "094049.469000", "094049.472000", "094129.395000", "094129.398000", "094129.401000", "094129.404000", "094129.407000", "094129.410000", "094129.413000", "094129.416000", "094129.418000", "094129.421000", "094129.424000", "094129.427000", "094129.430000", "094129.433000", "094129.436000", "094129.439000", "094129.442000", "094129.445000", "094129.448000", "094129.451000", "094129.454000", "094129.456000", "094129.459000", "094129.462000", "094129.465000", "094129.468000", "094209.396000", "094209.399000", "094209.402000", "094209.405000", "094209.408000", "094209.411000", "094209.414000", "094209.416000", "094209.419000", "094209.422000", "094209.425000", "094209.428000", "094209.431000", "094209.434000", "094209.437000", "094209.440000", "094209.442000", "094209.445000", "094209.448000", "094209.451000", "094209.454000", "094209.457000", "094209.460000", "094209.463000", "094209.466000", "094209.469000", "094209.472000", "094249.395000", "094249.398000", "094249.401000", "094249.404000", "094249.407000", "094249.410000", "094249.412000", "094249.415000", "094249.419000", "094249.422000", "094249.425000", "094249.428000", "094249.430000", "094249.433000", "094249.436000", "094249.439000", "094249.442000", "094249.445000", "094249.448000", "094249.451000", "094249.453000", "094249.456000", "094249.459000", "094249.462000", "094249.465000", "094249.468000", "094249.471000", "094329.395000", "094329.398000", "094329.401000", "094329.404000", "094329.407000", "094329.410000", "094329.413000", "094329.415000", "094329.418000", "094329.421000", "094329.424000", "094329.427000", "094329.430000", "094329.433000", "094329.436000", "094329.438000", "094329.441000", "094329.444000", "094329.447000", "094329.450000", "094329.453000", "094329.456000", "094329.459000", "094329.462000", "094329.464000", "094329.467000", "094329.470000", "094409.396000", "094409.399000", "094409.402000", "094409.405000", "094409.408000", "094409.411000", "094409.414000", "094409.417000", "094409.420000", "094409.439000", "094409.442000", "094409.445000", "094409.448000", "094409.451000", "094409.454000", "094409.457000", "094409.460000", "094409.463000", "094409.466000", "094409.469000", "094409.471000", "094409.474000", "094409.477000", "094409.480000", "094409.483000", "094409.486000", "094409.489000", "094449.395000", "094449.398000", "094449.401000", "094449.404000", "094449.407000", "094449.410000", "094449.412000", "094449.415000", "094449.418000", "094449.421000", "094449.424000", "094449.427000", "094449.430000", "094449.433000", "094449.436000", "094449.439000", "094449.442000", "094449.445000", "094449.447000", "094449.450000", "094449.453000", "094449.456000", "094449.459000", "094449.462000", "094449.465000", "094449.468000", "094449.471000", "094529.395000", "094529.398000", "094529.401000", "094529.404000", "094529.407000", "094529.411000", "094529.414000", "094529.417000", "094529.420000", "094529.423000", "094529.426000", "094529.429000", "094529.432000", "094529.435000", "094529.438000", "094529.441000", "094529.444000", "094529.447000", "094529.450000", "094529.453000", "094529.456000", "094529.458000", "094529.461000", "094529.464000", "094529.467000", "094529.470000", "094609.396000", "094609.399000", "094609.402000", "094609.405000", "094609.408000", "094609.411000", "094609.414000", "094609.416000", "094609.419000", "094609.422000", "094609.425000", "094609.428000", "094609.431000", "094609.434000", "094609.437000", "094609.440000", "094609.443000", "094609.446000", "094609.449000", "094609.451000", "094609.454000", "094609.457000", "094609.460000", "094609.463000", "094609.466000", "094609.469000", "094609.472000", "094649.396000", "094649.399000", "094649.402000", "094649.405000", "094649.408000", "094649.411000", "094649.414000", "094649.416000", "094649.419000", "094649.422000", "094649.425000", "094649.428000", "094649.431000", "094649.434000", "094649.437000", "094649.440000", "094649.443000", "094649.445000", "094649.448000", "094649.451000", "094649.454000", "094649.457000", "094649.460000", "094649.463000", "094649.466000", "094649.469000", "094649.472000", "094729.395000", "094729.398000", "094729.401000", "094729.404000", "094729.407000", "094729.410000", "094729.413000", "094729.416000", "094729.419000", "094729.421000", "094729.425000", "094729.427000", "094729.430000", "094729.433000", "094729.436000", "094729.439000", "094729.442000", "094729.445000", "094729.448000", "094729.451000", "094729.454000", "094729.456000", "094729.459000", "094729.462000", "094729.465000", "094729.468000", "094729.471000", "094742.065000", "094742.069000", "094742.072000", "094742.074000", "094742.077000", "094742.080000", "094742.083000", "094742.086000", "094742.089000"],
