{
  "AcquisitionMatrixPE": 104,
  "AcquisitionNumber": 1,
  "AcquisitionTime": "09:23:42.455000",
  "BandwidthPerPixelPhaseEncode": 17.17,
  "BaseResolution": 104,
  "BodyPartExamined": "BRAIN",
  "CoilString": "HC1-7;NC1_2",
  "ConsistencyInfo": "N4_VE11C_LATEST_20160120",
  "ConversionSoftware": "dcm2niix",
  "ConversionSoftwareVersion": "v1.0.20190720  (JP2:OpenJPEG) GCC7.3.0",
  "DerivedVendorReportedEchoSpacing": 0.000560011,
  "DeviceSerialNumber": "167006",
  "DwellTime": 2.1e-06,
  "EchoTime": 0.037,
  "EchoTrainLength": 104,
  "EffectiveEchoSpacing": 0.000560011,
  "FlipAngle": 52,
  "ImageComments": "Unaliased_MB4_PE3_LB",
  "ImageOrientationPatientDICOM": [0.999256, -0.0363517, 0.0129209, 0.0385622, 0.951213, -0.306116],
  "ImageType": [
    "ORIGINAL",
    "PRIMARY",
    "M",
    "MB",
    "ND",
    "MOSAIC"
],
  "ImagingFrequency": 123.259,
  "InPlanePhaseEncodingDirectionDICOM": "COL",
  "InstitutionAddress": "Chemin_Queen-Mary_4565_Montreal_District_CA_H3W_1W5",
  "InstitutionName": "IUGM",
  "InstitutionalDepartmentName": "Department",
  "MRAcquisitionType": "2D",
  "MagneticFieldStrength": 3,
  "Manufacturer": "Siemens",
  "ManufacturersModelName": "Prisma_fit",
  "Modality": "MR",
  "MultibandAccelerationFactor": 4,
  "PartialFourier": 1,
  "PatientPosition": "HFS",
  "PercentPhaseFOV": 100,
  "PhaseEncodingDirection": "j",
  "PhaseEncodingSteps": 104,
  "PhaseResolution": 1,
  "PixelBandwidth": 2290,
  "ProcedureStepDescription": "video_friends",
  "ProtocolName": "func_task-s02e05a",
  "PulseSequenceDetails": "%CustomerSeq%_cmrr_mbep2d_bold",
  "ReceiveCoilActiveElements": "HC1-7;NC1,2",
  "ReceiveCoilName": "HeadNeck_64",
  "ReconMatrixPE": 104,
  "RepetitionTime": 1.49,
  "SAR": 0.0294832,
  "ScanOptions": "FS",
  "ScanningSequence": "EP",
  "SequenceName": "epfid2d1_104",
  "SequenceVariant": "SK_SS",
  "SeriesDescription": "func_task-s02e05a",
  "SeriesNumber": 8,
  "ShimSetting": [635, -7201, -8798, 719, 19, 10, 9, 15],
  "SliceThickness": 2,
  "SliceTiming": [0, 0.7825, 0.0975, 0.8825, 0.195, 0.98, 0.2925, 1.0775, 0.3925, 1.175, 0.49, 1.2725, 0.5875, 1.3725, 0.685, 0, 0.7825, 0.0975, 0.8825, 0.195, 0.98, 0.2925, 1.0775, 0.3925, 1.175, 0.49, 1.2725, 0.5875, 1.3725, 0.685, 0, 0.7825, 0.0975, 0.8825, 0.195, 0.98, 0.2925, 1.0775, 0.3925, 1.175, 0.49, 1.2725, 0.5875, 1.3725, 0.685, 0, 0.7825, 0.0975, 0.8825, 0.195, 0.98, 0.2925, 1.0775, 0.3925, 1.175, 0.49, 1.2725, 0.5875, 1.3725, 0.685],
  "SoftwareVersions": "syngo_MR_E11",
  "SpacingBetweenSlices": 2,
  "StationName": "MRC35049",
  "TaskName": "friends",
  "TotalReadoutTime": 0.0576811,
  "TxRefAmp": 205.912,
  "WipMemBlock": "2d321d5d-e99d-4de0-bbde-53918da3fb68||Sequence: R016 ve11c/master r/e634e98; Dec 19 2017 11:00:25 by eja",
  "dcmmeta_affine": [
    [-1.9985110759735107, 0.07712434232234955, 0.002325360430404544, 99.7259292602539],
    [0.07270334661006927, 1.9024261236190796, -0.61277174949646, -82.51106262207031],
    [0.02584172412753105, 0.6122310757637024, 1.903813362121582, -65.33960723876953],
    [0.0, 0.0, 0.0, 1.0]
],
  "dcmmeta_reorient_transform": [
    [0.0, -1.0, 0.0, 103.0],
    [1.0, 0.0, 0.0, 0.0],
    [0.0, 0.0, 1.0, 0.0],
    [0.0, 0.0, 0.0, 1.0]
],
  "dcmmeta_shape": [104, 104, 60, 455],
  "dcmmeta_slice_dim": 2,
  "dcmmeta_version": 0.6,
  "global": {
    "const": {
      "AcquisitionMatrix": [104, 0, 0, 104],
      "AngioFlag": "N",
      "BitsAllocated": 16,
      "BitsStored": 16,
      "BodyPartExamined": "BRAIN",
      "Columns": 832,
      "EchoNumbers": 1,
      "EchoTime": 37.0,
      "EchoTrainLength": 104,
      "FlipAngle": 52.0,
      "HighBit": 15,
      "ImageOrientationPatient": [0.99925552640244, -0.0363516750702, 0.01292086195978, 0.03856217225284, 0.95121303809175, -0.306115525636],
      "ImagePositionPatient": [-863.20101979595, -779.45789553479, 211.16590741373],
      "ImageType": [
        "ORIGINAL",
        "PRIMARY",
        "M",
        "MB",
        "ND",
        "MOSAIC"
],
      "ImagedNucleus": "1H",
      "ImagingFrequency": 123.259127,
      "InPlanePhaseEncodingDirection": "COL",
      "MRAcquisitionType": "2D",
      "MagneticFieldStrength": 3.0,
      "Manufacturer": "SIEMENS",
      "ManufacturerModelName": "Prisma_fit",
      "Modality": "MR",
      "NumberOfAverages": 1.0,
      "NumberOfPhaseEncodingSteps": 104,
      "PercentPhaseFieldOfView": 100.0,
      "PercentSampling": 100.0,
      "PerformedProcedureStepStartTime": "085936.079000",
      "PhotometricInterpretation": "MONOCHROME2",
      "PixelBandwidth": 2290.0,
      "PixelRepresentation": 0,
      "PixelSpacing": [2.0, 2.0],
      "ProtocolName": "func_task-s02e05a",
      "RepetitionTime": 1490.0,
      "Rows": 832,
      "SAR": 0.02948320502019,
      "SamplesPerPixel": 1,
      "ScanOptions": "FS",
      "ScanningSequence": "EP",
      "SequenceName": "epfid2d1_104",
      "SequenceVariant": [
        "SK",
        "SS"
],
      "SeriesDescription": "func_task-s02e05a",
      "SeriesNumber": 8,
      "SeriesTime": "092504.078000",
      "SliceLocation": -36.801033264108,
      "SliceThickness": 2.0,
      "SmallestImagePixelValue": 0,
      "SoftwareVersions": "syngo MR E11",
      "SpacingBetweenSlices": 1.9999999430552,
      "SpecificCharacterSet": "ISO_IR 100",
      "StudyID": "1",
      "StudyTime": "085935.940000",
      "TransmitCoilName": "Body",
      "VariableFlipAngleFlag": "N",
      "WindowCenterWidthExplanation": "Algo1",
      "dBdt": 0.0},
    "slices": {}
  },
  "time": {
    "samples": {
      "AcquisitionNumber": [1, 2, 3, 4, 5, 6, 7, 8, 9, 10, 11, 12, 13, 14, 15, 16, 17, 18, 19, 20, 21, 22, 23, 24, 25, 26, 27, 28, 29, 30, 31, 32, 33, 34, 35, 36, 37, 38, 39, 40, 41, 42, 43, 44, 45, 46, 47, 48, 49, 50, 51, 52, 53, 54, 55, 56, 57, 58, 59, 60, 61, 62, 63, 64, 65, 66, 67, 68, 69, 70, 71, 72, 73, 74, 75, 76, 77, 78, 79, 80, 81, 82, 83, 84, 85, 86, 87, 88, 89, 90, 91, 92, 93, 94, 95, 96, 97, 98, 99, 100, 101, 102, 103, 104, 105, 106, 107, 108, 109, 110, 111, 112, 113, 114, 115, 116, 117, 118, 119, 120, 121, 122, 123, 124, 125, 126, 127, 128, 129, 130, 131, 132, 133, 134, 135, 136, 137, 138, 139, 140, 141, 142, 143, 144, 145, 146, 147, 148, 149, 150, 151, 152, 153, 154, 155, 156, 157, 158, 159, 160, 161, 162, 163, 164, 165, 166, 167, 168, 169, 170, 171, 172, 173, 174, 175, 176, 177, 178, 179, 180, 181, 182, 183, 184, 185, 186, 187, 188, 189, 190, 191, 192, 193, 194, 195, 196, 197, 198, 199, 200, 201, 202, 203, 204, 205, 206, 207, 208, 209, 210, 211, 212, 213, 214, 215, 216, 217, 218, 219, 220, 221, 222, 223, 224, 225, 226, 227, 228, 229, 230, 231, 232, 233, 234, 235, 236, 237, 238, 239, 240, 241, 242, 243, 244, 245, 246, 247, 248, 249, 250, 251, 252, 253, 254, 255, 256, 257, 258, 259, 260, 261, 262, 263, 264, 265, 266, 267, 268, 269, 270, 271, 272, 273, 274, 275, 276, 277, 278, 279, 280, 281, 282, 283, 284, 285, 286, 287, 288, 289, 290, 291, 292, 293, 294, 295, 296, 297, 298, 299, 300, 301, 302, 303, 304, 305, 306, 307, 308, 309, 310, 311, 312, 313, 314, 315, 316, 317, 318, 319, 320, 321, 322, 323, 324, 325, 326, 327, 328, 329, 330, 331, 332, 333, 334, 335, 336, 337, 338, 339, 340, 341, 342, 343, 344, 345, 346, 347, 348, 349, 350, 351, 352, 353, 354, 355, 356, 357, 358, 359, 360, 361, 362, 363, 364, 365, 366, 367, 368, 369, 370, 371, 372, 373, 374, 375, 376, 377, 378, 379, 380, 381, 382, 383, 384, 385, 386, 387, 388, 389, 390, 391, 392, 393, 394, 395, 396, 397, 398, 399, 400, 401, 402, 403, 404, 405, 406, 407, 408, 409, 410, 411, 412, 413, 414, 415, 416, 417, 418, 419, 420, 421, 422, 423, 424, 425, 426, 427, 428, 429, 430, 431, 432, 433, 434, 435, 436, 437, 438, 439, 440, 441, 442, 443, 444, 445, 446, 447, 448, 449, 450, 451, 452, 453, 454, 455],
      "AcquisitionTime": ["092342.455000", "092343.945000", "092345.435000", "092346.925000", "092348.415000", "092349.905000", "092351.395000", "092352.885000", "092354.375000", "092355.865000", "092357.355000", "092358.845000", "092400.335000", "092401.825000", "092403.315000", "092404.805000", "092406.295000", "092407.785000", "092409.275000", "092410.765000", "092412.255000", "092413.745000", "092415.235000", "092416.725000", "092418.215000", "092419.705000", "092421.195000", "092422.685000", "092424.175000", "092425.665000", "092427.155000", "092428.645000", "092430.135000", "092431.625000", "092433.115000", "092434.605000", "092436.095000", "092437.585000", "092439.075000", "092440.565000", "092442.055000", "092443.545000", "092445.035000", "092446.525000", "092448.015000", "092449.505000", "092450.995000", "092452.485000", "092453.975000", "092455.465000", "092456.955000", "092458.445000", "092459.935000", "092501.425000", "092502.915000", "092504.405000", "092505.895000", "092507.385000", "092508.875000", "092510.365000", "092511.855000", "092513.345000", "092514.835000", "092516.325000", "092517.815000", "092519.305000", "092520.795000", "092522.285000", "092523.775000", "092525.265000", "092526.755000", "092528.245000", "092529.735000", "092531.225000", "092532.715000", "092534.205000", "092535.695000", "092537.185000", "092538.675000", "092540.165000", "092541.655000", "092543.145000", "092544.635000", "092546.125000", "092547.615000", "092549.105000", "092550.595000", "092552.085000", "092553.575000", "092555.065000", "092556.555000", "092558.045000", "092559.535000", "092601.025000", "092602.515000", "092604.005000", "092605.495000", "092606.985000", "092608.475000", "092609.965000", "092611.455000", "092612.945000", "092614.435000", "092615.925000", "092617.415000", "092618.905000", "092620.395000", "092621.885000", "092623.375000", "092624.865000", "092626.355000", "092627.845000", "092629.335000", "092630.825000", "092632.315000", "092633.805000", "092635.295000", "092636.785000", "092638.275000", "092639.765000", "092641.255000", "092642.745000", "092644.235000", "092645.725000", "092647.215000", "092648.705000", "092650.195000", "092651.685000", "092653.175000", "092654.665000", "092656.155000", "092657.645000", "092659.135000", "092700.625000", "092702.115000", "092703.605000", "092705.095000", "092706.585000", "092708.075000", "092709.565000", "092711.055000", "092712.545000", "092714.035000", "092715.525000", "092717.015000", "092718.505000", "092719.995000", "092721.485000", "092722.975000", "092724.465000", "092725.955000", "092727.445000", "092728.935000", "092730.425000", "092731.915000", "092733.405000", "092734.895000", "092736.385000", "092737.875000", "092739.365000", "092740.855000", "092742.345000", "092743.835000", "092745.325000", "092746.815000", "092748.305000", "092749.795000", "092751.285000", "092752.775000", "092754.265000", "092755.755000", "092757.245000", "092758.735000", "092800.225000", "092801.715000", "092803.205000", "092804.695000", "092806.185000", "092807.675000", "092809.165000", "092810.655000", "092812.145000", "092813.635000", "092815.125000", "092816.615000", "092818.105000", "092819.595000", "092821.085000", "092822.575000", "092824.065000", "092825.555000", "092827.045000", "092828.535000", "092830.025000", "092831.515000", "092833.005000", "092834.495000", "092835.985000", "092837.475000", "092838.965000", "092840.455000", "092841.945000", "092843.435000", "092844.925000", "092846.415000", "092847.905000", "092849.395000", "092850.885000", "092852.375000", "092853.865000", "092855.355000", "092856.845000", "092858.335000", "092859.825000", "092901.315000", "092902.805000", "092904.295000", "092905.785000", "092907.275000", "092908.765000", "092910.255000", "092911.745000", "092913.235000", "092914.725000", "092916.215000", "092917.705000", "092919.195000", "092920.685000", "092922.175000", "092923.665000", "092925.155000", "092926.645000", "092928.135000", "092929.625000", "092931.115000", "092932.605000", "092934.095000", "092935.585000", "092937.075000", "092938.565000", "092940.055000", "092941.545000", "092943.035000", "092944.525000", "092946.015000", "092947.505000", "092948.995000", "092950.485000", "092951.975000", "092953.465000", "092954.955000", "092956.445000", "092957.935000", "092959.425000", "093000.915000", "093002.405000", "093003.895000", "093005.385000", "093006.875000", "093008.365000", "093009.855000", "093011.345000", "093012.835000", "093014.325000", "093015.815000", "093017.305000", "093018.795000", "093020.285000", "093021.775000", "093023.265000", "093024.755000", "093026.245000", "093027.735000", "093029.225000", "093030.715000", "093032.205000", "093033.695000", "093035.185000", "093036.675000", "093038.165000", "093039.655000", "093041.145000", "093042.635000", "093044.125000", "093045.615000", "093047.105000", "093048.595000", "093050.085000", "093051.575000", "093053.065000", "093054.555000", "093056.045000", "093057.535000", "093059.025000", "093100.515000", "093102.005000", "093103.495000", "093104.985000", "093106.475000", "093107.965000", "093109.455000", "093110.945000", "093112.435000", "093113.925000", "093115.415000", "093116.905000", "093118.395000", "093119.885000", "093121.375000", "093122.865000", "093124.355000", "093125.845000", "093127.335000", "093128.825000", "093130.315000", "093131.805000", "093133.295000", "093134.785000", "093136.275000", "093137.765000", "093139.255000", "093140.745000", "093142.235000", "093143.725000", "093145.215000", "093146.705000", "093148.195000", "093149.685000", "093151.175000", "093152.665000", "093154.155000", "093155.645000", "093157.135000", "093158.625000", "093200.115000", "093201.605000", "093203.095000", "093204.585000", "093206.075000", "093207.565000", "093209.055000", "093210.545000", "093212.035000", "093213.525000", "093215.015000", "093216.505000", "093217.995000", "093219.485000", "093220.975000", "093222.465000", "093223.955000", "093225.445000", "093226.935000", "093228.425000", "093229.915000", "093231.405000", "093232.895000", "093234.385000", "093235.875000", "093237.365000", "093238.855000", "093240.345000", "093241.835000", "093243.325000", "093244.815000", "093246.305000", "093247.795000", "093249.285000", "093250.775000", "093252.265000", "093253.755000", "093255.245000", "093256.735000", "093258.225000", "093259.715000", "093301.205000", "093302.695000", "093304.185000", "093305.675000", "093307.165000", "093308.655000", "093310.145000", "093311.635000", "093313.125000", "093314.615000", "093316.105000", "093317.595000", "093319.085000", "093320.575000", "093322.065000", "093323.555000", "093325.045000", "093326.535000", "093328.025000", "093329.515000", "093331.005000", "093332.495000", "093333.985000", "093335.475000", "093336.965000", "093338.455000", "093339.945000", "093341.435000", "093342.925000", "093344.415000", "093345.905000", "093347.395000", "093348.885000", "093350.375000", "093351.865000", "093353.355000", "093354.845000", "093356.335000", "093357.825000", "093359.315000", "093400.805000", "093402.295000", "093403.785000", "093405.275000", "093406.765000", "093408.255000", "093409.745000", "093411.235000", "093412.725000", "093414.215000", "093415.705000", "093417.195000", "093418.685000", "093420.175000", "093421.665000", "093423.155000", "093424.645000", "093426.135000", "093427.625000", "093429.115000", "093430.605000", "093432.095000", "093433.585000", "093435.075000", "093436.565000", "093438.055000", "093439.545000", "093441.035000", "093442.525000", "093444.015000", "093445.505000", "093446.995000", "093448.485000", "093449.975000", "093451.465000", "093452.955000", "093454.445000", "093455.935000", "093457.425000", "093458.915000"],
      "ContentTime": ["092504.080000", "092504.084000", "092504.087000", "092504.090000", "092504.092000", "092504.095000", "092504.098000", "092504.105000", "092504.108000", "092504.111000", "092504.113000", "092504.116000", "092504.119000", "092504.122000", "092504.125000", "092504.135000", "092504.139000", "092504.141000", "092504.145000", "092504.147000", "092504.150000", "092504.153000", "092504.156000", "092504.159000", "092504.162000", "092524.022000", "092524.025000", "092524.028000", "092524.031000", "092524.034000", "092524.037000", "092524.039000", "092524.042000", "092524.045000", "092524.056000", "092524.059000", "092524.062000", "092524.065000", "092524.067000", "092524.070000", "092524.073000", "092524.076000", "092524.079000", "092524.082000", "092524.085000", "092544.022000", "092544.025000", "092544.028000", "092544.031000", "092544.034000", "092544.037000", "092544.040000", "092544.042000", "092544.045000", "092544.059000", "092544.061000", "092544.064000", "092544.067000", "092544.070000", "092544.073000", "092544.076000", "092544.079000", "092544.082000", "092544.084000", "092544.087000", "092604.023000", "092604.026000", "092604.029000", "092604.032000", "092604.035000", "092604.038000", "092604.041000", "092604.057000", "092604.060000", "092604.062000", "092604.065000", "092604.068000", "092604.071000", "092604.074000", "092604.077000", "092604.080000", "092604.082000", "092604.085000", "092604.088000", "092604.091000", "092624.023000", "092624.026000", "092624.029000", "092624.032000", "092624.034000", "092624.037000", "092624.040000", "092624.043000", "092624.046000", "092624.049000", "092624.052000", "092624.055000", "092624.058000", "092624.060000", "092624.063000", "092624.066000", "092624.069000", "092624.072000", "092624.075000", "092624.078000", "092624.087000", "092704.022000", "092704.025000", "092704.038000", "092704.041000", "092704.044000", "092704.047000", "092704.050000", "092704.054000", "092704.057000", "092704.060000", "092704.063000", "092704.066000", "092704.069000", "092704.072000", "092704.075000", "092704.078000", "092704.081000", "092704.084000", "092704.086000", "092704.089000", "092704.092000", "092704.095000", "092704.098000", "092704.101000", "092704.104000", "092704.107000", "092704.110000", "092704.113000", "092744.022000", "092744.025000", "092744.028000", "092744.031000", "092744.034000", "092744.036000", "092744.039000", "092744.042000", "092744.045000", "092744.048000", "092744.051000", "092744.054000", "092744.057000", "092744.060000", "092744.063000", "092744.066000", "092744.075000", "092744.078000", "092744.081000", "092744.084000", "092744.086000", "092744.089000", "092744.092000", "092744.095000", "092744.098000", "092744.101000", "092744.104000", "092824.023000", "092824.026000", "092824.029000", "092824.032000", "092824.035000", "092824.038000", "092824.040000", "092824.043000", "092824.046000", "092824.049000", "092824.052000", "092824.055000", "092824.058000", "092824.061000", "092824.064000", "092824.067000", "092824.070000", "092824.073000", "092824.076000", "092824.079000", "092824.081000", "092824.084000", "092824.087000", "092824.090000", "092824.093000", "092824.096000", "092824.099000", "092904.022000", "092904.025000", "092904.028000", "092904.031000", "092904.034000", "092904.037000", "092904.040000", "092904.058000", "092904.061000", "092904.064000", "092904.067000", "092904.069000", "092904.072000", "092904.075000", "092904.078000", "092904.081000", "092904.084000", "092904.087000", "092904.090000", "092904.093000", "092904.096000", "092904.099000", "092904.102000", "092904.105000", "092904.108000", "092904.111000", "092904.114000", "092944.022000", "092944.025000", "092944.028000", "092944.031000", "092944.034000", "092944.037000", "092944.040000", "092944.043000", "092944.046000", "092944.049000", "092944.051000", "092944.054000", "092944.057000", "092944.060000", "092944.063000", "092944.066000", "092944.069000", "092944.072000", "092944.075000", "092944.078000", "092944.081000", "092944.084000", "092944.086000", "092944.089000", "092944.092000", "092944.095000", "092944.098000", "093024.022000", "093024.025000", "093024.028000", "093024.031000", "093024.034000", "093024.037000", "093024.040000", "093024.043000", "093024.046000", "093024.048000", "093024.051000", "093024.054000", "093024.057000", "093024.060000", "093024.063000", "093024.066000", "093024.069000", "093024.072000", "093024.075000", "093024.078000", "093024.081000", "093024.084000", "093024.086000", "093024.089000", "093024.099000", "093024.102000", "093024.105000", "093044.023000", "093044.026000", "093044.029000", "093044.032000", "093044.035000", "093044.038000", "093044.041000", "093044.044000", "093044.047000", "093044.050000", "093044.052000", "093044.055000", "093044.058000", "093124.022000", "093124.025000", "093124.028000", "093124.031000", "093124.034000", "093124.037000", "093124.040000", "093124.042000", "093124.045000", "093124.048000", "093124.051000", "093124.054000", "093124.057000", "093124.060000", "093124.063000", "093124.066000", "093124.069000", "093124.071000", "093124.074000", "093124.077000", "093124.080000", "093124.083000", "093124.086000", "093124.089000", "093124.092000", "093124.095000", "093124.098000", "093204.022000", "093204.025000", "093204.028000", "093204.031000", "093204.034000", "093204.037000", "093204.040000", "093204.043000", "093204.045000", "093204.048000", "093204.051000", "093204.054000", "093204.057000", "093204.060000", "093204.063000", "093204.066000", "093204.069000", "093204.072000", "093204.075000", "093204.078000", "093204.080000", "093204.083000", "093204.086000", "093204.089000", "093204.092000", "093204.095000", "093204.098000", "093244.022000", "093244.025000", "093244.028000", "093244.031000", "093244.034000", "093244.037000", "093244.040000", "093244.043000", "093244.046000", "093244.048000", "093244.051000", "093244.054000", "093244.057000", "093244.060000", "093244.063000", "093244.066000", "093244.069000", "093244.072000", "093244.075000", "093244.078000", "093244.081000", "093244.083000", "093244.086000", "093244.089000", "093244.092000", "093244.095000", "093244.098000", "093324.023000", "093324.026000", "093324.029000", "093324.032000", "093324.035000", "093324.038000", "093324.041000", "093324.044000", "093324.047000", "093324.049000", "093324.052000", "093324.055000", "093324.058000", "093324.061000", "093324.064000", "093324.084000", "093324.087000", "093324.090000", "093324.093000", "093324.096000", "093324.098000", "093324.101000", "093324.104000", "093324.107000", "093324.110000", "093324.113000", "093324.116000", "093404.022000", "093404.025000", "093404.028000", "093404.031000", "093404.034000", "093404.037000", "093404.039000", "093404.042000", "093404.045000", "093404.048000", "093404.051000", "093404.054000", "093404.057000", "093404.060000", "093404.063000", "093404.066000", "093404.069000", "093404.072000", "093404.075000", "093404.077000", "093404.080000", "093404.083000", "093404.086000", "093404.090000", "093404.093000", "093404.096000", "093444.022000", "093444.025000", "093444.028000", "093444.031000", "093444.034000", "093444.037000", "093444.040000", "093444.043000", "093444.046000", "093444.049000", "093444.051000", "093444.054000", "093444.057000", "093444.060000", "093444.063000", "093444.066000", "093444.069000", "093444.072000", "093444.075000", "093444.078000", "093444.080000", "093444.083000", "093444.086000", "093444.089000", "093444.092000", "093444.095000", "093444.098000", "093500.892000", "093500.895000", "093500.898000", "093500.901000", "093500.904000", "093500.907000", "093500.910000", "093500.913000", "093500.916000", "093500.918000", "093500.921000", "093500.924000"],
