{
  "AcquisitionMatrixPE": 104,
  "AcquisitionNumber": 1,
  "AcquisitionTime": "18:50:28.197500",
  "BandwidthPerPixelPhaseEncode": 17.17,
  "BaseResolution": 104,
  "BodyPartExamined": "BRAIN",
  "CoilString": "HC1-7;NC1_2",
  "ConsistencyInfo": "N4_VE11C_LATEST_20160120",
  "ConversionSoftware": "dcm2niix",
  "ConversionSoftwareVersion": "v1.0.20190720  (JP2:OpenJPEG) GCC7.3.0",
  "DerivedVendorReportedEchoSpacing": 0.000560011,
  "DeviceSerialNumber": "167006",
  "DwellTime": 2.1e-06,
  "EchoTime": 0.037,
  "EchoTrainLength": 104,
  "EffectiveEchoSpacing": 0.000560011,
  "FlipAngle": 52,
  "ImageComments": "Unaliased_MB4_PE3_LB",
  "ImageOrientationPatientDICOM": [0.99828, -0.0491619, -0.031934, 0.0318954, 0.912533, -0.407758],
  "ImageType": [
    "ORIGINAL",
    "PRIMARY",
    "M",
    "MB",
    "ND",
    "MOSAIC"
],
  "ImagingFrequency": 123.259,
  "InPlanePhaseEncodingDirectionDICOM": "COL",
  "InstitutionAddress": "Chemin_Queen-Mary_4565_Montreal_District_CA_H3W_1W5",
  "InstitutionName": "IUGM",
  "InstitutionalDepartmentName": "Department",
  "MRAcquisitionType": "2D",
  "MagneticFieldStrength": 3,
  "Manufacturer": "Siemens",
  "ManufacturersModelName": "Prisma_fit",
  "Modality": "MR",
  "MultibandAccelerationFactor": 4,
  "PartialFourier": 1,
  "PatientPosition": "HFS",
  "PercentPhaseFOV": 100,
  "PhaseEncodingDirection": "j",
  "PhaseEncodingSteps": 104,
  "PhaseResolution": 1,
  "PixelBandwidth": 2290,
  "ProcedureStepDescription": "video_friends",
  "ProtocolName": "func_task-friends-s01e06a",
  "PulseSequenceDetails": "%CustomerSeq%_cmrr_mbep2d_bold",
  "ReceiveCoilActiveElements": "HC1-7;NC1,2",
  "ReceiveCoilName": "HeadNeck_64",
  "ReconMatrixPE": 104,
  "RepetitionTime": 1.49,
  "SAR": 0.0361652,
  "ScanOptions": "FS",
  "ScanningSequence": "EP",
  "SequenceName": "epfid2d1_104",
  "SequenceVariant": "SK_SS",
  "SeriesDescription": "func_task-friends-s01e06a",
  "SeriesNumber": 17,
  "ShimSetting": [615, -7259, -8848, 411, 50, -410, -8, 44],
  "SliceThickness": 2,
  "SliceTiming": [0, 0.785, 0.0975, 0.8825, 0.195, 0.98, 0.295, 1.0775, 0.3925, 1.175, 0.49, 1.275, 0.5875, 1.3725, 0.685, 0, 0.785, 0.0975, 0.8825, 0.195, 0.98, 0.295, 1.0775, 0.3925, 1.175, 0.49, 1.275, 0.5875, 1.3725, 0.685, 0, 0.785, 0.0975, 0.8825, 0.195, 0.98, 0.295, 1.0775, 0.3925, 1.175, 0.49, 1.275, 0.5875, 1.3725, 0.685, 0, 0.785, 0.0975, 0.8825, 0.195, 0.98, 0.295, 1.0775, 0.3925, 1.175, 0.49, 1.275, 0.5875, 1.3725, 0.685],
  "SoftwareVersions": "syngo_MR_E11",
  "SpacingBetweenSlices": 2,
  "StationName": "MRC35049",
  "TaskName": "friends",
  "TotalReadoutTime": 0.0576811,
  "TxRefAmp": 237.322,
  "WipMemBlock": "5edafb37-9738-4d30-9198-b97d546c15cf||Sequence: R016 ve11c/master r/e634e98; Dec 19 2017 11:00:25 by eja",
  "dcmmeta_affine": [
    [-1.9965603351593018, 0.06379079073667526, -0.0983738899230957, 98.36591339111328],
    [0.09832380712032318, 1.8250659704208374, -0.8120754361152649, -72.7469253540039],
    [-0.063867948949337, 0.8155150413513184, 1.8250633478164673, -72.46204376220703],
    [0.0, 0.0, 0.0, 1.0]
],
  "dcmmeta_reorient_transform": [
    [0.0, -1.0, 0.0, 103.0],
    [1.0, 0.0, 0.0, 0.0],
    [0.0, 0.0, 1.0, 0.0],
    [0.0, 0.0, 0.0, 1.0]
],
  "dcmmeta_shape": [104, 104, 60, 592],
  "dcmmeta_slice_dim": 2,
  "dcmmeta_version": 0.6,
  "global": {
    "const": {
      "AcquisitionMatrix": [104, 0, 0, 104],
      "AngioFlag": "N",
      "BitsAllocated": 16,
      "BitsStored": 16,
      "BodyPartExamined": "BRAIN",
      "Columns": 832,
      "EchoNumbers": 1,
      "EchoTime": 37.0,
      "EchoTrainLength": 104,
      "FlipAngle": 52.0,
      "HighBit": 15,
      "ImageOrientationPatient": [0.99828018540691, -0.0491619023461, -0.0319339753502, 0.03189539369212, 0.91253300317642, -0.40775752841],
      "ImagePositionPatient": [-854.90418705026, -743.76903270055, 331.63142515321],
      "ImageType": [
        "ORIGINAL",
        "PRIMARY",
        "M",
        "MB",
        "ND",
        "MOSAIC"
],
      "ImagedNucleus": "1H",
      "ImagingFrequency": 123.25919,
      "InPlanePhaseEncodingDirection": "COL",
      "MRAcquisitionType": "2D",
      "MagneticFieldStrength": 3.0,
      "Manufacturer": "SIEMENS",
      "ManufacturerModelName": "Prisma_fit",
      "Modality": "MR",
      "NumberOfAverages": 1.0,
      "NumberOfPhaseEncodingSteps": 104,
      "PercentPhaseFieldOfView": 100.0,
      "PercentSampling": 100.0,
      "PerformedProcedureStepStartTime": "173550.574000",
      "PhotometricInterpretation": "MONOCHROME2",
      "PixelBandwidth": 2290.0,
      "PixelRepresentation": 0,
      "PixelSpacing": [2.0, 2.0],
      "ProtocolName": "func_task-friends-s01e06a",
      "RepetitionTime": 1490.0,
      "Rows": 832,
      "SAR": 0.03616523796133,
      "SamplesPerPixel": 1,
      "ScanOptions": "FS",
      "ScanningSequence": "EP",
      "SequenceName": "epfid2d1_104",
      "SequenceVariant": [
        "SK",
        "SS"
],
      "SeriesDescription": "func_task-friends-s01e06a",
      "SeriesNumber": 17,
      "SeriesTime": "185153.915000",
      "SliceLocation": -41.424228035963,
      "SliceThickness": 2.0,
      "SmallestImagePixelValue": 0,
      "SoftwareVersions": "syngo MR E11",
      "SpacingBetweenSlices": 2.0000000449625,
      "SpecificCharacterSet": "ISO_IR 100",
      "StudyID": "1",
      "StudyTime": "173550.501000",
      "TransmitCoilName": "Body",
      "VariableFlipAngleFlag": "N",
      "WindowCenterWidthExplanation": "Algo1",
      "dBdt": 0.0},
    "slices": {}
  },
  "time": {
    "samples": {
      "AcquisitionNumber": [1, 2, 3, 4, 5, 6, 7, 8, 9, 10, 11, 12, 13, 14, 15, 16, 17, 18, 19, 20, 21, 22, 23, 24, 25, 26, 27, 28, 29, 30, 31, 32, 33, 34, 35, 36, 37, 38, 39, 40, 41, 42, 43, 44, 45, 46, 47, 48, 49, 50, 51, 52, 53, 54, 55, 56, 57, 58, 59, 60, 61, 62, 63, 64, 65, 66, 67, 68, 69, 70, 71, 72, 73, 74, 75, 76, 77, 78, 79, 80, 81, 82, 83, 84, 85, 86, 87, 88, 89, 90, 91, 92, 93, 94, 95, 96, 97, 98, 99, 100, 101, 102, 103, 104, 105, 106, 107, 108, 109, 110, 111, 112, 113, 114, 115, 116, 117, 118, 119, 120, 121, 122, 123, 124, 125, 126, 127, 128, 129, 130, 131, 132, 133, 134, 135, 136, 137, 138, 139, 140, 141, 142, 143, 144, 145, 146, 147, 148, 149, 150, 151, 152, 153, 154, 155, 156, 157, 158, 159, 160, 161, 162, 163, 164, 165, 166, 167, 168, 169, 170, 171, 172, 173, 174, 175, 176, 177, 178, 179, 180, 181, 182, 183, 184, 185, 186, 187, 188, 189, 190, 191, 192, 193, 194, 195, 196, 197, 198, 199, 200, 201, 202, 203, 204, 205, 206, 207, 208, 209, 210, 211, 212, 213, 214, 215, 216, 217, 218, 219, 220, 221, 222, 223, 224, 225, 226, 227, 228, 229, 230, 231, 232, 233, 234, 235, 236, 237, 238, 239, 240, 241, 242, 243, 244, 245, 246, 247, 248, 249, 250, 251, 252, 253, 254, 255, 256, 257, 258, 259, 260, 261, 262, 263, 264, 265, 266, 267, 268, 269, 270, 271, 272, 273, 274, 275, 276, 277, 278, 279, 280, 281, 282, 283, 284, 285, 286, 287, 288, 289, 290, 291, 292, 293, 294, 295, 296, 297, 298, 299, 300, 301, 302, 303, 304, 305, 306, 307, 308, 309, 310, 311, 312, 313, 314, 315, 316, 317, 318, 319, 320, 321, 322, 323, 324, 325, 326, 327, 328, 329, 330, 331, 332, 333, 334, 335, 336, 337, 338, 339, 340, 341, 342, 343, 344, 345, 346, 347, 348, 349, 350, 351, 352, 353, 354, 355, 356, 357, 358, 359, 360, 361, 362, 363, 364, 365, 366, 367, 368, 369, 370, 371, 372, 373, 374, 375, 376, 377, 378, 379, 380, 381, 382, 383, 384, 385, 386, 387, 388, 389, 390, 391, 392, 393, 394, 395, 396, 397, 398, 399, 400, 401, 402, 403, 404, 405, 406, 407, 408, 409, 410, 411, 412, 413, 414, 415, 416, 417, 418, 419, 420, 421, 422, 423, 424, 425, 426, 427, 428, 429, 430, 431, 432, 433, 434, 435, 436, 437, 438, 439, 440, 441, 442, 443, 444, 445, 446, 447, 448, 449, 450, 451, 452, 453, 454, 455, 456, 457, 458, 459, 460, 461, 462, 463, 464, 465, 466, 467, 468, 469, 470, 471, 472, 473, 474, 475, 476, 477, 478, 479, 480, 481, 482, 483, 484, 485, 486, 487, 488, 489, 490, 491, 492, 493, 494, 495, 496, 497, 498, 499, 500, 501, 502, 503, 504, 505, 506, 507, 508, 509, 510, 511, 512, 513, 514, 515, 516, 517, 518, 519, 520, 521, 522, 523, 524, 525, 526, 527, 528, 529, 530, 531, 532, 533, 534, 535, 536, 537, 538, 539, 540, 541, 542, 543, 544, 545, 546, 547, 548, 549, 550, 551, 552, 553, 554, 555, 556, 557, 558, 559, 560, 561, 562, 563, 564, 565, 566, 567, 568, 569, 570, 571, 572, 573, 574, 575, 576, 577, 578, 579, 580, 581, 582, 583, 584, 585, 586, 587, 588, 589, 590, 591, 592],
      "AcquisitionTime": ["185028.197500", "185029.687500", "185031.177500", "185032.667500", "185034.157500", "185035.647500", "185037.137500", "185038.627500", "185040.117500", "185041.607500", "185043.097500", "185044.587500", "185046.077500", "185047.567500", "185049.057500", "185050.547500", "185052.037500", "185053.527500", "185055.017500", "185056.507500", "185057.997500", "185059.487500", "185100.977500", "185102.467500", "185103.957500", "185105.447500", "185106.937500", "185108.427500", "185109.917500", "185111.407500", "185112.897500", "185114.387500", "185115.877500", "185117.367500", "185118.857500", "185120.347500", "185121.837500", "185123.327500", "185124.817500", "185126.307500", "185127.797500", "185129.287500", "185130.777500", "185132.267500", "185133.757500", "185135.247500", "185136.737500", "185138.227500", "185139.717500", "185141.207500", "185142.697500", "185144.187500", "185145.677500", "185147.167500", "185148.657500", "185150.147500", "185151.637500", "185153.127500", "185154.617500", "185156.107500", "185157.597500", "185159.087500", "185200.577500", "185202.067500", "185203.557500", "185205.047500", "185206.537500", "185208.027500", "185209.517500", "185211.007500", "185212.497500", "185213.987500", "185215.477500", "185216.967500", "185218.457500", "185219.947500", "185221.437500", "185222.927500", "185224.417500", "185225.907500", "185227.397500", "185228.887500", "185230.377500", "185231.867500", "185233.357500", "185234.847500", "185236.337500", "185237.827500", "185239.317500", "185240.807500", "185242.297500", "185243.787500", "185245.277500", "185246.767500", "185248.257500", "185249.747500", "185251.237500", "185252.727500", "185254.217500", "185255.707500", "185257.197500", "185258.687500", "185300.177500", "185301.667500", "185303.157500", "185304.647500", "185306.137500", "185307.627500", "185309.117500", "185310.607500", "185312.097500", "185313.587500", "185315.077500", "185316.567500", "185318.057500", "185319.547500", "185321.037500", "185322.527500", "185324.017500", "185325.507500", "185326.997500", "185328.487500", "185329.977500", "185331.467500", "185332.957500", "185334.447500", "185335.937500", "185337.427500", "185338.917500", "185340.407500", "185341.897500", "185343.387500", "185344.877500", "185346.367500", "185347.857500", "185349.347500", "185350.837500", "185352.327500", "185353.817500", "185355.307500", "185356.797500", "185358.287500", "185359.777500", "185401.267500", "185402.757500", "185404.247500", "185405.737500", "185407.227500", "185408.717500", "185410.207500", "185411.697500", "185413.187500", "185414.677500", "185416.167500", "185417.657500", "185419.147500", "185420.637500", "185422.127500", "185423.617500", "185425.107500", "185426.597500", "185428.087500", "185429.577500", "185431.067500", "185432.557500", "185434.047500", "185435.537500", "185437.027500", "185438.517500", "185440.007500", "185441.497500", "185442.987500", "185444.477500", "185445.967500", "185447.457500", "185448.947500", "185450.437500", "185451.927500", "185453.417500", "185454.907500", "185456.397500", "185457.887500", "185459.377500", "185500.867500", "185502.357500", "185503.847500", "185505.337500", "185506.827500", "185508.317500", "185509.807500", "185511.297500", "185512.787500", "185514.277500", "185515.767500", "185517.257500", "185518.747500", "185520.237500", "185521.727500", "185523.217500", "185524.707500", "185526.197500", "185527.687500", "185529.177500", "185530.667500", "185532.157500", "185533.647500", "185535.137500", "185536.627500", "185538.117500", "185539.607500", "185541.097500", "185542.587500", "185544.077500", "185545.567500", "185547.057500", "185548.547500", "185550.037500", "185551.527500", "185553.017500", "185554.507500", "185555.997500", "185557.487500", "185558.977500", "185600.467500", "185601.957500", "185603.447500", "185604.937500", "185606.427500", "185607.917500", "185609.407500", "185610.897500", "185612.387500", "185613.877500", "185615.367500", "185616.857500", "185618.347500", "185619.837500", "185621.327500", "185622.817500", "185624.307500", "185625.797500", "185627.287500", "185628.777500", "185630.267500", "185631.757500", "185633.247500", "185634.737500", "185636.227500", "185637.717500", "185639.207500", "185640.697500", "185642.187500", "185643.677500", "185645.167500", "185646.657500", "185648.147500", "185649.637500", "185651.127500", "185652.617500", "185654.107500", "185655.597500", "185657.087500", "185658.577500", "185700.067500", "185701.557500", "185703.047500", "185704.537500", "185706.027500", "185707.517500", "185709.007500", "185710.497500", "185711.987500", "185713.477500", "185714.967500", "185716.457500", "185717.947500", "185719.437500", "185720.927500", "185722.417500", "185723.907500", "185725.397500", "185726.887500", "185728.377500", "185729.867500", "185731.357500", "185732.847500", "185734.337500", "185735.827500", "185737.317500", "185738.807500", "185740.297500", "185741.787500", "185743.277500", "185744.767500", "185746.257500", "185747.747500", "185749.237500", "185750.727500", "185752.217500", "185753.707500", "185755.197500", "185756.687500", "185758.177500", "185759.667500", "185801.157500", "185802.647500", "185804.137500", "185805.627500", "185807.117500", "185808.607500", "185810.097500", "185811.587500", "185813.077500", "185814.567500", "185816.057500", "185817.547500", "185819.037500", "185820.527500", "185822.017500", "185823.507500", "185824.997500", "185826.487500", "185827.977500", "185829.467500", "185830.957500", "185832.447500", "185833.937500", "185835.427500", "185836.917500", "185838.407500", "185839.897500", "185841.387500", "185842.877500", "185844.367500", "185845.857500", "185847.347500", "185848.837500", "185850.327500", "185851.817500", "185853.307500", "185854.797500", "185856.287500", "185857.777500", "185859.267500", "185900.757500", "185902.247500", "185903.737500", "185905.227500", "185906.717500", "185908.207500", "185909.697500", "185911.187500", "185912.677500", "185914.167500", "185915.657500", "185917.147500", "185918.637500", "185920.127500", "185921.617500", "185923.107500", "185924.597500", "185926.087500", "185927.577500", "185929.067500", "185930.557500", "185932.047500", "185933.537500", "185935.027500", "185936.517500", "185938.007500", "185939.497500", "185940.987500", "185942.477500", "185943.967500", "185945.457500", "185946.947500", "185948.437500", "185949.927500", "185951.417500", "185952.907500", "185954.397500", "185955.887500", "185957.377500", "185958.867500", "190000.357500", "190001.847500", "190003.337500", "190004.827500", "190006.317500", "190007.807500", "190009.297500", "190010.787500", "190012.277500", "190013.767500", "190015.257500", "190016.747500", "190018.237500", "190019.727500", "190021.217500", "190022.707500", "190024.197500", "190025.687500", "190027.177500", "190028.667500", "190030.157500", "190031.647500", "190033.137500", "190034.627500", "190036.117500", "190037.607500", "190039.097500", "190040.587500", "190042.077500", "190043.567500", "190045.057500", "190046.547500", "190048.037500", "190049.527500", "190051.017500", "190052.507500", "190053.997500", "190055.487500", "190056.977500", "190058.467500", "190059.957500", "190101.447500", "190102.937500", "190104.427500", "190105.917500", "190107.407500", "190108.897500", "190110.387500", "190111.877500", "190113.367500", "190114.857500", "190116.347500", "190117.837500", "190119.327500", "190120.817500", "190122.307500", "190123.797500", "190125.287500", "190126.777500", "190128.267500", "190129.757500", "190131.247500", "190132.737500", "190134.227500", "190135.717500", "190137.207500", "190138.697500", "190140.187500", "190141.677500", "190143.167500", "190144.657500", "190146.147500", "190147.637500", "190149.127500", "190150.617500", "190152.107500", "190153.597500", "190155.087500", "190156.577500", "190158.067500", "190159.557500", "190201.047500", "190202.537500", "190204.027500", "190205.517500", "190207.007500", "190208.497500", "190209.987500", "190211.477500", "190212.967500", "190214.457500", "190215.947500", "190217.437500", "190218.927500", "190220.417500", "190221.907500", "190223.397500", "190224.887500", "190226.377500", "190227.867500", "190229.357500", "190230.847500", "190232.337500", "190233.827500", "190235.317500", "190236.807500", "190238.297500", "190239.787500", "190241.277500", "190242.767500", "190244.257500", "190245.747500", "190247.237500", "190248.727500", "190250.217500", "190251.707500", "190253.197500", "190254.687500", "190256.177500", "190257.667500", "190259.157500", "190300.647500", "190302.137500", "190303.627500", "190305.117500", "190306.607500", "190308.097500", "190309.587500", "190311.077500", "190312.567500", "190314.057500", "190315.547500", "190317.037500", "190318.527500", "190320.017500", "190321.507500", "190322.997500", "190324.487500", "190325.977500", "190327.467500", "190328.957500", "190330.447500", "190331.937500", "190333.427500", "190334.917500", "190336.407500", "190337.897500", "190339.387500", "190340.877500", "190342.367500", "190343.857500", "190345.347500", "190346.837500", "190348.327500", "190349.817500", "190351.307500", "190352.797500", "190354.287500", "190355.777500", "190357.267500", "190358.757500", "190400.247500", "190401.737500", "190403.227500", "190404.717500", "190406.207500", "190407.697500", "190409.187500", "190410.677500", "190412.167500", "190413.657500", "190415.147500", "190416.637500", "190418.127500", "190419.617500", "190421.107500", "190422.597500", "190424.087500", "190425.577500", "190427.067500", "190428.557500", "190430.047500", "190431.537500", "190433.027500", "190434.517500", "190436.007500", "190437.497500", "190438.987500", "190440.477500", "190441.967500", "190443.457500", "190444.947500", "190446.437500", "190447.927500", "190449.417500", "190450.907500", "190452.397500", "190453.887500", "190455.377500", "190456.867500", "190458.357500", "190459.847500", "190501.337500", "190502.827500", "190504.317500", "190505.807500", "190507.297500", "190508.787500"],
      "ContentTime": ["185153.918000", "185153.921000", "185153.924000", "185153.929000", "185153.932000", "185153.935000", "185153.937000", "185153.940000", "185153.943000", "185153.946000", "185153.949000", "185153.954000", "185153.957000", "185153.960000", "185153.963000", "185153.966000", "185153.969000", "185153.972000", "185153.974000", "185153.977000", "185153.980000", "185153.989000", "185153.992000", "185153.995000", "185153.998000", "185154.002000", "185154.005000", "185154.008000", "185154.011000", "185154.014000", "185154.017000", "185154.020000", "185154.023000", "185213.886000", "185213.889000", "185213.892000", "185213.895000", "185213.898000", "185213.901000", "185213.904000", "185213.906000", "185213.909000", "185213.912000", "185213.915000", "185213.918000", "185213.921000", "185213.924000", "185213.927000", "185213.930000", "185213.933000", "185213.936000", "185213.938000", "185213.941000", "185233.886000", "185233.889000", "185233.892000", "185233.895000", "185233.898000", "185233.901000", "185233.904000", "185233.907000", "185233.910000", "185233.913000", "185233.916000", "185233.919000", "185233.922000", "185233.925000", "185233.927000", "185233.930000", "185233.933000", "185233.936000", "185233.939000", "185233.942000", "185253.886000", "185253.889000", "185253.892000", "185253.895000", "185253.897000", "185253.900000", "185253.903000", "185253.906000", "185253.909000", "185253.912000", "185253.915000", "185253.918000", "185253.921000", "185253.924000", "185253.926000", "185253.929000", "185253.932000", "185253.935000", "185253.938000", "185253.941000", "185253.944000", "185333.886000", "185333.889000", "185333.892000", "185333.895000", "185333.898000", "185333.901000", "185333.903000", "185333.918000", "185333.921000", "185333.924000", "185333.927000", "185333.929000", "185333.932000", "185333.935000", "185333.938000", "185333.941000", "185333.944000", "185333.947000", "185333.950000", "185333.953000", "185333.956000", "185333.959000", "185333.962000", "185333.964000", "185333.967000", "185333.970000", "185333.973000", "185333.976000", "185333.979000", "185333.982000", "185413.886000", "185413.889000", "185413.892000", "185413.895000", "185413.898000", "185413.901000", "185413.904000", "185413.907000", "185413.910000", "185413.912000", "185413.915000", "185413.918000", "185413.921000", "185413.924000", "185413.927000", "185413.930000", "185413.933000", "185413.936000", "185413.939000", "185413.941000", "185413.944000", "185413.947000", "185413.950000", "185413.953000", "185413.956000", "185413.959000", "185413.962000", "185453.886000", "185453.889000", "185453.892000", "185453.895000", "185453.898000", "185453.901000", "185453.904000", "185453.907000", "185453.910000", "185453.913000", "185453.915000", "185453.918000", "185453.921000", "185453.929000", "185453.932000", "185453.935000", "185453.938000", "185453.941000", "185453.943000", "185453.946000", "185453.949000", "185453.952000", "185453.978000", "185453.981000", "185453.984000", "185453.987000", "185533.886000", "185533.889000", "185533.892000", "185533.895000", "185533.898000", "185533.901000", "185533.904000", "185533.907000", "185533.910000", "185533.912000", "185533.915000", "185533.918000", "185533.921000", "185533.924000", "185533.927000", "185533.930000", "185533.933000", "185533.936000", "185533.939000", "185533.942000", "185533.945000", "185533.948000", "185533.950000", "185533.953000", "185533.956000", "185533.959000", "185533.962000", "185613.887000", "185613.890000", "185613.893000", "185613.896000", "185613.899000", "185613.902000", "185613.905000", "185613.908000", "185613.911000", "185613.914000", "185613.916000", "185613.919000", "185613.922000", "185613.925000", "185613.928000", "185613.931000", "185613.934000", "185613.937000", "185613.940000", "185613.943000", "185613.946000", "185613.949000", "185613.951000", "185613.955000", "185613.957000", "185613.960000", "185613.963000", "185653.886000", "185653.889000", "185653.899000", "185653.902000", "185653.904000", "185653.907000", "185653.910000", "185653.913000", "185653.916000", "185653.919000", "185653.922000", "185653.925000", "185653.928000", "185653.931000", "185653.934000", "185653.937000", "185653.940000", "185653.942000", "185653.945000", "185653.948000", "185653.951000", "185653.954000", "185653.957000", "185653.960000", "185653.963000", "185653.966000", "185653.969000", "185733.886000", "185733.889000", "185733.892000", "185733.895000", "185733.898000", "185733.901000", "185733.904000", "185733.907000", "185733.910000", "185733.913000", "185733.916000", "185733.918000", "185733.921000", "185733.924000", "185733.927000", "185733.930000", "185733.933000", "185733.936000", "185733.939000", "185733.942000", "185733.945000", "185733.948000", "185733.951000", "185733.954000", "185733.957000", "185733.960000", "185733.962000", "185813.886000", "185813.889000", "185813.892000", "185813.895000", "185813.898000", "185813.901000", "185813.904000", "185813.907000", "185813.910000", "185813.913000", "185813.916000", "185813.919000", "185813.922000", "185813.924000", "185813.927000", "185813.930000", "185813.933000", "185813.936000", "185813.939000", "185813.942000", "185813.945000", "185813.948000", "185813.951000", "185813.954000", "185813.957000", "185813.960000", "185813.963000", "185853.886000", "185853.889000", "185853.892000", "185853.895000", "185853.898000", "185853.901000", "185853.904000", "185853.907000", "185853.910000", "185853.913000", "185853.916000", "185853.919000", "185853.922000", "185853.924000", "185853.927000", "185853.930000", "185853.933000", "185853.936000", "185853.939000", "185853.942000", "185853.945000", "185853.948000", "185853.951000", "185853.954000", "185853.957000", "185853.960000", "185913.886000", "185913.889000", "185913.892000", "185913.895000", "185913.898000", "185913.901000", "185913.904000", "185913.907000", "185913.910000", "185913.913000", "185913.916000", "185913.919000", "185913.922000", "185913.925000", "185953.886000", "185953.889000", "185953.892000", "185953.895000", "185953.898000", "185953.901000", "185953.904000", "185953.907000", "185953.910000", "185953.921000", "185953.924000", "185953.927000", "185953.930000", "185953.933000", "185953.936000", "185953.939000", "185953.942000", "185953.945000", "185953.948000", "185953.951000", "185953.954000", "185953.956000", "185953.959000", "185953.962000", "185953.965000", "185953.968000", "185953.971000", "190033.886000", "190033.889000", "190033.892000", "190033.895000", "190033.898000", "190033.901000", "190033.904000", "190033.907000", "190033.910000", "190033.913000", "190033.916000", "190033.918000", "190033.921000", "190033.924000", "190033.927000", "190033.930000", "190033.933000", "190033.936000", "190033.939000", "190033.942000", "190033.945000", "190033.948000", "190033.951000", "190033.954000", "190033.957000", "190033.960000", "190033.963000", "190113.886000", "190113.889000", "190113.892000", "190113.895000", "190113.898000", "190113.901000", "190113.904000", "190113.907000", "190113.910000", "190113.913000", "190113.916000", "190113.919000", "190113.922000", "190113.925000", "190113.928000", "190113.931000", "190113.934000", "190113.937000", "190113.939000", "190113.942000", "190113.945000", "190113.948000", "190113.951000", "190113.954000", "190113.957000", "190113.960000", "190153.886000", "190153.889000", "190153.892000", "190153.895000", "190153.898000", "190153.901000", "190153.904000", "190153.907000", "190153.910000", "190153.913000", "190153.916000", "190153.919000", "190153.922000", "190153.925000", "190153.927000", "190153.930000", "190153.933000", "190153.936000", "190153.939000", "190153.942000", "190153.945000", "190153.948000", "190153.951000", "190153.954000", "190153.957000", "190153.960000", "190153.963000", "190233.886000", "190233.889000", "190233.892000", "190233.895000", "190233.898000", "190233.901000", "190233.904000", "190233.907000", "190233.910000", "190233.913000", "190233.916000", "190233.919000", "190233.922000", "190233.925000", "190233.928000", "190233.931000", "190233.934000", "190233.937000", "190233.940000", "190233.943000", "190233.945000", "190233.948000", "190233.951000", "190233.954000", "190233.957000", "190233.960000", "190233.963000", "190313.886000", "190313.889000", "190313.892000", "190313.895000", "190313.898000", "190313.901000", "190313.904000", "190313.907000", "190313.910000", "190313.913000", "190313.916000", "190313.919000", "190313.922000", "190313.925000", "190313.928000", "190313.930000", "190313.933000", "190313.936000", "190313.939000", "190313.942000", "190313.945000", "190313.948000", "190313.951000", "190313.954000", "190313.957000", "190313.960000", "190313.963000", "190353.886000", "190353.889000", "190353.892000", "190353.895000", "190353.898000", "190353.901000", "190353.904000", "190353.907000", "190353.910000", "190353.913000", "190353.916000", "190353.919000", "190353.922000", "190353.925000", "190353.927000", "190353.930000", "190353.933000", "190353.936000", "190353.939000", "190353.942000", "190353.945000", "190353.948000", "190353.951000", "190353.963000", "190353.966000", "190353.969000", "190353.972000", "190433.886000", "190433.889000", "190433.892000", "190433.895000", "190433.898000", "190433.901000", "190433.904000", "190433.907000", "190433.910000", "190433.913000", "190433.916000", "190433.919000", "190433.922000", "190433.925000", "190433.927000", "190433.930000", "190433.933000", "190433.936000", "190433.939000", "190433.942000", "190433.945000", "190433.948000", "190433.951000", "190433.954000", "190433.957000", "190433.960000", "190433.963000", "190510.978000", "190510.981000", "190510.984000", "190510.987000", "190510.990000", "190510.993000", "190510.996000", "190510.999000", "190511.002000", "190511.005000", "190511.008000", "190511.011000", "190511.014000", "190511.017000", "190511.020000", "190511.023000", "190511.026000", "190511.029000", "190511.032000", "190511.035000", "190511.039000", "190511.042000", "190511.045000", "190511.048000", "190511.051000"],
