{
  "AcquisitionMatrixPE": 104,
  "AcquisitionNumber": 1,
  "AcquisitionTime": "11:08:45.650000",
  "BandwidthPerPixelPhaseEncode": 17.17,
  "BaseResolution": 104,
  "BodyPartExamined": "BRAIN",
  "CoilString": "HC1-7;NC1_2",
  "ConsistencyInfo": "N4_VE11C_LATEST_20160120",
  "ConversionSoftware": "dcm2niix",
  "ConversionSoftwareVersion": "v1.0.20190902",
  "DerivedVendorReportedEchoSpacing": 0.000560011,
  "DeviceSerialNumber": "167006",
  "DwellTime": 2.1e-06,
  "EchoTime": 0.037,
  "EchoTrainLength": 104,
  "EffectiveEchoSpacing": 0.000560011,
  "FlipAngle": 52,
  "ImageComments": "Unaliased_MB4_PE3_LB",
  "ImageOrientationPatientDICOM": [0.999712, 0.0206763, 0.0121523, -0.0118653, 0.866747, -0.498608],
  "ImageType": [
    "ORIGINAL",
    "PRIMARY",
    "M",
    "MB",
    "ND",
    "MOSAIC"
],
  "ImagingFrequency": 123.259,
  "InPlanePhaseEncodingDirectionDICOM": "COL",
  "InstitutionAddress": "Chemin_Queen-Mary_4565_Montreal_District_CA_H3W_1W5",
  "InstitutionName": "IUGM",
  "InstitutionalDepartmentName": "Department",
  "MRAcquisitionType": "2D",
  "MagneticFieldStrength": 3,
  "Manufacturer": "Siemens",
  "ManufacturersModelName": "Prisma_fit",
  "Modality": "MR",
  "MultibandAccelerationFactor": 4,
  "PartialFourier": 1,
  "PatientPosition": "HFS",
  "PercentPhaseFOV": 100,
  "PhaseEncodingDirection": "j",
  "PhaseEncodingSteps": 104,
  "PhaseResolution": 1,
  "PixelBandwidth": 2290,
  "ProcedureStepDescription": "video_friends",
  "ProtocolName": "func_task-friends-s04e23b",
  "PulseSequenceDetails": "%CustomerSeq%_cmrr_mbep2d_bold",
  "ReceiveCoilActiveElements": "HC1-7;NC1,2",
  "ReceiveCoilName": "HeadNeck_64",
  "ReconMatrixPE": 104,
  "RepetitionTime": 1.49,
  "SAR": 0.0399282,
  "ScanOptions": "FS",
  "ScanningSequence": "EP",
  "SequenceName": "epfid2d1_104",
  "SequenceVariant": "SK_SS",
  "SeriesDescription": "func_task-friends-s04e23b",
  "SeriesNumber": 34,
  "ShimSetting": [620, -7215, -8857, 338, -25, -254, -22, -21],
  "SliceThickness": 2,
  "SliceTiming": [0, 0.785, 0.0975, 0.8825, 0.1975, 0.98, 0.295, 1.0775, 0.3925, 1.1775, 0.49, 1.275, 0.5875, 1.3725, 0.6875, 0, 0.785, 0.0975, 0.8825, 0.1975, 0.98, 0.295, 1.0775, 0.3925, 1.1775, 0.49, 1.275, 0.5875, 1.3725, 0.6875, 0, 0.785, 0.0975, 0.8825, 0.1975, 0.98, 0.295, 1.0775, 0.3925, 1.1775, 0.49, 1.275, 0.5875, 1.3725, 0.6875, 0, 0.785, 0.0975, 0.8825, 0.1975, 0.98, 0.295, 1.0775, 0.3925, 1.1775, 0.49, 1.275, 0.5875, 1.3725, 0.6875],
  "SoftwareVersions": "syngo_MR_E11",
  "SpacingBetweenSlices": 2,
  "StationName": "MRC35049",
  "TaskName": "s04e23b",
  "TotalReadoutTime": 0.0576811,
  "TxRefAmp": 258.776,
  "WipMemBlock": "6fcf49e3-4546-4901-954e-95cd1120da38||Sequence: R016 ve11c/master r/e634e98; Dec 19 2017 11:00:25 by eja",
  "dcmmeta_affine": [
    [-1.999424695968628, -0.023730678483843803, 0.04168466851115227, 103.70902252197266],
    [-0.041352685540914536, 1.7334930896759033, -0.9966402053833008, -58.048648834228516],
    [0.024304568767547607, 0.9972153902053833, 1.733485221862793, -92.7372817993164],
    [0.0, 0.0, 0.0, 1.0]
],
  "dcmmeta_reorient_transform": [
    [0.0, -1.0, 0.0, 103.0],
    [1.0, 0.0, 0.0, 0.0],
    [0.0, 0.0, 1.0, 0.0],
    [0.0, 0.0, 0.0, 1.0]
],
  "dcmmeta_shape": [104, 104, 60, 504],
  "dcmmeta_slice_dim": 2,
  "dcmmeta_version": 0.6,
  "global": {
    "const": {
      "AcquisitionMatrix": [104, 0, 0, 104],
      "AngioFlag": "N",
      "BitsAllocated": 16,
      "BitsStored": 16,
      "BodyPartExamined": "BRAIN",
      "Columns": 832,
      "EchoNumbers": 1,
      "EchoTime": 37.0,
      "EchoTrainLength": 104,
      "FlipAngle": 52.0,
      "HighBit": 15,
      "ImageOrientationPatient": [0.99971236405373, 0.02067634273718, 0.012152284111, -0.0118653392898, 0.86674655014652, -0.4986076930139],
      "ImagePositionPatient": [-820.41739992139, -766.54500482296, 364.11544076508],
      "ImageType": [
        "ORIGINAL",
        "PRIMARY",
        "M",
        "MB",
        "ND",
        "MOSAIC"
],
      "ImagedNucleus": "1H",
      "ImagingFrequency": 123.259019,
      "InPlanePhaseEncodingDirection": "COL",
      "MRAcquisitionType": "2D",
      "MagneticFieldStrength": 3.0,
      "Manufacturer": "SIEMENS",
      "ManufacturerModelName": "Prisma_fit",
      "Modality": "MR",
      "NumberOfAverages": 1.0,
      "NumberOfPhaseEncodingSteps": 104,
      "PercentPhaseFieldOfView": 100.0,
      "PercentSampling": 100.0,
      "PerformedProcedureStepStartTime": "090419.904000",
      "PhotometricInterpretation": "MONOCHROME2",
      "PixelBandwidth": 2290.0,
      "PixelRepresentation": 0,
      "PixelSpacing": [2.0, 2.0],
      "ProtocolName": "func_task-friends-s04e23b",
      "RepetitionTime": 1490.0,
      "Rows": 832,
      "SAR": 0.03992818025906,
      "SamplesPerPixel": 1,
      "ScanOptions": "FS",
      "ScanningSequence": "EP",
      "SequenceName": "epfid2d1_104",
      "SequenceVariant": [
        "SK",
        "SS"
],
      "SeriesDescription": "func_task-friends-s04e23b",
      "SeriesNumber": 34,
      "SeriesTime": "111011.158000",
      "SliceLocation": -49.291003693265,
      "SliceThickness": 2.0,
      "SmallestImagePixelValue": 0,
      "SoftwareVersions": "syngo MR E11",
      "SpacingBetweenSlices": 2.0000000430827,
      "SpecificCharacterSet": "ISO_IR 100",
      "StudyID": "1",
      "StudyTime": "090419.734000",
      "TransmitCoilName": "Body",
      "VariableFlipAngleFlag": "N",
      "WindowCenterWidthExplanation": "Algo1",
      "dBdt": 0.0},
    "slices": {}
  },
  "time": {
    "samples": {
      "AcquisitionNumber": [1, 2, 3, 4, 5, 6, 7, 8, 9, 10, 11, 12, 13, 14, 15, 16, 17, 18, 19, 20, 21, 22, 23, 24, 25, 26, 27, 28, 29, 30, 31, 32, 33, 34, 35, 36, 37, 38, 39, 40, 41, 42, 43, 44, 45, 46, 47, 48, 49, 50, 51, 52, 53, 54, 55, 56, 57, 58, 59, 60, 61, 62, 63, 64, 65, 66, 67, 68, 69, 70, 71, 72, 73, 74, 75, 76, 77, 78, 79, 80, 81, 82, 83, 84, 85, 86, 87, 88, 89, 90, 91, 92, 93, 94, 95, 96, 97, 98, 99, 100, 101, 102, 103, 104, 105, 106, 107, 108, 109, 110, 111, 112, 113, 114, 115, 116, 117, 118, 119, 120, 121, 122, 123, 124, 125, 126, 127, 128, 129, 130, 131, 132, 133, 134, 135, 136, 137, 138, 139, 140, 141, 142, 143, 144, 145, 146, 147, 148, 149, 150, 151, 152, 153, 154, 155, 156, 157, 158, 159, 160, 161, 162, 163, 164, 165, 166, 167, 168, 169, 170, 171, 172, 173, 174, 175, 176, 177, 178, 179, 180, 181, 182, 183, 184, 185, 186, 187, 188, 189, 190, 191, 192, 193, 194, 195, 196, 197, 198, 199, 200, 201, 202, 203, 204, 205, 206, 207, 208, 209, 210, 211, 212, 213, 214, 215, 216, 217, 218, 219, 220, 221, 222, 223, 224, 225, 226, 227, 228, 229, 230, 231, 232, 233, 234, 235, 236, 237, 238, 239, 240, 241, 242, 243, 244, 245, 246, 247, 248, 249, 250, 251, 252, 253, 254, 255, 256, 257, 258, 259, 260, 261, 262, 263, 264, 265, 266, 267, 268, 269, 270, 271, 272, 273, 274, 275, 276, 277, 278, 279, 280, 281, 282, 283, 284, 285, 286, 287, 288, 289, 290, 291, 292, 293, 294, 295, 296, 297, 298, 299, 300, 301, 302, 303, 304, 305, 306, 307, 308, 309, 310, 311, 312, 313, 314, 315, 316, 317, 318, 319, 320, 321, 322, 323, 324, 325, 326, 327, 328, 329, 330, 331, 332, 333, 334, 335, 336, 337, 338, 339, 340, 341, 342, 343, 344, 345, 346, 347, 348, 349, 350, 351, 352, 353, 354, 355, 356, 357, 358, 359, 360, 361, 362, 363, 364, 365, 366, 367, 368, 369, 370, 371, 372, 373, 374, 375, 376, 377, 378, 379, 380, 381, 382, 383, 384, 385, 386, 387, 388, 389, 390, 391, 392, 393, 394, 395, 396, 397, 398, 399, 400, 401, 402, 403, 404, 405, 406, 407, 408, 409, 410, 411, 412, 413, 414, 415, 416, 417, 418, 419, 420, 421, 422, 423, 424, 425, 426, 427, 428, 429, 430, 431, 432, 433, 434, 435, 436, 437, 438, 439, 440, 441, 442, 443, 444, 445, 446, 447, 448, 449, 450, 451, 452, 453, 454, 455, 456, 457, 458, 459, 460, 461, 462, 463, 464, 465, 466, 467, 468, 469, 470, 471, 472, 473, 474, 475, 476, 477, 478, 479, 480, 481, 482, 483, 484, 485, 486, 487, 488, 489, 490, 491, 492, 493, 494, 495, 496, 497, 498, 499, 500, 501, 502, 503, 504],
      "AcquisitionTime": ["110845.650000", "110847.140000", "110848.630000", "110850.120000", "110851.610000", "110853.100000", "110854.590000", "110856.080000", "110857.570000", "110859.060000", "110900.550000", "110902.040000", "110903.530000", "110905.020000", "110906.510000", "110908.000000", "110909.490000", "110910.980000", "110912.470000", "110913.960000", "110915.450000", "110916.940000", "110918.430000", "110919.920000", "110921.410000", "110922.900000", "110924.390000", "110925.880000", "110927.370000", "110928.860000", "110930.350000", "110931.840000", "110933.330000", "110934.820000", "110936.310000", "110937.800000", "110939.290000", "110940.780000", "110942.270000", "110943.760000", "110945.250000", "110946.740000", "110948.230000", "110949.720000", "110951.210000", "110952.700000", "110954.190000", "110955.680000", "110957.170000", "110958.660000", "111000.150000", "111001.640000", "111003.130000", "111004.620000", "111006.110000", "111007.600000", "111009.090000", "111010.580000", "111012.070000", "111013.560000", "111015.050000", "111016.540000", "111018.030000", "111019.520000", "111021.010000", "111022.500000", "111023.990000", "111025.480000", "111026.970000", "111028.460000", "111029.950000", "111031.440000", "111032.930000", "111034.420000", "111035.910000", "111037.400000", "111038.890000", "111040.380000", "111041.870000", "111043.360000", "111044.850000", "111046.340000", "111047.830000", "111049.320000", "111050.810000", "111052.300000", "111053.790000", "111055.280000", "111056.770000", "111058.260000", "111059.750000", "111101.240000", "111102.730000", "111104.220000", "111105.710000", "111107.200000", "111108.690000", "111110.180000", "111111.670000", "111113.160000", "111114.650000", "111116.140000", "111117.630000", "111119.120000", "111120.610000", "111122.100000", "111123.590000", "111125.080000", "111126.570000", "111128.060000", "111129.550000", "111131.040000", "111132.530000", "111134.020000", "111135.510000", "111137.000000", "111138.490000", "111139.980000", "111141.470000", "111142.960000", "111144.450000", "111145.940000", "111147.430000", "111148.920000", "111150.410000", "111151.900000", "111153.390000", "111154.880000", "111156.370000", "111157.860000", "111159.350000", "111200.840000", "111202.330000", "111203.820000", "111205.310000", "111206.800000", "111208.290000", "111209.780000", "111211.270000", "111212.760000", "111214.250000", "111215.740000", "111217.230000", "111218.720000", "111220.210000", "111221.700000", "111223.190000", "111224.680000", "111226.170000", "111227.660000", "111229.150000", "111230.640000", "111232.130000", "111233.620000", "111235.110000", "111236.600000", "111238.090000", "111239.580000", "111241.070000", "111242.560000", "111244.050000", "111245.540000", "111247.030000", "111248.520000", "111250.010000", "111251.500000", "111252.990000", "111254.480000", "111255.970000", "111257.460000", "111258.950000", "111300.440000", "111301.930000", "111303.420000", "111304.910000", "111306.400000", "111307.890000", "111309.380000", "111310.870000", "111312.360000", "111313.850000", "111315.340000", "111316.830000", "111318.320000", "111319.810000", "111321.300000", "111322.790000", "111324.280000", "111325.770000", "111327.260000", "111328.750000", "111330.240000", "111331.730000", "111333.220000", "111334.710000", "111336.200000", "111337.690000", "111339.180000", "111340.670000", "111342.160000", "111343.650000", "111345.140000", "111346.630000", "111348.120000", "111349.610000", "111351.100000", "111352.590000", "111354.080000", "111355.570000", "111357.060000", "111358.550000", "111400.040000", "111401.530000", "111403.020000", "111404.510000", "111406.000000", "111407.490000", "111408.980000", "111410.470000", "111411.960000", "111413.450000", "111414.940000", "111416.430000", "111417.920000", "111419.410000", "111420.900000", "111422.390000", "111423.880000", "111425.370000", "111426.860000", "111428.350000", "111429.840000", "111431.330000", "111432.820000", "111434.310000", "111435.800000", "111437.290000", "111438.780000", "111440.270000", "111441.760000", "111443.250000", "111444.740000", "111446.230000", "111447.720000", "111449.210000", "111450.700000", "111452.190000", "111453.680000", "111455.170000", "111456.660000", "111458.150000", "111459.640000", "111501.130000", "111502.620000", "111504.110000", "111505.600000", "111507.090000", "111508.580000", "111510.070000", "111511.560000", "111513.050000", "111514.540000", "111516.030000", "111517.520000", "111519.010000", "111520.500000", "111521.990000", "111523.480000", "111524.970000", "111526.460000", "111527.950000", "111529.440000", "111530.930000", "111532.420000", "111533.910000", "111535.400000", "111536.890000", "111538.380000", "111539.870000", "111541.360000", "111542.850000", "111544.340000", "111545.830000", "111547.320000", "111548.810000", "111550.300000", "111551.790000", "111553.280000", "111554.770000", "111556.260000", "111557.750000", "111559.240000", "111600.730000", "111602.220000", "111603.710000", "111605.200000", "111606.690000", "111608.180000", "111609.670000", "111611.160000", "111612.650000", "111614.140000", "111615.630000", "111617.120000", "111618.610000", "111620.100000", "111621.590000", "111623.080000", "111624.570000", "111626.060000", "111627.550000", "111629.040000", "111630.530000", "111632.020000", "111633.510000", "111635.000000", "111636.490000", "111637.980000", "111639.470000", "111640.960000", "111642.450000", "111643.940000", "111645.430000", "111646.920000", "111648.410000", "111649.900000", "111651.390000", "111652.880000", "111654.370000", "111655.860000", "111657.350000", "111658.840000", "111700.330000", "111701.820000", "111703.310000", "111704.800000", "111706.290000", "111707.780000", "111709.270000", "111710.760000", "111712.250000", "111713.740000", "111715.230000", "111716.720000", "111718.210000", "111719.700000", "111721.190000", "111722.680000", "111724.170000", "111725.660000", "111727.150000", "111728.640000", "111730.130000", "111731.620000", "111733.110000", "111734.600000", "111736.090000", "111737.580000", "111739.070000", "111740.560000", "111742.050000", "111743.540000", "111745.030000", "111746.520000", "111748.010000", "111749.500000", "111750.990000", "111752.480000", "111753.970000", "111755.460000", "111756.950000", "111758.440000", "111759.930000", "111801.420000", "111802.910000", "111804.400000", "111805.890000", "111807.380000", "111808.870000", "111810.360000", "111811.850000", "111813.340000", "111814.830000", "111816.320000", "111817.810000", "111819.300000", "111820.790000", "111822.280000", "111823.770000", "111825.260000", "111826.750000", "111828.240000", "111829.730000", "111831.220000", "111832.710000", "111834.200000", "111835.690000", "111837.180000", "111838.670000", "111840.160000", "111841.650000", "111843.140000", "111844.630000", "111846.120000", "111847.610000", "111849.100000", "111850.590000", "111852.080000", "111853.570000", "111855.060000", "111856.550000", "111858.040000", "111859.530000", "111901.020000", "111902.510000", "111904.000000", "111905.490000", "111906.980000", "111908.470000", "111909.960000", "111911.450000", "111912.940000", "111914.430000", "111915.920000", "111917.410000", "111918.900000", "111920.390000", "111921.880000", "111923.370000", "111924.860000", "111926.350000", "111927.840000", "111929.330000", "111930.820000", "111932.310000", "111933.800000", "111935.290000", "111936.780000", "111938.270000", "111939.760000", "111941.250000", "111942.740000", "111944.230000", "111945.720000", "111947.210000", "111948.700000", "111950.190000", "111951.680000", "111953.170000", "111954.660000", "111956.150000", "111957.640000", "111959.130000", "112000.620000", "112002.110000", "112003.600000", "112005.090000", "112006.580000", "112008.070000", "112009.560000", "112011.050000", "112012.540000", "112014.030000", "112015.520000", "112017.010000", "112018.500000", "112019.990000", "112021.480000", "112022.970000", "112024.460000", "112025.950000", "112027.440000", "112028.930000", "112030.420000", "112031.910000", "112033.400000", "112034.890000", "112036.380000", "112037.870000", "112039.360000", "112040.850000", "112042.340000", "112043.830000", "112045.320000", "112046.810000", "112048.300000", "112049.790000", "112051.280000", "112052.770000", "112054.260000", "112055.750000", "112057.240000", "112058.730000", "112100.220000", "112101.710000", "112103.200000", "112104.690000", "112106.180000", "112107.670000", "112109.160000", "112110.650000", "112112.140000", "112113.630000", "112115.120000"],
      "ContentTime": ["111011.161000", "111011.164000", "111011.167000", "111011.172000", "111011.175000", "111011.177000", "111011.180000", "111011.183000", "111011.186000", "111011.189000", "111011.192000", "111011.195000", "111011.204000", "111011.207000", "111011.210000", "111011.212000", "111011.215000", "111011.218000", "111011.221000", "111011.224000", "111011.227000", "111011.230000", "111011.233000", "111011.236000", "111011.239000", "111011.242000", "111011.245000", "111011.248000", "111011.251000", "111011.253000", "111011.256000", "111011.259000", "111031.132000", "111031.135000", "111031.138000", "111031.141000", "111031.144000", "111031.147000", "111031.150000", "111031.153000", "111031.156000", "111031.159000", "111031.161000", "111031.164000", "111031.167000", "111031.170000", "111031.173000", "111031.176000", "111031.179000", "111031.182000", "111031.185000", "111031.188000", "111051.132000", "111051.135000", "111051.138000", "111051.141000", "111051.157000", "111051.160000", "111051.163000", "111051.166000", "111051.169000", "111051.172000", "111051.174000", "111051.177000", "111051.180000", "111051.183000", "111051.186000", "111051.189000", "111051.192000", "111051.195000", "111051.198000", "111051.201000", "111111.132000", "111111.135000", "111111.138000", "111111.141000", "111111.144000", "111111.147000", "111111.150000", "111111.153000", "111111.156000", "111111.159000", "111111.162000", "111111.165000", "111111.167000", "111111.170000", "111111.173000", "111111.185000", "111111.188000", "111111.191000", "111111.194000", "111111.197000", "111151.132000", "111151.135000", "111151.138000", "111151.141000", "111151.144000", "111151.147000", "111151.150000", "111151.152000", "111151.155000", "111151.158000", "111151.161000", "111151.164000", "111151.167000", "111151.170000", "111151.173000", "111151.176000", "111151.179000", "111151.182000", "111151.185000", "111151.188000", "111151.191000", "111151.194000", "111151.197000", "111151.200000", "111151.203000", "111151.206000", "111151.209000", "111151.211000", "111151.214000", "111151.217000", "111151.220000", "111211.132000", "111211.135000", "111211.138000", "111211.141000", "111211.144000", "111211.147000", "111211.162000", "111211.165000", "111211.168000", "111211.170000", "111211.173000", "111211.176000", "111211.179000", "111211.182000", "111251.132000", "111251.135000", "111251.138000", "111251.141000", "111251.144000", "111251.147000", "111251.150000", "111251.153000", "111251.156000", "111251.159000", "111251.162000", "111251.164000", "111251.167000", "111251.170000", "111251.173000", "111251.176000", "111251.179000", "111251.182000", "111251.185000", "111251.188000", "111251.191000", "111251.194000", "111251.197000", "111251.200000", "111251.203000", "111251.206000", "111251.209000", "111331.132000", "111331.135000", "111331.139000", "111331.142000", "111331.145000", "111331.148000", "111331.151000", "111331.154000", "111331.157000", "111331.160000", "111331.163000", "111331.166000", "111331.169000", "111331.171000", "111331.174000", "111331.177000", "111331.180000", "111331.183000", "111331.186000", "111331.189000", "111331.192000", "111331.195000", "111331.198000", "111331.201000", "111331.204000", "111331.207000", "111411.132000", "111411.135000", "111411.138000", "111411.141000", "111411.144000", "111411.147000", "111411.150000", "111411.153000", "111411.156000", "111411.159000", "111411.162000", "111411.165000", "111411.168000", "111411.171000", "111411.173000", "111411.176000", "111411.179000", "111411.182000", "111411.185000", "111411.188000", "111411.191000", "111411.194000", "111411.197000", "111411.200000", "111411.203000", "111411.206000", "111411.209000", "111451.133000", "111451.136000", "111451.139000", "111451.142000", "111451.145000", "111451.148000", "111451.151000", "111451.154000", "111451.157000", "111451.160000", "111451.163000", "111451.166000", "111451.169000", "111451.172000", "111451.175000", "111451.178000", "111451.180000", "111451.184000", "111451.187000", "111451.189000", "111451.192000", "111451.195000", "111451.198000", "111451.201000", "111451.204000", "111451.207000", "111451.214000", "111531.132000", "111531.135000", "111531.138000", "111531.141000", "111531.144000", "111531.147000", "111531.150000", "111531.153000", "111531.156000", "111531.159000", "111531.162000", "111531.165000", "111531.167000", "111531.170000", "111531.173000", "111531.176000", "111531.179000", "111531.182000", "111531.185000", "111531.188000", "111531.191000", "111531.194000", "111531.197000", "111531.200000", "111531.203000", "111531.206000", "111531.209000", "111611.132000", "111611.135000", "111611.138000", "111611.141000", "111611.144000", "111611.147000", "111611.150000", "111611.153000", "111611.156000", "111611.159000", "111611.162000", "111611.164000", "111611.167000", "111611.170000", "111611.173000", "111611.176000", "111611.179000", "111611.182000", "111611.185000", "111611.188000", "111611.191000", "111611.194000", "111611.197000", "111611.200000", "111611.203000", "111611.206000", "111611.209000", "111651.132000", "111651.135000", "111651.148000", "111651.151000", "111651.154000", "111651.157000", "111651.160000", "111651.163000", "111651.166000", "111651.168000", "111651.171000", "111651.174000", "111651.177000", "111651.180000", "111651.183000", "111651.186000", "111651.189000", "111651.192000", "111651.195000", "111651.198000", "111651.201000", "111651.204000", "111651.207000", "111651.210000", "111651.213000", "111651.216000", "111651.219000", "111731.132000", "111731.135000", "111731.138000", "111731.141000", "111731.144000", "111731.147000", "111731.150000", "111731.153000", "111731.156000", "111731.160000", "111731.163000", "111731.166000", "111731.169000", "111731.172000", "111731.175000", "111731.178000", "111731.181000", "111731.184000", "111731.187000", "111731.190000", "111731.193000", "111731.196000", "111731.199000", "111731.202000", "111731.205000", "111731.207000", "111811.132000", "111811.135000", "111811.138000", "111811.141000", "111811.144000", "111811.147000", "111811.150000", "111811.153000", "111811.156000", "111811.159000", "111811.162000", "111811.165000", "111811.168000", "111811.171000", "111811.174000", "111811.177000", "111811.180000", "111811.183000", "111811.186000", "111811.189000", "111811.191000", "111811.194000", "111811.197000", "111811.200000", "111811.203000", "111811.206000", "111811.209000", "111851.132000", "111851.135000", "111851.138000", "111851.141000", "111851.144000", "111851.147000", "111851.150000", "111851.153000", "111851.156000", "111851.159000", "111851.162000", "111851.165000", "111851.167000", "111851.170000", "111851.180000", "111851.183000", "111851.186000", "111851.189000", "111851.192000", "111851.195000", "111851.197000", "111851.200000", "111851.203000", "111851.206000", "111851.209000", "111851.212000", "111851.215000", "111931.133000", "111931.136000", "111931.139000", "111931.142000", "111931.145000", "111931.148000", "111931.151000", "111931.154000", "111931.157000", "111931.160000", "111931.163000", "111931.166000", "111931.169000", "111931.172000", "111931.175000", "111931.178000", "111931.181000", "111931.184000", "111931.187000", "111931.190000", "111931.193000", "111931.196000", "111931.199000", "111931.202000", "111931.204000", "111931.207000", "111931.210000", "112011.132000", "112011.135000", "112011.138000", "112011.141000", "112011.144000", "112011.147000", "112011.150000", "112011.153000", "112011.157000", "112011.160000", "112011.163000", "112011.166000", "112011.169000", "112011.172000", "112011.175000", "112011.178000", "112011.181000", "112011.184000", "112011.187000", "112011.190000", "112011.193000", "112011.196000", "112011.199000", "112011.201000", "112011.204000", "112011.207000", "112011.211000", "112051.132000", "112051.135000", "112051.138000", "112051.141000", "112051.144000", "112051.147000", "112051.150000", "112051.153000", "112051.156000", "112051.159000", "112051.162000", "112051.165000", "112051.168000", "112051.170000", "112051.173000", "112051.176000", "112051.179000", "112051.182000", "112051.185000", "112051.188000", "112051.191000", "112051.194000", "112051.197000", "112051.200000", "112051.217000", "112051.220000", "112051.223000", "112117.693000", "112117.696000", "112117.700000", "112117.703000", "112117.705000", "112117.708000", "112117.711000", "112117.714000", "112117.717000", "112117.720000", "112117.723000", "112117.727000", "112117.730000", "112117.733000", "112117.736000", "112117.739000", "112117.742000", "112117.745000"],
