{
  "AcquisitionMatrixPE": 104,
  "AcquisitionNumber": 1,
  "AcquisitionTime": "10:34:30.447500",
  "BandwidthPerPixelPhaseEncode": 17.17,
  "BaseResolution": 104,
  "BodyPartExamined": "BRAIN",
  "CoilString": "HC1-7;NC1_2",
  "ConsistencyInfo": "N4_VE11C_LATEST_20160120",
  "ConversionSoftware": "dcm2niix",
  "ConversionSoftwareVersion": "v1.0.20190902",
  "DerivedVendorReportedEchoSpacing": 0.000560011,
  "DeviceSerialNumber": "167006",
  "DwellTime": 2.1e-06,
  "EchoTime": 0.037,
  "EchoTrainLength": 104,
  "EffectiveEchoSpacing": 0.000560011,
  "FlipAngle": 52,
  "ImageComments": "Unaliased_MB4_PE3_LB",
  "ImageOrientationPatientDICOM": [0.999834, 0.0166316, 0.00742825, -0.0111687, 0.881913, -0.47128],
  "ImageType": [
    "ORIGINAL",
    "PRIMARY",
    "M",
    "MB",
    "ND",
    "MOSAIC"
],
  "ImagingFrequency": 123.259,
  "InPlanePhaseEncodingDirectionDICOM": "COL",
  "InstitutionAddress": "Chemin_Queen-Mary_4565_Montreal_District_CA_H3W_1W5",
  "InstitutionName": "IUGM",
  "InstitutionalDepartmentName": "Department",
  "MRAcquisitionType": "2D",
  "MagneticFieldStrength": 3,
  "Manufacturer": "Siemens",
  "ManufacturersModelName": "Prisma_fit",
  "Modality": "MR",
  "MultibandAccelerationFactor": 4,
  "PartialFourier": 1,
  "PatientPosition": "HFS",
  "PercentPhaseFOV": 100,
  "PhaseEncodingDirection": "j",
  "PhaseEncodingSteps": 104,
  "PhaseResolution": 1,
  "PixelBandwidth": 2290,
  "ProcedureStepDescription": "video_friends",
  "ProtocolName": "func_task-friends-s04e22b",
  "PulseSequenceDetails": "%CustomerSeq%_cmrr_mbep2d_bold",
  "ReceiveCoilActiveElements": "HC1-7;NC1,2",
  "ReceiveCoilName": "HeadNeck_64",
  "ReconMatrixPE": 104,
  "RepetitionTime": 1.49,
  "SAR": 0.0373217,
  "ScanOptions": "FS",
  "ScanningSequence": "EP",
  "SequenceName": "epfid2d1_104",
  "SequenceVariant": "SK_SS",
  "SeriesDescription": "func_task-friends-s04e22b",
  "SeriesNumber": 23,
  "ShimSetting": [616, -7213, -8861, 419, -29, -182, -14, -26],
  "SliceThickness": 2,
  "SliceTiming": [0, 0.785, 0.1, 0.8825, 0.1975, 0.98, 0.295, 1.08, 0.3925, 1.1775, 0.49, 1.275, 0.59, 1.3725, 0.6875, 0, 0.785, 0.1, 0.8825, 0.1975, 0.98, 0.295, 1.08, 0.3925, 1.1775, 0.49, 1.275, 0.59, 1.3725, 0.6875, 0, 0.785, 0.1, 0.8825, 0.1975, 0.98, 0.295, 1.08, 0.3925, 1.1775, 0.49, 1.275, 0.59, 1.3725, 0.6875, 0, 0.785, 0.1, 0.8825, 0.1975, 0.98, 0.295, 1.08, 0.3925, 1.1775, 0.49, 1.275, 0.59, 1.3725, 0.6875],
  "SoftwareVersions": "syngo_MR_E11",
  "SpacingBetweenSlices": 2,
  "StationName": "MRC35049",
  "TaskName": "s04e22b",
  "TotalReadoutTime": 0.0576811,
  "TxRefAmp": 253.805,
  "WipMemBlock": "db4bd71d-d91a-4187-9697-8d35b7f7890d||Sequence: R016 ve11c/master r/e634e98; Dec 19 2017 11:00:25 by eja",
  "dcmmeta_affine": [
    [-1.9996682405471802, -0.022337354719638824, 0.028778403997421265, 103.21778869628906],
    [-0.03326317295432091, 1.7638256549835205, -0.9422380924224854, -60.85088348388672],
    [0.0148564912378788, 0.9425603747367859, 1.7639044523239136, -93.5000228881836],
    [0.0, 0.0, 0.0, 1.0]
],
  "dcmmeta_reorient_transform": [
    [0.0, -1.0, 0.0, 103.0],
    [1.0, 0.0, 0.0, 0.0],
    [0.0, 0.0, 1.0, 0.0],
    [0.0, 0.0, 0.0, 1.0]
],
  "dcmmeta_shape": [104, 104, 60, 459],
  "dcmmeta_slice_dim": 2,
  "dcmmeta_version": 0.6,
  "global": {
    "const": {
      "AcquisitionMatrix": [104, 0, 0, 104],
      "AngioFlag": "N",
      "BitsAllocated": 16,
      "BitsStored": 16,
      "BodyPartExamined": "BRAIN",
      "Columns": 832,
      "EchoNumbers": 1,
      "EchoTime": 37.0,
      "EchoTrainLength": 104,
      "FlipAngle": 52.0,
      "HighBit": 15,
      "ImageOrientationPatient": [0.99983409198707, 0.01663158639715, 0.00742824570873, -0.0111686772709, 0.88191282826727, -0.4712801968953],
      "ImagePositionPatient": [-820.66546561713, -774.96349142243, 341.26792107397],
      "ImageType": [
        "ORIGINAL",
        "PRIMARY",
        "M",
        "MB",
        "ND",
        "MOSAIC"
],
      "ImagedNucleus": "1H",
      "ImagingFrequency": 123.259024,
      "InPlanePhaseEncodingDirection": "COL",
      "MRAcquisitionType": "2D",
      "MagneticFieldStrength": 3.0,
      "Manufacturer": "SIEMENS",
      "ManufacturerModelName": "Prisma_fit",
      "Modality": "MR",
      "NumberOfAverages": 1.0,
      "NumberOfPhaseEncodingSteps": 104,
      "PercentPhaseFieldOfView": 100.0,
      "PercentSampling": 100.0,
      "PerformedProcedureStepStartTime": "090419.904000",
      "PhotometricInterpretation": "MONOCHROME2",
      "PixelBandwidth": 2290.0,
      "PixelRepresentation": 0,
      "PixelSpacing": [2.0, 2.0],
      "ProtocolName": "func_task-friends-s04e22b",
      "RepetitionTime": 1490.0,
      "Rows": 832,
      "SAR": 0.03732172570944,
      "SamplesPerPixel": 1,
      "ScanOptions": "FS",
      "ScanningSequence": "EP",
      "SequenceName": "epfid2d1_104",
      "SequenceVariant": [
        "SK",
        "SS"
],
      "SeriesDescription": "func_task-friends-s04e22b",
      "SeriesNumber": 23,
      "SeriesTime": "103543.271000",
      "SliceLocation": -52.309321837122,
      "SliceThickness": 2.0,
      "SmallestImagePixelValue": 0,
      "SoftwareVersions": "syngo MR E11",
      "SpacingBetweenSlices": 1.9999999767293,
      "SpecificCharacterSet": "ISO_IR 100",
      "StudyID": "1",
      "StudyTime": "090419.734000",
      "TransmitCoilName": "Body",
      "VariableFlipAngleFlag": "N",
      "WindowCenterWidthExplanation": "Algo1",
      "dBdt": 0.0},
    "slices": {}
  },
  "time": {
    "samples": {
      "AcquisitionNumber": [1, 2, 3, 4, 5, 6, 7, 8, 9, 10, 11, 12, 13, 14, 15, 16, 17, 18, 19, 20, 21, 22, 23, 24, 25, 26, 27, 28, 29, 30, 31, 32, 33, 34, 35, 36, 37, 38, 39, 40, 41, 42, 43, 44, 45, 46, 47, 48, 49, 50, 51, 52, 53, 54, 55, 56, 57, 58, 59, 60, 61, 62, 63, 64, 65, 66, 67, 68, 69, 70, 71, 72, 73, 74, 75, 76, 77, 78, 79, 80, 81, 82, 83, 84, 85, 86, 87, 88, 89, 90, 91, 92, 93, 94, 95, 96, 97, 98, 99, 100, 101, 102, 103, 104, 105, 106, 107, 108, 109, 110, 111, 112, 113, 114, 115, 116, 117, 118, 119, 120, 121, 122, 123, 124, 125, 126, 127, 128, 129, 130, 131, 132, 133, 134, 135, 136, 137, 138, 139, 140, 141, 142, 143, 144, 145, 146, 147, 148, 149, 150, 151, 152, 153, 154, 155, 156, 157, 158, 159, 160, 161, 162, 163, 164, 165, 166, 167, 168, 169, 170, 171, 172, 173, 174, 175, 176, 177, 178, 179, 180, 181, 182, 183, 184, 185, 186, 187, 188, 189, 190, 191, 192, 193, 194, 195, 196, 197, 198, 199, 200, 201, 202, 203, 204, 205, 206, 207, 208, 209, 210, 211, 212, 213, 214, 215, 216, 217, 218, 219, 220, 221, 222, 223, 224, 225, 226, 227, 228, 229, 230, 231, 232, 233, 234, 235, 236, 237, 238, 239, 240, 241, 242, 243, 244, 245, 246, 247, 248, 249, 250, 251, 252, 253, 254, 255, 256, 257, 258, 259, 260, 261, 262, 263, 264, 265, 266, 267, 268, 269, 270, 271, 272, 273, 274, 275, 276, 277, 278, 279, 280, 281, 282, 283, 284, 285, 286, 287, 288, 289, 290, 291, 292, 293, 294, 295, 296, 297, 298, 299, 300, 301, 302, 303, 304, 305, 306, 307, 308, 309, 310, 311, 312, 313, 314, 315, 316, 317, 318, 319, 320, 321, 322, 323, 324, 325, 326, 327, 328, 329, 330, 331, 332, 333, 334, 335, 336, 337, 338, 339, 340, 341, 342, 343, 344, 345, 346, 347, 348, 349, 350, 351, 352, 353, 354, 355, 356, 357, 358, 359, 360, 361, 362, 363, 364, 365, 366, 367, 368, 369, 370, 371, 372, 373, 374, 375, 376, 377, 378, 379, 380, 381, 382, 383, 384, 385, 386, 387, 388, 389, 390, 391, 392, 393, 394, 395, 396, 397, 398, 399, 400, 401, 402, 403, 404, 405, 406, 407, 408, 409, 410, 411, 412, 413, 414, 415, 416, 417, 418, 419, 420, 421, 422, 423, 424, 425, 426, 427, 428, 429, 430, 431, 432, 433, 434, 435, 436, 437, 438, 439, 440, 441, 442, 443, 444, 445, 446, 447, 448, 449, 450, 451, 452, 453, 454, 455, 456, 457, 458, 459],
      "AcquisitionTime": ["103430.447500", "103431.937500", "103433.427500", "103434.917500", "103436.407500", "103437.897500", "103439.387500", "103440.877500", "103442.367500", "103443.857500", "103445.347500", "103446.837500", "103448.327500", "103449.817500", "103451.307500", "103452.797500", "103454.287500", "103455.777500", "103457.267500", "103458.757500", "103500.247500", "103501.737500", "103503.227500", "103504.717500", "103506.207500", "103507.697500", "103509.187500", "103510.677500", "103512.167500", "103513.657500", "103515.147500", "103516.637500", "103518.127500", "103519.617500", "103521.107500", "103522.597500", "103524.087500", "103525.577500", "103527.067500", "103528.557500", "103530.047500", "103531.537500", "103533.027500", "103534.517500", "103536.007500", "103537.497500", "103538.987500", "103540.477500", "103541.967500", "103543.457500", "103544.947500", "103546.437500", "103547.927500", "103549.417500", "103550.907500", "103552.397500", "103553.887500", "103555.377500", "103556.867500", "103558.357500", "103559.847500", "103601.337500", "103602.827500", "103604.317500", "103605.807500", "103607.297500", "103608.787500", "103610.277500", "103611.767500", "103613.257500", "103614.747500", "103616.237500", "103617.727500", "103619.217500", "103620.707500", "103622.197500", "103623.687500", "103625.177500", "103626.667500", "103628.157500", "103629.647500", "103631.137500", "103632.627500", "103634.117500", "103635.607500", "103637.097500", "103638.587500", "103640.077500", "103641.567500", "103643.057500", "103644.547500", "103646.037500", "103647.527500", "103649.017500", "103650.507500", "103651.997500", "103653.487500", "103654.977500", "103656.467500", "103657.957500", "103659.447500", "103700.937500", "103702.427500", "103703.917500", "103705.407500", "103706.897500", "103708.387500", "103709.877500", "103711.367500", "103712.857500", "103714.347500", "103715.837500", "103717.327500", "103718.817500", "103720.307500", "103721.797500", "103723.287500", "103724.777500", "103726.267500", "103727.757500", "103729.247500", "103730.737500", "103732.227500", "103733.717500", "103735.207500", "103736.697500", "103738.187500", "103739.677500", "103741.167500", "103742.657500", "103744.147500", "103745.637500", "103747.127500", "103748.617500", "103750.107500", "103751.597500", "103753.087500", "103754.577500", "103756.067500", "103757.557500", "103759.047500", "103800.537500", "103802.027500", "103803.517500", "103805.007500", "103806.497500", "103807.987500", "103809.477500", "103810.967500", "103812.457500", "103813.947500", "103815.437500", "103816.927500", "103818.417500", "103819.907500", "103821.397500", "103822.887500", "103824.377500", "103825.867500", "103827.357500", "103828.847500", "103830.337500", "103831.827500", "103833.317500", "103834.807500", "103836.297500", "103837.787500", "103839.277500", "103840.767500", "103842.257500", "103843.747500", "103845.237500", "103846.727500", "103848.217500", "103849.707500", "103851.197500", "103852.687500", "103854.177500", "103855.667500", "103857.157500", "103858.647500", "103900.137500", "103901.627500", "103903.117500", "103904.607500", "103906.097500", "103907.587500", "103909.077500", "103910.567500", "103912.057500", "103913.547500", "103915.037500", "103916.527500", "103918.017500", "103919.507500", "103920.997500", "103922.487500", "103923.977500", "103925.467500", "103926.957500", "103928.447500", "103929.937500", "103931.427500", "103932.917500", "103934.407500", "103935.897500", "103937.387500", "103938.877500", "103940.367500", "103941.857500", "103943.347500", "103944.837500", "103946.327500", "103947.817500", "103949.307500", "103950.797500", "103952.287500", "103953.777500", "103955.267500", "103956.757500", "103958.247500", "103959.737500", "104001.227500", "104002.717500", "104004.207500", "104005.697500", "104007.187500", "104008.677500", "104010.167500", "104011.657500", "104013.147500", "104014.637500", "104016.127500", "104017.617500", "104019.107500", "104020.597500", "104022.087500", "104023.577500", "104025.067500", "104026.557500", "104028.047500", "104029.537500", "104031.027500", "104032.517500", "104034.007500", "104035.497500", "104036.987500", "104038.477500", "104039.967500", "104041.457500", "104042.947500", "104044.437500", "104045.927500", "104047.417500", "104048.907500", "104050.397500", "104051.887500", "104053.377500", "104054.867500", "104056.357500", "104057.847500", "104059.337500", "104100.827500", "104102.317500", "104103.807500", "104105.297500", "104106.787500", "104108.277500", "104109.767500", "104111.257500", "104112.747500", "104114.237500", "104115.727500", "104117.217500", "104118.707500", "104120.197500", "104121.687500", "104123.177500", "104124.667500", "104126.157500", "104127.647500", "104129.137500", "104130.627500", "104132.117500", "104133.607500", "104135.097500", "104136.587500", "104138.077500", "104139.567500", "104141.057500", "104142.547500", "104144.037500", "104145.527500", "104147.017500", "104148.507500", "104149.997500", "104151.487500", "104152.977500", "104154.467500", "104155.957500", "104157.447500", "104158.937500", "104200.427500", "104201.917500", "104203.407500", "104204.897500", "104206.387500", "104207.877500", "104209.367500", "104210.857500", "104212.347500", "104213.837500", "104215.327500", "104216.817500", "104218.307500", "104219.797500", "104221.287500", "104222.777500", "104224.267500", "104225.757500", "104227.247500", "104228.737500", "104230.227500", "104231.717500", "104233.207500", "104234.697500", "104236.187500", "104237.677500", "104239.167500", "104240.657500", "104242.147500", "104243.637500", "104245.127500", "104246.617500", "104248.107500", "104249.597500", "104251.087500", "104252.577500", "104254.067500", "104255.557500", "104257.047500", "104258.537500", "104300.027500", "104301.517500", "104303.007500", "104304.497500", "104305.987500", "104307.477500", "104308.967500", "104310.457500", "104311.947500", "104313.437500", "104314.927500", "104316.417500", "104317.907500", "104319.397500", "104320.887500", "104322.377500", "104323.867500", "104325.357500", "104326.847500", "104328.337500", "104329.827500", "104331.317500", "104332.807500", "104334.297500", "104335.787500", "104337.277500", "104338.767500", "104340.257500", "104341.747500", "104343.237500", "104344.727500", "104346.217500", "104347.707500", "104349.197500", "104350.687500", "104352.177500", "104353.667500", "104355.157500", "104356.647500", "104358.137500", "104359.627500", "104401.117500", "104402.607500", "104404.097500", "104405.587500", "104407.077500", "104408.567500", "104410.057500", "104411.547500", "104413.037500", "104414.527500", "104416.017500", "104417.507500", "104418.997500", "104420.487500", "104421.977500", "104423.467500", "104424.957500", "104426.447500", "104427.937500", "104429.427500", "104430.917500", "104432.407500", "104433.897500", "104435.387500", "104436.877500", "104438.367500", "104439.857500", "104441.347500", "104442.837500", "104444.327500", "104445.817500", "104447.307500", "104448.797500", "104450.287500", "104451.777500", "104453.267500", "104454.757500", "104456.247500", "104457.737500", "104459.227500", "104500.717500", "104502.207500", "104503.697500", "104505.187500", "104506.677500", "104508.167500", "104509.657500", "104511.147500", "104512.637500", "104514.127500", "104515.617500", "104517.107500", "104518.597500", "104520.087500", "104521.577500", "104523.067500", "104524.557500", "104526.047500", "104527.537500", "104529.027500", "104530.517500", "104532.007500", "104533.497500", "104534.987500", "104536.477500", "104537.967500", "104539.457500", "104540.947500", "104542.437500", "104543.927500", "104545.417500", "104546.907500", "104548.397500", "104549.887500", "104551.377500", "104552.867500"],
      "ContentTime": ["103543.274000", "103543.277000", "103543.280000", "103543.283000", "103543.286000", "103543.289000", "103543.292000", "103543.295000", "103543.309000", "103543.312000", "103543.315000", "103543.318000", "103543.321000", "103543.324000", "103543.327000", "103543.330000", "103543.339000", "103543.342000", "103543.349000", "103543.351000", "103603.228000", "103603.231000", "103603.234000", "103603.237000", "103603.240000", "103603.243000", "103603.246000", "103603.248000", "103603.251000", "103603.254000", "103603.257000", "103603.260000", "103603.263000", "103603.266000", "103603.269000", "103603.272000", "103603.275000", "103603.278000", "103603.281000", "103603.284000", "103623.229000", "103623.232000", "103623.235000", "103623.246000", "103623.249000", "103623.252000", "103623.255000", "103623.258000", "103623.261000", "103623.264000", "103623.267000", "103623.270000", "103623.273000", "103623.276000", "103623.279000", "103623.282000", "103623.285000", "103623.288000", "103623.291000", "103623.303000", "103643.229000", "103643.232000", "103643.235000", "103643.238000", "103643.241000", "103643.244000", "103643.247000", "103643.250000", "103643.254000", "103643.257000", "103643.260000", "103643.263000", "103643.267000", "103643.270000", "103643.273000", "103643.276000", "103643.278000", "103643.318000", "103643.321000", "103643.324000", "103703.229000", "103703.232000", "103703.235000", "103703.238000", "103703.241000", "103703.244000", "103703.247000", "103703.249000", "103703.252000", "103703.255000", "103703.258000", "103703.261000", "103703.264000", "103703.267000", "103703.270000", "103703.273000", "103703.276000", "103703.279000", "103703.282000", "103703.285000", "103703.288000", "103743.229000", "103743.232000", "103743.235000", "103743.238000", "103743.241000", "103743.244000", "103743.247000", "103743.250000", "103743.253000", "103743.255000", "103743.258000", "103743.261000", "103743.264000", "103743.267000", "103743.270000", "103743.273000", "103743.276000", "103743.279000", "103743.282000", "103743.285000", "103743.288000", "103743.291000", "103743.294000", "103743.297000", "103743.299000", "103743.302000", "103743.305000", "103743.308000", "103823.228000", "103823.231000", "103823.234000", "103823.237000", "103823.240000", "103823.243000", "103823.246000", "103823.249000", "103823.252000", "103823.254000", "103823.257000", "103823.260000", "103823.263000", "103823.266000", "103823.269000", "103823.272000", "103823.275000", "103823.278000", "103823.281000", "103823.284000", "103823.287000", "103823.290000", "103823.293000", "103823.296000", "103823.299000", "103823.302000", "103823.305000", "103903.229000", "103903.232000", "103903.235000", "103903.239000", "103903.242000", "103903.245000", "103903.248000", "103903.252000", "103903.255000", "103903.258000", "103903.261000", "103903.264000", "103903.267000", "103903.270000", "103903.273000", "103903.276000", "103903.279000", "103903.282000", "103903.285000", "103903.287000", "103903.290000", "103903.293000", "103903.296000", "103903.299000", "103903.302000", "103903.305000", "103943.229000", "103943.232000", "103943.235000", "103943.238000", "103943.241000", "103943.244000", "103943.247000", "103943.250000", "103943.253000", "103943.256000", "103943.259000", "103943.262000", "103943.265000", "103943.268000", "103943.271000", "103943.274000", "103943.276000", "103943.279000", "103943.282000", "103943.285000", "103943.288000", "103943.291000", "103943.294000", "103943.297000", "103943.300000", "103943.303000", "103943.306000", "104023.228000", "104023.231000", "104023.234000", "104023.237000", "104023.240000", "104023.243000", "104023.246000", "104023.249000", "104023.252000", "104023.255000", "104023.269000", "104023.271000", "104023.275000", "104023.277000", "104023.280000", "104023.283000", "104023.286000", "104023.289000", "104023.292000", "104023.295000", "104023.298000", "104023.301000", "104023.304000", "104023.307000", "104023.310000", "104023.313000", "104023.316000", "104103.229000", "104103.232000", "104103.235000", "104103.238000", "104103.241000", "104103.244000", "104103.247000", "104103.250000", "104103.253000", "104103.256000", "104103.259000", "104103.262000", "104103.265000", "104103.268000", "104103.271000", "104103.274000", "104103.277000", "104103.279000", "104103.282000", "104103.285000", "104103.288000", "104103.291000", "104103.294000", "104103.297000", "104103.309000", "104103.312000", "104103.315000", "104143.229000", "104143.232000", "104143.235000", "104143.238000", "104143.241000", "104143.244000", "104143.247000", "104143.250000", "104143.253000", "104143.256000", "104143.259000", "104143.262000", "104143.264000", "104143.267000", "104143.270000", "104143.273000", "104143.276000", "104143.279000", "104143.282000", "104143.285000", "104143.288000", "104143.291000", "104143.294000", "104143.297000", "104143.300000", "104143.303000", "104143.306000", "104223.229000", "104223.232000", "104223.235000", "104223.238000", "104223.241000", "104223.244000", "104223.247000", "104223.250000", "104223.253000", "104223.256000", "104223.259000", "104223.262000", "104223.265000", "104223.268000", "104223.270000", "104223.273000", "104223.276000", "104223.279000", "104223.282000", "104223.285000", "104223.288000", "104223.291000", "104223.294000", "104223.297000", "104223.300000", "104223.303000", "104223.306000", "104303.228000", "104303.231000", "104303.234000", "104303.237000", "104303.240000", "104303.243000", "104303.246000", "104303.249000", "104303.252000", "104303.255000", "104303.263000", "104303.265000", "104303.268000", "104303.271000", "104303.274000", "104303.277000", "104303.280000", "104303.283000", "104303.286000", "104303.289000", "104303.303000", "104303.306000", "104303.309000", "104303.312000", "104303.315000", "104303.318000", "104303.321000", "104343.229000", "104343.232000", "104343.235000", "104343.238000", "104343.241000", "104343.245000", "104343.248000", "104343.251000", "104343.254000", "104343.257000", "104343.260000", "104343.263000", "104343.265000", "104343.268000", "104343.271000", "104343.274000", "104343.277000", "104343.280000", "104343.283000", "104343.286000", "104343.289000", "104343.292000", "104343.295000", "104343.298000", "104343.301000", "104343.304000", "104423.229000", "104423.232000", "104423.235000", "104423.238000", "104423.241000", "104423.252000", "104423.255000", "104423.258000", "104423.261000", "104423.264000", "104423.267000", "104423.270000", "104423.273000", "104423.276000", "104423.279000", "104423.282000", "104423.285000", "104423.287000", "104423.290000", "104423.293000", "104423.296000", "104423.299000", "104423.302000", "104423.305000", "104423.308000", "104423.311000", "104423.314000", "104503.228000", "104503.231000", "104503.234000", "104503.237000", "104503.240000", "104503.243000", "104503.246000", "104503.249000", "104503.252000", "104503.255000", "104503.258000", "104503.261000", "104503.264000", "104503.267000", "104503.270000", "104503.273000", "104503.276000", "104503.279000", "104503.281000", "104503.284000", "104503.287000", "104503.290000", "104503.293000", "104503.296000", "104503.299000", "104503.302000", "104503.305000", "104543.229000", "104543.232000", "104543.235000", "104543.238000", "104543.241000", "104543.244000", "104543.247000", "104543.250000", "104543.253000", "104543.256000", "104543.259000", "104543.262000", "104543.265000", "104543.268000", "104543.271000", "104543.274000", "104543.277000", "104543.280000", "104543.282000", "104543.285000", "104543.297000", "104543.300000", "104543.303000", "104543.306000", "104543.309000", "104543.312000", "104543.315000", "104554.543000", "104554.546000", "104554.549000", "104554.552000", "104554.555000", "104554.558000", "104554.561000", "104554.564000"],
