{
  "AcquisitionMatrixPE": 104,
  "AcquisitionNumber": 1,
  "AcquisitionTime": "10:10:54.865000",
  "BandwidthPerPixelPhaseEncode": 17.17,
  "BaseResolution": 104,
  "BodyPartExamined": "BRAIN",
  "CoilString": "HC1-7;NC1_2",
  "ConsistencyInfo": "N4_VE11C_LATEST_20160120",
  "ConversionSoftware": "dcm2niix",
  "ConversionSoftwareVersion": "v1.0.20190902",
  "DerivedVendorReportedEchoSpacing": 0.000560011,
  "DeviceSerialNumber": "167006",
  "DwellTime": 2.1e-06,
  "EchoTime": 0.037,
  "EchoTrainLength": 104,
  "EffectiveEchoSpacing": 0.000560011,
  "FlipAngle": 52,
  "ImageComments": "Unaliased_MB4_PE3_LB",
  "ImageOrientationPatientDICOM": [0.999834, 0.0166316, 0.00742825, -0.0111687, 0.881913, -0.47128],
  "ImageType": [
    "ORIGINAL",
    "PRIMARY",
    "M",
    "MB",
    "ND",
    "MOSAIC"
],
  "ImagingFrequency": 123.259,
  "InPlanePhaseEncodingDirectionDICOM": "COL",
  "InstitutionAddress": "Chemin_Queen-Mary_4565_Montreal_District_CA_H3W_1W5",
  "InstitutionName": "IUGM",
  "InstitutionalDepartmentName": "Department",
  "MRAcquisitionType": "2D",
  "MagneticFieldStrength": 3,
  "Manufacturer": "Siemens",
  "ManufacturersModelName": "Prisma_fit",
  "Modality": "MR",
  "MultibandAccelerationFactor": 4,
  "PartialFourier": 1,
  "PatientPosition": "HFS",
  "PercentPhaseFOV": 100,
  "PhaseEncodingDirection": "j",
  "PhaseEncodingSteps": 104,
  "PhaseResolution": 1,
  "PixelBandwidth": 2290,
  "ProcedureStepDescription": "video_friends",
  "ProtocolName": "func_task-friends-s04e21b",
  "PulseSequenceDetails": "%CustomerSeq%_cmrr_mbep2d_bold",
  "ReceiveCoilActiveElements": "HC1-7;NC1,2",
  "ReceiveCoilName": "HeadNeck_64",
  "ReconMatrixPE": 104,
  "RepetitionTime": 1.49,
  "SAR": 0.0373178,
  "ScanOptions": "FS",
  "ScanningSequence": "EP",
  "SequenceName": "epfid2d1_104",
  "SequenceVariant": "SK_SS",
  "SeriesDescription": "func_task-friends-s04e21b",
  "SeriesNumber": 19,
  "ShimSetting": [616, -7213, -8861, 419, -29, -182, -14, -26],
  "SliceThickness": 2,
  "SliceTiming": [0, 0.7825, 0.0975, 0.88, 0.195, 0.98, 0.2925, 1.0775, 0.39, 1.175, 0.49, 1.2725, 0.5875, 1.37, 0.685, 0, 0.7825, 0.0975, 0.88, 0.195, 0.98, 0.2925, 1.0775, 0.39, 1.175, 0.49, 1.2725, 0.5875, 1.37, 0.685, 0, 0.7825, 0.0975, 0.88, 0.195, 0.98, 0.2925, 1.0775, 0.39, 1.175, 0.49, 1.2725, 0.5875, 1.37, 0.685, 0, 0.7825, 0.0975, 0.88, 0.195, 0.98, 0.2925, 1.0775, 0.39, 1.175, 0.49, 1.2725, 0.5875, 1.37, 0.685],
  "SoftwareVersions": "syngo_MR_E11",
  "SpacingBetweenSlices": 2,
  "StationName": "MRC35049",
  "TaskName": "s04e21b",
  "TotalReadoutTime": 0.0576811,
  "TxRefAmp": 253.805,
  "WipMemBlock": "47b2e489-14e7-4710-859a-fdd839a8dadf||Sequence: R016 ve11c/master r/e634e98; Dec 19 2017 11:00:25 by eja",
  "dcmmeta_affine": [
    [-1.9996682405471802, -0.022337354719638824, 0.028778403997421265, 103.21778869628906],
    [-0.03326317295432091, 1.7638256549835205, -0.9422380924224854, -60.85088348388672],
    [0.0148564912378788, 0.9425603747367859, 1.7639044523239136, -93.5000228881836],
    [0.0, 0.0, 0.0, 1.0]
],
  "dcmmeta_reorient_transform": [
    [0.0, -1.0, 0.0, 103.0],
    [1.0, 0.0, 0.0, 0.0],
    [0.0, 0.0, 1.0, 0.0],
    [0.0, 0.0, 0.0, 1.0]
],
  "dcmmeta_shape": [104, 104, 60, 448],
  "dcmmeta_slice_dim": 2,
  "dcmmeta_version": 0.6,
  "global": {
    "const": {
      "AcquisitionMatrix": [104, 0, 0, 104],
      "AngioFlag": "N",
      "BitsAllocated": 16,
      "BitsStored": 16,
      "BodyPartExamined": "BRAIN",
      "Columns": 832,
      "EchoNumbers": 1,
      "EchoTime": 37.0,
      "EchoTrainLength": 104,
      "FlipAngle": 52.0,
      "HighBit": 15,
      "ImageOrientationPatient": [0.99983409198707, 0.01663158639715, 0.00742824570873, -0.0111686772709, 0.88191282826727, -0.4712801968953],
      "ImagePositionPatient": [-820.66546561713, -774.96349142243, 341.26792107397],
      "ImageType": [
        "ORIGINAL",
        "PRIMARY",
        "M",
        "MB",
        "ND",
        "MOSAIC"
],
      "ImagedNucleus": "1H",
      "ImagingFrequency": 123.259026,
      "InPlanePhaseEncodingDirection": "COL",
      "MRAcquisitionType": "2D",
      "MagneticFieldStrength": 3.0,
      "Manufacturer": "SIEMENS",
      "ManufacturerModelName": "Prisma_fit",
      "Modality": "MR",
      "NumberOfAverages": 1.0,
      "NumberOfPhaseEncodingSteps": 104,
      "PercentPhaseFieldOfView": 100.0,
      "PercentSampling": 100.0,
      "PerformedProcedureStepStartTime": "090419.904000",
      "PhotometricInterpretation": "MONOCHROME2",
      "PixelBandwidth": 2290.0,
      "PixelRepresentation": 0,
      "PixelSpacing": [2.0, 2.0],
      "ProtocolName": "func_task-friends-s04e21b",
      "RepetitionTime": 1490.0,
      "Rows": 832,
      "SAR": 0.03731778263265,
      "SamplesPerPixel": 1,
      "ScanOptions": "FS",
      "ScanningSequence": "EP",
      "SequenceName": "epfid2d1_104",
      "SequenceVariant": [
        "SK",
        "SS"
],
      "SeriesDescription": "func_task-friends-s04e21b",
      "SeriesNumber": 19,
      "SeriesTime": "101223.115000",
      "SliceLocation": -52.309321837122,
      "SliceThickness": 2.0,
      "SmallestImagePixelValue": 0,
      "SoftwareVersions": "syngo MR E11",
      "SpacingBetweenSlices": 1.9999999767293,
      "SpecificCharacterSet": "ISO_IR 100",
      "StudyID": "1",
      "StudyTime": "090419.734000",
      "TransmitCoilName": "Body",
      "VariableFlipAngleFlag": "N",
      "WindowCenterWidthExplanation": "Algo1",
      "dBdt": 0.0},
    "slices": {}
  },
  "time": {
    "samples": {
      "AcquisitionNumber": [1, 2, 3, 4, 5, 6, 7, 8, 9, 10, 11, 12, 13, 14, 15, 16, 17, 18, 19, 20, 21, 22, 23, 24, 25, 26, 27, 28, 29, 30, 31, 32, 33, 34, 35, 36, 37, 38, 39, 40, 41, 42, 43, 44, 45, 46, 47, 48, 49, 50, 51, 52, 53, 54, 55, 56, 57, 58, 59, 60, 61, 62, 63, 64, 65, 66, 67, 68, 69, 70, 71, 72, 73, 74, 75, 76, 77, 78, 79, 80, 81, 82, 83, 84, 85, 86, 87, 88, 89, 90, 91, 92, 93, 94, 95, 96, 97, 98, 99, 100, 101, 102, 103, 104, 105, 106, 107, 108, 109, 110, 111, 112, 113, 114, 115, 116, 117, 118, 119, 120, 121, 122, 123, 124, 125, 126, 127, 128, 129, 130, 131, 132, 133, 134, 135, 136, 137, 138, 139, 140, 141, 142, 143, 144, 145, 146, 147, 148, 149, 150, 151, 152, 153, 154, 155, 156, 157, 158, 159, 160, 161, 162, 163, 164, 165, 166, 167, 168, 169, 170, 171, 172, 173, 174, 175, 176, 177, 178, 179, 180, 181, 182, 183, 184, 185, 186, 187, 188, 189, 190, 191, 192, 193, 194, 195, 196, 197, 198, 199, 200, 201, 202, 203, 204, 205, 206, 207, 208, 209, 210, 211, 212, 213, 214, 215, 216, 217, 218, 219, 220, 221, 222, 223, 224, 225, 226, 227, 228, 229, 230, 231, 232, 233, 234, 235, 236, 237, 238, 239, 240, 241, 242, 243, 244, 245, 246, 247, 248, 249, 250, 251, 252, 253, 254, 255, 256, 257, 258, 259, 260, 261, 262, 263, 264, 265, 266, 267, 268, 269, 270, 271, 272, 273, 274, 275, 276, 277, 278, 279, 280, 281, 282, 283, 284, 285, 286, 287, 288, 289, 290, 291, 292, 293, 294, 295, 296, 297, 298, 299, 300, 301, 302, 303, 304, 305, 306, 307, 308, 309, 310, 311, 312, 313, 314, 315, 316, 317, 318, 319, 320, 321, 322, 323, 324, 325, 326, 327, 328, 329, 330, 331, 332, 333, 334, 335, 336, 337, 338, 339, 340, 341, 342, 343, 344, 345, 346, 347, 348, 349, 350, 351, 352, 353, 354, 355, 356, 357, 358, 359, 360, 361, 362, 363, 364, 365, 366, 367, 368, 369, 370, 371, 372, 373, 374, 375, 376, 377, 378, 379, 380, 381, 382, 383, 384, 385, 386, 387, 388, 389, 390, 391, 392, 393, 394, 395, 396, 397, 398, 399, 400, 401, 402, 403, 404, 405, 406, 407, 408, 409, 410, 411, 412, 413, 414, 415, 416, 417, 418, 419, 420, 421, 422, 423, 424, 425, 426, 427, 428, 429, 430, 431, 432, 433, 434, 435, 436, 437, 438, 439, 440, 441, 442, 443, 444, 445, 446, 447, 448],
      "AcquisitionTime": ["101054.865000", "101056.355000", "101057.845000", "101059.335000", "101100.825000", "101102.315000", "101103.805000", "101105.295000", "101106.785000", "101108.275000", "101109.765000", "101111.255000", "101112.745000", "101114.235000", "101115.725000", "101117.215000", "101118.705000", "101120.195000", "101121.685000", "101123.175000", "101124.665000", "101126.155000", "101127.645000", "101129.135000", "101130.625000", "101132.115000", "101133.605000", "101135.095000", "101136.585000", "101138.075000", "101139.565000", "101141.055000", "101142.545000", "101144.035000", "101145.525000", "101147.015000", "101148.505000", "101149.995000", "101151.485000", "101152.975000", "101154.465000", "101155.955000", "101157.445000", "101158.935000", "101200.425000", "101201.915000", "101203.405000", "101204.895000", "101206.385000", "101207.875000", "101209.365000", "101210.855000", "101212.345000", "101213.835000", "101215.325000", "101216.815000", "101218.305000", "101219.795000", "101221.285000", "101222.775000", "101224.265000", "101225.755000", "101227.245000", "101228.735000", "101230.225000", "101231.715000", "101233.205000", "101234.695000", "101236.185000", "101237.675000", "101239.165000", "101240.655000", "101242.145000", "101243.635000", "101245.125000", "101246.615000", "101248.105000", "101249.595000", "101251.085000", "101252.575000", "101254.065000", "101255.555000", "101257.045000", "101258.535000", "101300.025000", "101301.515000", "101303.005000", "101304.495000", "101305.985000", "101307.475000", "101308.965000", "101310.455000", "101311.945000", "101313.435000", "101314.925000", "101316.415000", "101317.905000", "101319.395000", "101320.885000", "101322.375000", "101323.865000", "101325.355000", "101326.845000", "101328.335000", "101329.825000", "101331.315000", "101332.805000", "101334.295000", "101335.785000", "101337.275000", "101338.765000", "101340.255000", "101341.745000", "101343.235000", "101344.725000", "101346.215000", "101347.705000", "101349.195000", "101350.685000", "101352.175000", "101353.665000", "101355.155000", "101356.645000", "101358.135000", "101359.625000", "101401.115000", "101402.605000", "101404.095000", "101405.585000", "101407.075000", "101408.565000", "101410.055000", "101411.545000", "101413.035000", "101414.525000", "101416.015000", "101417.505000", "101418.995000", "101420.485000", "101421.975000", "101423.465000", "101424.955000", "101426.445000", "101427.935000", "101429.425000", "101430.915000", "101432.405000", "101433.895000", "101435.385000", "101436.875000", "101438.365000", "101439.855000", "101441.345000", "101442.835000", "101444.325000", "101445.815000", "101447.305000", "101448.795000", "101450.285000", "101451.775000", "101453.265000", "101454.755000", "101456.245000", "101457.735000", "101459.225000", "101500.715000", "101502.205000", "101503.695000", "101505.185000", "101506.675000", "101508.165000", "101509.655000", "101511.145000", "101512.635000", "101514.125000", "101515.615000", "101517.105000", "101518.595000", "101520.085000", "101521.575000", "101523.065000", "101524.555000", "101526.045000", "101527.535000", "101529.025000", "101530.515000", "101532.005000", "101533.495000", "101534.985000", "101536.475000", "101537.965000", "101539.455000", "101540.945000", "101542.435000", "101543.925000", "101545.415000", "101546.905000", "101548.395000", "101549.885000", "101551.375000", "101552.865000", "101554.355000", "101555.845000", "101557.335000", "101558.825000", "101600.315000", "101601.805000", "101603.295000", "101604.785000", "101606.275000", "101607.765000", "101609.255000", "101610.745000", "101612.235000", "101613.725000", "101615.215000", "101616.705000", "101618.195000", "101619.685000", "101621.175000", "101622.665000", "101624.155000", "101625.645000", "101627.135000", "101628.625000", "101630.115000", "101631.605000", "101633.095000", "101634.585000", "101636.075000", "101637.565000", "101639.055000", "101640.545000", "101642.035000", "101643.525000", "101645.015000", "101646.505000", "101647.995000", "101649.485000", "101650.975000", "101652.465000", "101653.955000", "101655.445000", "101656.935000", "101658.425000", "101659.915000", "101701.405000", "101702.895000", "101704.385000", "101705.875000", "101707.365000", "101708.855000", "101710.345000", "101711.835000", "101713.325000", "101714.815000", "101716.305000", "101717.795000", "101719.285000", "101720.775000", "101722.265000", "101723.755000", "101725.245000", "101726.735000", "101728.225000", "101729.715000", "101731.205000", "101732.695000", "101734.185000", "101735.675000", "101737.165000", "101738.655000", "101740.145000", "101741.635000", "101743.125000", "101744.615000", "101746.105000", "101747.595000", "101749.085000", "101750.575000", "101752.065000", "101753.555000", "101755.045000", "101756.535000", "101758.025000", "101759.515000", "101801.005000", "101802.495000", "101803.985000", "101805.475000", "101806.965000", "101808.455000", "101809.945000", "101811.435000", "101812.925000", "101814.415000", "101815.905000", "101817.395000", "101818.885000", "101820.375000", "101821.865000", "101823.355000", "101824.845000", "101826.335000", "101827.825000", "101829.315000", "101830.805000", "101832.295000", "101833.785000", "101835.275000", "101836.765000", "101838.255000", "101839.745000", "101841.235000", "101842.725000", "101844.215000", "101845.705000", "101847.195000", "101848.685000", "101850.175000", "101851.665000", "101853.155000", "101854.645000", "101856.135000", "101857.625000", "101859.115000", "101900.605000", "101902.095000", "101903.585000", "101905.075000", "101906.565000", "101908.055000", "101909.545000", "101911.035000", "101912.525000", "101914.015000", "101915.505000", "101916.995000", "101918.485000", "101919.975000", "101921.465000", "101922.955000", "101924.445000", "101925.935000", "101927.425000", "101928.915000", "101930.405000", "101931.895000", "101933.385000", "101934.875000", "101936.365000", "101937.855000", "101939.345000", "101940.835000", "101942.325000", "101943.815000", "101945.305000", "101946.795000", "101948.285000", "101949.775000", "101951.265000", "101952.755000", "101954.245000", "101955.735000", "101957.225000", "101958.715000", "102000.205000", "102001.695000", "102003.185000", "102004.675000", "102006.165000", "102007.655000", "102009.145000", "102010.635000", "102012.125000", "102013.615000", "102015.105000", "102016.595000", "102018.085000", "102019.575000", "102021.065000", "102022.555000", "102024.045000", "102025.535000", "102027.025000", "102028.515000", "102030.005000", "102031.495000", "102032.985000", "102034.475000", "102035.965000", "102037.455000", "102038.945000", "102040.435000", "102041.925000", "102043.415000", "102044.905000", "102046.395000", "102047.885000", "102049.375000", "102050.865000", "102052.355000", "102053.845000", "102055.335000", "102056.825000", "102058.315000", "102059.805000", "102101.295000", "102102.785000", "102104.275000", "102105.765000", "102107.255000", "102108.745000", "102110.235000", "102111.725000", "102113.215000", "102114.705000", "102116.195000", "102117.685000", "102119.175000", "102120.665000", "102122.155000", "102123.645000", "102125.135000", "102126.625000", "102128.115000", "102129.605000", "102131.095000", "102132.585000", "102134.075000", "102135.565000", "102137.055000", "102138.545000", "102140.035000", "102141.525000", "102143.015000", "102144.505000", "102145.995000", "102147.485000", "102148.975000", "102150.465000", "102151.955000", "102153.445000", "102154.935000", "102156.425000", "102157.915000", "102159.405000", "102200.895000"],
      "ContentTime": ["101223.118000", "101223.121000", "101223.124000", "101223.127000", "101223.130000", "101223.133000", "101223.136000", "101223.139000", "101223.142000", "101223.145000", "101223.155000", "101223.158000", "101223.161000", "101223.164000", "101223.167000", "101223.170000", "101223.173000", "101223.176000", "101223.179000", "101223.182000", "101223.184000", "101223.187000", "101223.190000", "101223.193000", "101223.196000", "101223.199000", "101223.202000", "101223.205000", "101223.208000", "101223.211000", "101223.213000", "101223.216000", "101223.219000", "101223.222000", "101223.225000", "101223.228000", "101243.085000", "101243.088000", "101243.091000", "101243.094000", "101243.097000", "101243.111000", "101243.114000", "101243.116000", "101243.119000", "101243.122000", "101243.133000", "101243.136000", "101243.139000", "101243.142000", "101243.145000", "101243.148000", "101243.151000", "101243.154000", "101243.157000", "101243.160000", "101303.085000", "101303.088000", "101303.091000", "101303.094000", "101303.097000", "101303.100000", "101303.103000", "101303.105000", "101303.108000", "101303.111000", "101303.114000", "101303.117000", "101303.120000", "101303.123000", "101303.126000", "101303.129000", "101303.132000", "101303.135000", "101303.138000", "101303.141000", "101323.086000", "101323.095000", "101323.098000", "101323.101000", "101323.104000", "101323.107000", "101323.110000", "101323.113000", "101323.116000", "101323.119000", "101323.122000", "101323.125000", "101323.128000", "101323.131000", "101323.134000", "101323.137000", "101323.140000", "101323.143000", "101323.146000", "101323.149000", "101403.086000", "101403.089000", "101403.092000", "101403.095000", "101403.098000", "101403.101000", "101403.104000", "101403.107000", "101403.110000", "101403.112000", "101403.115000", "101403.118000", "101403.121000", "101403.124000", "101403.127000", "101403.130000", "101403.133000", "101403.136000", "101403.139000", "101403.141000", "101403.144000", "101403.147000", "101403.150000", "101403.153000", "101403.156000", "101403.159000", "101403.162000", "101403.165000", "101403.168000", "101443.086000", "101443.089000", "101443.092000", "101443.095000", "101443.098000", "101443.101000", "101443.104000", "101443.107000", "101443.110000", "101443.112000", "101443.115000", "101443.118000", "101443.121000", "101443.124000", "101443.127000", "101443.130000", "101443.133000", "101443.136000", "101443.139000", "101443.142000", "101443.145000", "101443.148000", "101443.151000", "101443.153000", "101443.156000", "101443.159000", "101443.162000", "101523.085000", "101523.088000", "101523.091000", "101523.094000", "101523.097000", "101523.100000", "101523.103000", "101523.106000", "101523.109000", "101523.112000", "101523.114000", "101523.117000", "101523.120000", "101523.123000", "101523.126000", "101523.129000", "101523.132000", "101523.135000", "101523.138000", "101523.141000", "101523.144000", "101523.147000", "101523.150000", "101523.152000", "101523.155000", "101523.158000", "101523.161000", "101603.086000", "101603.089000", "101603.092000", "101603.095000", "101603.098000", "101603.101000", "101603.104000", "101603.107000", "101603.110000", "101603.113000", "101603.115000", "101603.118000", "101603.121000", "101603.124000", "101603.127000", "101603.130000", "101603.133000", "101603.136000", "101603.139000", "101603.142000", "101603.145000", "101603.148000", "101603.151000", "101603.154000", "101603.157000", "101603.159000", "101603.162000", "101643.086000", "101643.089000", "101643.092000", "101643.095000", "101643.098000", "101643.101000", "101643.106000", "101643.109000", "101643.112000", "101643.115000", "101643.118000", "101643.121000", "101643.124000", "101643.127000", "101643.130000", "101643.133000", "101643.136000", "101643.139000", "101643.142000", "101643.145000", "101643.147000", "101643.150000", "101643.153000", "101643.156000", "101643.159000", "101643.162000", "101643.165000", "101723.085000", "101723.088000", "101723.091000", "101723.094000", "101723.097000", "101723.100000", "101723.103000", "101723.116000", "101723.119000", "101723.122000", "101723.125000", "101723.127000", "101723.130000", "101723.133000", "101723.136000", "101723.139000", "101723.142000", "101723.145000", "101723.148000", "101723.151000", "101723.154000", "101723.157000", "101723.160000", "101723.170000", "101723.172000", "101723.175000", "101723.178000", "101803.099000", "101803.103000", "101803.106000", "101803.109000", "101803.122000", "101803.125000", "101803.128000", "101803.131000", "101803.133000", "101803.136000", "101803.139000", "101803.142000", "101803.145000", "101803.148000", "101803.151000", "101803.154000", "101803.157000", "101803.160000", "101803.163000", "101803.166000", "101803.169000", "101803.172000", "101803.175000", "101803.178000", "101803.181000", "101803.184000", "101843.086000", "101843.089000", "101843.092000", "101843.095000", "101843.098000", "101843.101000", "101843.104000", "101843.107000", "101843.109000", "101843.112000", "101843.115000", "101843.118000", "101843.121000", "101843.124000", "101843.127000", "101843.130000", "101843.133000", "101843.136000", "101843.139000", "101843.142000", "101843.145000", "101843.148000", "101843.151000", "101843.154000", "101843.156000", "101843.159000", "101843.162000", "101923.086000", "101923.089000", "101923.092000", "101923.095000", "101923.098000", "101923.101000", "101923.104000", "101923.107000", "101923.109000", "101923.112000", "101923.115000", "101923.118000", "101923.121000", "101923.124000", "101923.128000", "101923.131000", "101923.134000", "101923.136000", "101923.139000", "101923.142000", "101923.145000", "101923.148000", "101923.151000", "101923.154000", "101923.157000", "101923.165000", "101923.168000", "102003.085000", "102003.088000", "102003.091000", "102003.094000", "102003.097000", "102003.100000", "102003.103000", "102003.106000", "102003.109000", "102003.112000", "102003.114000", "102003.117000", "102003.120000", "102003.123000", "102003.126000", "102003.129000", "102003.132000", "102003.135000", "102003.138000", "102003.141000", "102003.144000", "102003.147000", "102003.150000", "102003.153000", "102003.155000", "102003.158000", "102003.161000", "102043.086000", "102043.089000", "102043.092000", "102043.095000", "102043.098000", "102043.101000", "102043.104000", "102043.107000", "102043.109000", "102043.112000", "102043.115000", "102043.118000", "102043.121000", "102043.124000", "102043.127000", "102043.130000", "102043.133000", "102043.144000", "102043.147000", "102043.150000", "102043.153000", "102043.156000", "102043.159000", "102043.162000", "102043.165000", "102043.168000", "102043.171000", "102123.086000", "102123.089000", "102123.092000", "102123.095000", "102123.098000", "102123.108000", "102123.111000", "102123.114000", "102123.116000", "102123.119000", "102123.122000", "102123.125000", "102123.128000", "102123.131000", "102123.134000", "102123.137000", "102123.140000", "102123.143000", "102123.146000", "102123.149000", "102123.152000", "102123.155000", "102123.158000", "102123.161000", "102123.164000", "102123.167000", "102123.169000", "102203.087000", "102203.091000", "102203.094000", "102203.097000", "102203.100000", "102203.104000", "102203.107000", "102203.110000", "102203.113000", "102203.116000", "102203.120000", "102203.123000", "102203.127000", "102203.131000", "102203.135000", "102203.139000", "102203.142000", "102203.145000", "102203.148000", "102203.151000", "102203.154000", "102203.157000", "102203.160000", "102203.163000", "102203.166000", "102203.169000", "102203.235000"],
