{
  "AcquisitionMatrixPE": 104,
  "AcquisitionNumber": 1,
  "AcquisitionTime": "09:13:21.087500",
  "BandwidthPerPixelPhaseEncode": 17.17,
  "BaseResolution": 104,
  "BodyPartExamined": "BRAIN",
  "CoilString": "HC1-7;NC1_2",
  "ConsistencyInfo": "N4_VE11C_LATEST_20160120",
  "ConversionSoftware": "dcm2niix",
  "ConversionSoftwareVersion": "v1.0.20190902",
  "DerivedVendorReportedEchoSpacing": 0.000560011,
  "DeviceSerialNumber": "167006",
  "DwellTime": 2.1e-06,
  "EchoTime": 0.037,
  "EchoTrainLength": 104,
  "EffectiveEchoSpacing": 0.000560011,
  "FlipAngle": 52,
  "ImageComments": "Unaliased_MB4_PE3_LB",
  "ImageOrientationPatientDICOM": [0.999834, 0.0166316, 0.00742825, -0.0111687, 0.881913, -0.47128],
  "ImageType": [
    "ORIGINAL",
    "PRIMARY",
    "M",
    "MB",
    "ND",
    "MOSAIC"
],
  "ImagingFrequency": 123.259,
  "InPlanePhaseEncodingDirectionDICOM": "COL",
  "InstitutionAddress": "Chemin_Queen-Mary_4565_Montreal_District_CA_H3W_1W5",
  "InstitutionName": "IUGM",
  "InstitutionalDepartmentName": "Department",
  "MRAcquisitionType": "2D",
  "MagneticFieldStrength": 3,
  "Manufacturer": "Siemens",
  "ManufacturersModelName": "Prisma_fit",
  "Modality": "MR",
  "MultibandAccelerationFactor": 4,
  "PartialFourier": 1,
  "PatientPosition": "HFS",
  "PercentPhaseFOV": 100,
  "PhaseEncodingDirection": "j",
  "PhaseEncodingSteps": 104,
  "PhaseResolution": 1,
  "PixelBandwidth": 2290,
  "ProcedureStepDescription": "video_friends",
  "ProtocolName": "func_task-friends-s04e19a",
  "PulseSequenceDetails": "%CustomerSeq%_cmrr_mbep2d_bold",
  "ReceiveCoilActiveElements": "HC1-7;NC1,2",
  "ReceiveCoilName": "HeadNeck_64",
  "ReconMatrixPE": 104,
  "RepetitionTime": 1.49,
  "SAR": 0.0373136,
  "ScanOptions": "FS",
  "ScanningSequence": "EP",
  "SequenceName": "epfid2d1_104",
  "SequenceVariant": "SK_SS",
  "SeriesDescription": "func_task-friends-s04e19a",
  "SeriesNumber": 9,
  "ShimSetting": [616, -7213, -8861, 419, -29, -182, -14, -26],
  "SliceThickness": 2,
  "SliceTiming": [0, 0.785, 0.0975, 0.8825, 0.1975, 0.98, 0.295, 1.0775, 0.3925, 1.1775, 0.49, 1.275, 0.5875, 1.3725, 0.6875, 0, 0.785, 0.0975, 0.8825, 0.1975, 0.98, 0.295, 1.0775, 0.3925, 1.1775, 0.49, 1.275, 0.5875, 1.3725, 0.6875, 0, 0.785, 0.0975, 0.8825, 0.1975, 0.98, 0.295, 1.0775, 0.3925, 1.1775, 0.49, 1.275, 0.5875, 1.3725, 0.6875, 0, 0.785, 0.0975, 0.8825, 0.1975, 0.98, 0.295, 1.0775, 0.3925, 1.1775, 0.49, 1.275, 0.5875, 1.3725, 0.6875],
  "SoftwareVersions": "syngo_MR_E11",
  "SpacingBetweenSlices": 2,
  "StationName": "MRC35049",
  "TaskName": "s04e19a",
  "TotalReadoutTime": 0.0576811,
  "TxRefAmp": 253.805,
  "WipMemBlock": "c9a2bd42-c6b6-41da-b1f1-7e60b237a29e||Sequence: R016 ve11c/master r/e634e98; Dec 19 2017 11:00:25 by eja",
  "dcmmeta_affine": [
    [-1.9996682405471802, -0.022337354719638824, 0.028778403997421265, 103.21778869628906],
    [-0.03326317295432091, 1.7638256549835205, -0.9422380924224854, -60.85088348388672],
    [0.0148564912378788, 0.9425603747367859, 1.7639044523239136, -93.5000228881836],
    [0.0, 0.0, 0.0, 1.0]
],
  "dcmmeta_reorient_transform": [
    [0.0, -1.0, 0.0, 103.0],
    [1.0, 0.0, 0.0, 0.0],
    [0.0, 0.0, 1.0, 0.0],
    [0.0, 0.0, 0.0, 1.0]
],
  "dcmmeta_shape": [104, 104, 60, 437],
  "dcmmeta_slice_dim": 2,
  "dcmmeta_version": 0.6,
  "global": {
    "const": {
      "AcquisitionMatrix": [104, 0, 0, 104],
      "AngioFlag": "N",
      "BitsAllocated": 16,
      "BitsStored": 16,
      "BodyPartExamined": "BRAIN",
      "Columns": 832,
      "EchoNumbers": 1,
      "EchoTime": 37.0,
      "EchoTrainLength": 104,
      "FlipAngle": 52.0,
      "HighBit": 15,
      "ImageOrientationPatient": [0.99983409198707, 0.01663158639715, 0.00742824570873, -0.0111686772709, 0.88191282826727, -0.4712801968953],
      "ImagePositionPatient": [-820.66546561713, -774.96349142243, 341.26792107397],
      "ImageType": [
        "ORIGINAL",
        "PRIMARY",
        "M",
        "MB",
        "ND",
        "MOSAIC"
],
      "ImagedNucleus": "1H",
      "ImagingFrequency": 123.259007,
      "InPlanePhaseEncodingDirection": "COL",
      "MRAcquisitionType": "2D",
      "MagneticFieldStrength": 3.0,
      "Manufacturer": "SIEMENS",
      "ManufacturerModelName": "Prisma_fit",
      "Modality": "MR",
      "NumberOfAverages": 1.0,
      "NumberOfPhaseEncodingSteps": 104,
      "PercentPhaseFieldOfView": 100.0,
      "PercentSampling": 100.0,
      "PerformedProcedureStepStartTime": "090419.904000",
      "PhotometricInterpretation": "MONOCHROME2",
      "PixelBandwidth": 2290.0,
      "PixelRepresentation": 0,
      "PixelSpacing": [2.0, 2.0],
      "ProtocolName": "func_task-friends-s04e19a",
      "RepetitionTime": 1490.0,
      "Rows": 832,
      "SAR": 0.0373136476242,
      "SamplesPerPixel": 1,
      "ScanOptions": "FS",
      "ScanningSequence": "EP",
      "SequenceName": "epfid2d1_104",
      "SequenceVariant": [
        "SK",
        "SS"
],
      "SeriesDescription": "func_task-friends-s04e19a",
      "SeriesNumber": 9,
      "SeriesTime": "091454.473000",
      "SliceLocation": -52.309321837122,
      "SliceThickness": 2.0,
      "SmallestImagePixelValue": 0,
      "SoftwareVersions": "syngo MR E11",
      "SpacingBetweenSlices": 1.9999999767293,
      "SpecificCharacterSet": "ISO_IR 100",
      "StudyID": "1",
      "StudyTime": "090419.734000",
      "TransmitCoilName": "Body",
      "VariableFlipAngleFlag": "N",
      "WindowCenterWidthExplanation": "Algo1",
      "dBdt": 0.0},
    "slices": {}
  },
  "time": {
    "samples": {
      "AcquisitionNumber": [1, 2, 3, 4, 5, 6, 7, 8, 9, 10, 11, 12, 13, 14, 15, 16, 17, 18, 19, 20, 21, 22, 23, 24, 25, 26, 27, 28, 29, 30, 31, 32, 33, 34, 35, 36, 37, 38, 39, 40, 41, 42, 43, 44, 45, 46, 47, 48, 49, 50, 51, 52, 53, 54, 55, 56, 57, 58, 59, 60, 61, 62, 63, 64, 65, 66, 67, 68, 69, 70, 71, 72, 73, 74, 75, 76, 77, 78, 79, 80, 81, 82, 83, 84, 85, 86, 87, 88, 89, 90, 91, 92, 93, 94, 95, 96, 97, 98, 99, 100, 101, 102, 103, 104, 105, 106, 107, 108, 109, 110, 111, 112, 113, 114, 115, 116, 117, 118, 119, 120, 121, 122, 123, 124, 125, 126, 127, 128, 129, 130, 131, 132, 133, 134, 135, 136, 137, 138, 139, 140, 141, 142, 143, 144, 145, 146, 147, 148, 149, 150, 151, 152, 153, 154, 155, 156, 157, 158, 159, 160, 161, 162, 163, 164, 165, 166, 167, 168, 169, 170, 171, 172, 173, 174, 175, 176, 177, 178, 179, 180, 181, 182, 183, 184, 185, 186, 187, 188, 189, 190, 191, 192, 193, 194, 195, 196, 197, 198, 199, 200, 201, 202, 203, 204, 205, 206, 207, 208, 209, 210, 211, 212, 213, 214, 215, 216, 217, 218, 219, 220, 221, 222, 223, 224, 225, 226, 227, 228, 229, 230, 231, 232, 233, 234, 235, 236, 237, 238, 239, 240, 241, 242, 243, 244, 245, 246, 247, 248, 249, 250, 251, 252, 253, 254, 255, 256, 257, 258, 259, 260, 261, 262, 263, 264, 265, 266, 267, 268, 269, 270, 271, 272, 273, 274, 275, 276, 277, 278, 279, 280, 281, 282, 283, 284, 285, 286, 287, 288, 289, 290, 291, 292, 293, 294, 295, 296, 297, 298, 299, 300, 301, 302, 303, 304, 305, 306, 307, 308, 309, 310, 311, 312, 313, 314, 315, 316, 317, 318, 319, 320, 321, 322, 323, 324, 325, 326, 327, 328, 329, 330, 331, 332, 333, 334, 335, 336, 337, 338, 339, 340, 341, 342, 343, 344, 345, 346, 347, 348, 349, 350, 351, 352, 353, 354, 355, 356, 357, 358, 359, 360, 361, 362, 363, 364, 365, 366, 367, 368, 369, 370, 371, 372, 373, 374, 375, 376, 377, 378, 379, 380, 381, 382, 383, 384, 385, 386, 387, 388, 389, 390, 391, 392, 393, 394, 395, 396, 397, 398, 399, 400, 401, 402, 403, 404, 405, 406, 407, 408, 409, 410, 411, 412, 413, 414, 415, 416, 417, 418, 419, 420, 421, 422, 423, 424, 425, 426, 427, 428, 429, 430, 431, 432, 433, 434, 435, 436, 437],
      "AcquisitionTime": ["091321.087500", "091322.577500", "091324.067500", "091325.557500", "091327.047500", "091328.537500", "091330.027500", "091331.517500", "091333.007500", "091334.497500", "091335.987500", "091337.477500", "091338.967500", "091340.457500", "091341.947500", "091343.437500", "091344.927500", "091346.417500", "091347.907500", "091349.397500", "091350.887500", "091352.377500", "091353.867500", "091355.357500", "091356.847500", "091358.337500", "091359.827500", "091401.317500", "091402.807500", "091404.297500", "091405.787500", "091407.277500", "091408.767500", "091410.257500", "091411.747500", "091413.237500", "091414.727500", "091416.217500", "091417.707500", "091419.197500", "091420.687500", "091422.177500", "091423.667500", "091425.157500", "091426.647500", "091428.137500", "091429.627500", "091431.117500", "091432.607500", "091434.097500", "091435.587500", "091437.077500", "091438.567500", "091440.057500", "091441.547500", "091443.037500", "091444.527500", "091446.017500", "091447.507500", "091448.997500", "091450.487500", "091451.977500", "091453.467500", "091454.957500", "091456.447500", "091457.937500", "091459.427500", "091500.917500", "091502.407500", "091503.897500", "091505.387500", "091506.877500", "091508.367500", "091509.857500", "091511.347500", "091512.837500", "091514.327500", "091515.817500", "091517.307500", "091518.797500", "091520.287500", "091521.777500", "091523.267500", "091524.757500", "091526.247500", "091527.737500", "091529.227500", "091530.717500", "091532.207500", "091533.697500", "091535.187500", "091536.677500", "091538.167500", "091539.657500", "091541.147500", "091542.637500", "091544.127500", "091545.617500", "091547.107500", "091548.597500", "091550.087500", "091551.577500", "091553.067500", "091554.557500", "091556.047500", "091557.537500", "091559.027500", "091600.517500", "091602.007500", "091603.497500", "091604.987500", "091606.477500", "091607.967500", "091609.457500", "091610.947500", "091612.437500", "091613.927500", "091615.417500", "091616.907500", "091618.397500", "091619.887500", "091621.377500", "091622.867500", "091624.357500", "091625.847500", "091627.337500", "091628.827500", "091630.317500", "091631.807500", "091633.297500", "091634.787500", "091636.277500", "091637.767500", "091639.257500", "091640.747500", "091642.237500", "091643.727500", "091645.217500", "091646.707500", "091648.197500", "091649.687500", "091651.177500", "091652.667500", "091654.157500", "091655.647500", "091657.137500", "091658.627500", "091700.117500", "091701.607500", "091703.097500", "091704.587500", "091706.077500", "091707.567500", "091709.057500", "091710.547500", "091712.037500", "091713.527500", "091715.017500", "091716.507500", "091717.997500", "091719.487500", "091720.977500", "091722.467500", "091723.957500", "091725.447500", "091726.937500", "091728.427500", "091729.917500", "091731.407500", "091732.897500", "091734.387500", "091735.877500", "091737.367500", "091738.857500", "091740.347500", "091741.837500", "091743.327500", "091744.817500", "091746.307500", "091747.797500", "091749.287500", "091750.777500", "091752.267500", "091753.757500", "091755.247500", "091756.737500", "091758.227500", "091759.717500", "091801.207500", "091802.697500", "091804.187500", "091805.677500", "091807.167500", "091808.657500", "091810.147500", "091811.637500", "091813.127500", "091814.617500", "091816.107500", "091817.597500", "091819.087500", "091820.577500", "091822.067500", "091823.557500", "091825.047500", "091826.537500", "091828.027500", "091829.517500", "091831.007500", "091832.497500", "091833.987500", "091835.477500", "091836.967500", "091838.457500", "091839.947500", "091841.437500", "091842.927500", "091844.417500", "091845.907500", "091847.397500", "091848.887500", "091850.377500", "091851.867500", "091853.357500", "091854.847500", "091856.337500", "091857.827500", "091859.317500", "091900.807500", "091902.297500", "091903.787500", "091905.277500", "091906.767500", "091908.257500", "091909.747500", "091911.237500", "091912.727500", "091914.217500", "091915.707500", "091917.197500", "091918.687500", "091920.177500", "091921.667500", "091923.157500", "091924.647500", "091926.137500", "091927.627500", "091929.117500", "091930.607500", "091932.097500", "091933.587500", "091935.077500", "091936.567500", "091938.057500", "091939.547500", "091941.037500", "091942.527500", "091944.017500", "091945.507500", "091946.997500", "091948.487500", "091949.977500", "091951.467500", "091952.957500", "091954.447500", "091955.937500", "091957.427500", "091958.917500", "092000.407500", "092001.897500", "092003.387500", "092004.877500", "092006.367500", "092007.857500", "092009.347500", "092010.837500", "092012.327500", "092013.817500", "092015.307500", "092016.797500", "092018.287500", "092019.777500", "092021.267500", "092022.757500", "092024.247500", "092025.737500", "092027.227500", "092028.717500", "092030.207500", "092031.697500", "092033.187500", "092034.677500", "092036.167500", "092037.657500", "092039.147500", "092040.637500", "092042.127500", "092043.617500", "092045.107500", "092046.597500", "092048.087500", "092049.577500", "092051.067500", "092052.557500", "092054.047500", "092055.537500", "092057.027500", "092058.517500", "092100.007500", "092101.497500", "092102.987500", "092104.477500", "092105.967500", "092107.457500", "092108.947500", "092110.437500", "092111.927500", "092113.417500", "092114.907500", "092116.397500", "092117.887500", "092119.377500", "092120.867500", "092122.357500", "092123.847500", "092125.337500", "092126.827500", "092128.317500", "092129.807500", "092131.297500", "092132.787500", "092134.277500", "092135.767500", "092137.257500", "092138.747500", "092140.237500", "092141.727500", "092143.217500", "092144.707500", "092146.197500", "092147.687500", "092149.177500", "092150.667500", "092152.157500", "092153.647500", "092155.137500", "092156.627500", "092158.117500", "092159.607500", "092201.097500", "092202.587500", "092204.077500", "092205.567500", "092207.057500", "092208.547500", "092210.037500", "092211.527500", "092213.017500", "092214.507500", "092215.997500", "092217.487500", "092218.977500", "092220.467500", "092221.957500", "092223.447500", "092224.937500", "092226.427500", "092227.917500", "092229.407500", "092230.897500", "092232.387500", "092233.877500", "092235.367500", "092236.857500", "092238.347500", "092239.837500", "092241.327500", "092242.817500", "092244.307500", "092245.797500", "092247.287500", "092248.777500", "092250.267500", "092251.757500", "092253.247500", "092254.737500", "092256.227500", "092257.717500", "092259.207500", "092300.697500", "092302.187500", "092303.677500", "092305.167500", "092306.657500", "092308.147500", "092309.637500", "092311.127500", "092312.617500", "092314.107500", "092315.597500", "092317.087500", "092318.577500", "092320.067500", "092321.557500", "092323.047500", "092324.537500", "092326.027500", "092327.517500", "092329.007500", "092330.497500", "092331.987500", "092333.477500", "092334.967500", "092336.457500", "092337.947500", "092339.437500", "092340.927500", "092342.417500", "092343.907500", "092345.397500", "092346.887500", "092348.377500", "092349.867500", "092351.357500", "092352.847500", "092354.337500", "092355.827500", "092357.317500", "092358.807500", "092400.297500", "092401.787500", "092403.277500", "092404.767500", "092406.257500", "092407.747500", "092409.237500", "092410.727500"],
      "ContentTime": ["091454.476000", "091454.479000", "091454.482000", "091454.485000", "091454.488000", "091454.491000", "091454.494000", "091454.497000", "091454.500000", "091454.503000", "091454.506000", "091454.509000", "091454.517000", "091454.520000", "091454.523000", "091454.526000", "091454.529000", "091454.532000", "091454.535000", "091454.537000", "091454.540000", "091454.543000", "091454.546000", "091454.549000", "091454.552000", "091454.555000", "091454.558000", "091454.561000", "091454.564000", "091454.567000", "091454.570000", "091454.573000", "091454.576000", "091454.579000", "091454.591000", "091454.594000", "091454.597000", "091454.600000", "091514.435000", "091514.438000", "091514.441000", "091514.444000", "091514.447000", "091514.450000", "091514.453000", "091514.456000", "091514.459000", "091514.462000", "091514.465000", "091514.468000", "091514.471000", "091514.474000", "091514.477000", "091514.480000", "091514.483000", "091514.485000", "091514.488000", "091514.491000", "091534.435000", "091534.438000", "091534.441000", "091534.444000", "091534.447000", "091534.450000", "091534.453000", "091534.456000", "091534.458000", "091534.461000", "091534.464000", "091534.467000", "091534.470000", "091534.473000", "091534.476000", "091534.479000", "091534.482000", "091534.485000", "091534.488000", "091534.491000", "091554.435000", "091554.438000", "091554.441000", "091554.444000", "091554.447000", "091554.450000", "091554.453000", "091554.455000", "091554.458000", "091554.461000", "091554.464000", "091554.467000", "091554.470000", "091554.473000", "091554.476000", "091554.479000", "091554.482000", "091554.485000", "091554.488000", "091554.490000", "091634.435000", "091634.438000", "091634.441000", "091634.444000", "091634.447000", "091634.458000", "091634.461000", "091634.464000", "091634.467000", "091634.470000", "091634.473000", "091634.476000", "091634.479000", "091634.481000", "091634.484000", "091634.487000", "091634.490000", "091634.493000", "091634.496000", "091634.499000", "091634.502000", "091634.505000", "091634.508000", "091634.511000", "091634.514000", "091634.516000", "091634.519000", "091634.522000", "091634.538000", "091634.541000", "091634.544000", "091714.435000", "091714.438000", "091714.441000", "091714.444000", "091714.447000", "091714.450000", "091714.453000", "091714.456000", "091714.459000", "091714.462000", "091714.464000", "091714.467000", "091714.470000", "091714.473000", "091714.476000", "091714.490000", "091714.493000", "091714.496000", "091714.499000", "091714.502000", "091714.505000", "091714.508000", "091714.511000", "091714.514000", "091714.517000", "091714.520000", "091714.523000", "091754.435000", "091754.438000", "091754.441000", "091754.444000", "091754.447000", "091754.450000", "091754.454000", "091754.462000", "091754.465000", "091754.468000", "091754.471000", "091754.474000", "091754.477000", "091754.480000", "091754.483000", "091754.486000", "091754.489000", "091754.492000", "091754.495000", "091754.498000", "091754.501000", "091754.504000", "091754.506000", "091754.509000", "091754.512000", "091754.515000", "091834.435000", "091834.438000", "091834.441000", "091834.444000", "091834.447000", "091834.450000", "091834.453000", "091834.456000", "091834.459000", "091834.462000", "091834.465000", "091834.467000", "091834.470000", "091834.473000", "091834.476000", "091834.479000", "091834.482000", "091834.485000", "091834.488000", "091834.491000", "091834.494000", "091834.497000", "091834.500000", "091834.503000", "091834.506000", "091834.509000", "091834.512000", "091914.435000", "091914.438000", "091914.441000", "091914.444000", "091914.447000", "091914.450000", "091914.453000", "091914.456000", "091914.459000", "091914.462000", "091914.464000", "091914.467000", "091914.470000", "091914.473000", "091914.476000", "091914.479000", "091914.482000", "091914.485000", "091914.488000", "091914.491000", "091914.494000", "091914.497000", "091914.500000", "091914.503000", "091914.506000", "091914.509000", "091914.512000", "091954.435000", "091954.438000", "091954.441000", "091954.444000", "091954.447000", "091954.450000", "091954.453000", "091954.456000", "091954.459000", "091954.462000", "091954.464000", "091954.468000", "091954.470000", "091954.473000", "091954.476000", "091954.479000", "091954.482000", "091954.485000", "091954.488000", "091954.491000", "091954.494000", "091954.497000", "091954.500000", "091954.503000", "091954.506000", "091954.509000", "091954.512000", "092034.435000", "092034.438000", "092034.441000", "092034.444000", "092034.447000", "092034.450000", "092034.453000", "092034.456000", "092034.459000", "092034.462000", "092034.465000", "092034.467000", "092034.470000", "092034.473000", "092034.476000", "092034.479000", "092034.482000", "092034.485000", "092034.488000", "092034.491000", "092034.494000", "092034.497000", "092034.500000", "092034.503000", "092034.506000", "092034.509000", "092034.512000", "092114.435000", "092114.438000", "092114.441000", "092114.444000", "092114.447000", "092114.450000", "092114.453000", "092114.456000", "092114.459000", "092114.461000", "092114.481000", "092114.484000", "092114.486000", "092114.489000", "092114.492000", "092114.495000", "092114.498000", "092114.501000", "092114.504000", "092114.507000", "092114.510000", "092114.513000", "092114.516000", "092114.519000", "092114.522000", "092114.525000", "092114.528000", "092154.435000", "092154.438000", "092154.441000", "092154.444000", "092154.447000", "092154.450000", "092154.453000", "092154.456000", "092154.459000", "092154.462000", "092154.465000", "092154.468000", "092154.470000", "092154.473000", "092154.476000", "092154.479000", "092154.488000", "092154.491000", "092154.494000", "092154.497000", "092154.500000", "092154.503000", "092154.506000", "092154.509000", "092154.512000", "092154.515000", "092154.517000", "092214.435000", "092214.438000", "092214.441000", "092214.444000", "092214.447000", "092214.450000", "092214.453000", "092214.456000", "092214.459000", "092214.462000", "092214.465000", "092214.468000", "092214.470000", "092254.435000", "092254.438000", "092254.441000", "092254.444000", "092254.447000", "092254.450000", "092254.453000", "092254.456000", "092254.459000", "092254.462000", "092254.465000", "092254.468000", "092254.471000", "092254.474000", "092254.477000", "092254.480000", "092254.482000", "092254.485000", "092254.489000", "092254.492000", "092254.495000", "092254.498000", "092254.501000", "092254.504000", "092254.507000", "092254.510000", "092254.513000", "092334.435000", "092334.438000", "092334.441000", "092334.444000", "092334.447000", "092334.450000", "092334.453000", "092334.456000", "092334.459000", "092334.462000", "092334.465000", "092334.468000", "092334.471000", "092334.473000", "092334.476000", "092334.479000", "092334.482000", "092334.485000", "092334.488000", "092334.491000", "092334.494000", "092334.497000", "092334.500000", "092334.503000", "092334.506000", "092334.509000", "092334.511000", "092412.964000", "092412.968000", "092412.971000", "092412.974000", "092412.977000", "092412.981000", "092412.984000", "092412.987000", "092412.990000", "092412.993000", "092412.996000", "092413.000000", "092413.003000", "092413.006000", "092413.009000", "092413.012000", "092413.015000", "092413.018000", "092413.021000", "092413.024000", "092413.027000", "092413.030000", "092413.033000", "092413.036000", "092413.039000", "092413.042000"],
