{
  "AcquisitionMatrixPE": 104,
  "AcquisitionNumber": 1,
  "AcquisitionTime": "09:36:3.107500",
  "BandwidthPerPixelPhaseEncode": 17.17,
  "BaseResolution": 104,
  "BodyPartExamined": "BRAIN",
  "CoilString": "HC1-7;NC1_2",
  "ConsistencyInfo": "N4_VE11C_LATEST_20160120",
  "ConversionSoftware": "dcm2niix",
  "ConversionSoftwareVersion": "v1.0.20190902",
  "DerivedVendorReportedEchoSpacing": 0.000560011,
  "DeviceSerialNumber": "167006",
  "DwellTime": 2.1e-06,
  "EchoTime": 0.037,
  "EchoTrainLength": 104,
  "EffectiveEchoSpacing": 0.000560011,
  "FlipAngle": 52,
  "ImageComments": "Unaliased_MB4_PE3_LB",
  "ImageOrientationPatientDICOM": [0.999834, 0.0166316, 0.00742825, -0.0111687, 0.881913, -0.47128],
  "ImageType": [
    "ORIGINAL",
    "PRIMARY",
    "M",
    "MB",
    "ND",
    "MOSAIC"
],
  "ImagingFrequency": 123.259,
  "InPlanePhaseEncodingDirectionDICOM": "COL",
  "InstitutionAddress": "Chemin_Queen-Mary_4565_Montreal_District_CA_H3W_1W5",
  "InstitutionName": "IUGM",
  "InstitutionalDepartmentName": "Department",
  "MRAcquisitionType": "2D",
  "MagneticFieldStrength": 3,
  "Manufacturer": "Siemens",
  "ManufacturersModelName": "Prisma_fit",
  "Modality": "MR",
  "MultibandAccelerationFactor": 4,
  "PartialFourier": 1,
  "PatientPosition": "HFS",
  "PercentPhaseFOV": 100,
  "PhaseEncodingDirection": "j",
  "PhaseEncodingSteps": 104,
  "PhaseResolution": 1,
  "PixelBandwidth": 2290,
  "ProcedureStepDescription": "video_friends",
  "ProtocolName": "func_task-friends-s04e20a",
  "PulseSequenceDetails": "%CustomerSeq%_cmrr_mbep2d_bold",
  "ReceiveCoilActiveElements": "HC1-7;NC1,2",
  "ReceiveCoilName": "HeadNeck_64",
  "ReconMatrixPE": 104,
  "RepetitionTime": 1.49,
  "SAR": 0.0373174,
  "ScanOptions": "FS",
  "ScanningSequence": "EP",
  "SequenceName": "epfid2d1_104",
  "SequenceVariant": "SK_SS",
  "SeriesDescription": "func_task-friends-s04e20a",
  "SeriesNumber": 13,
  "ShimSetting": [616, -7213, -8861, 419, -29, -182, -14, -26],
  "SliceThickness": 2,
  "SliceTiming": [0, 0.7825, 0.0975, 0.8825, 0.195, 0.98, 0.295, 1.0775, 0.3925, 1.175, 0.49, 1.2725, 0.5875, 1.3725, 0.685, 0, 0.7825, 0.0975, 0.8825, 0.195, 0.98, 0.295, 1.0775, 0.3925, 1.175, 0.49, 1.2725, 0.5875, 1.3725, 0.685, 0, 0.7825, 0.0975, 0.8825, 0.195, 0.98, 0.295, 1.0775, 0.3925, 1.175, 0.49, 1.2725, 0.5875, 1.3725, 0.685, 0, 0.7825, 0.0975, 0.8825, 0.195, 0.98, 0.295, 1.0775, 0.3925, 1.175, 0.49, 1.2725, 0.5875, 1.3725, 0.685],
  "SoftwareVersions": "syngo_MR_E11",
  "SpacingBetweenSlices": 2,
  "StationName": "MRC35049",
  "TaskName": "s04e20a",
  "TotalReadoutTime": 0.0576811,
  "TxRefAmp": 253.805,
  "WipMemBlock": "4fa1e4aa-bb78-4644-9d00-334f4ff8b52e||Sequence: R016 ve11c/master r/e634e98; Dec 19 2017 11:00:25 by eja",
  "dcmmeta_affine": [
    [-1.9996682405471802, -0.022337354719638824, 0.028778403997421265, 103.21778869628906],
    [-0.03326317295432091, 1.7638256549835205, -0.9422380924224854, -60.85088348388672],
    [0.0148564912378788, 0.9425603747367859, 1.7639044523239136, -93.5000228881836],
    [0.0, 0.0, 0.0, 1.0]
],
  "dcmmeta_reorient_transform": [
    [0.0, -1.0, 0.0, 103.0],
    [1.0, 0.0, 0.0, 0.0],
    [0.0, 0.0, 1.0, 0.0],
    [0.0, 0.0, 0.0, 1.0]
],
  "dcmmeta_shape": [104, 104, 60, 447],
  "dcmmeta_slice_dim": 2,
  "dcmmeta_version": 0.6,
  "global": {
    "const": {
      "AcquisitionMatrix": [104, 0, 0, 104],
      "AngioFlag": "N",
      "BitsAllocated": 16,
      "BitsStored": 16,
      "BodyPartExamined": "BRAIN",
      "Columns": 832,
      "EchoNumbers": 1,
      "EchoTime": 37.0,
      "EchoTrainLength": 104,
      "FlipAngle": 52.0,
      "HighBit": 15,
      "ImageOrientationPatient": [0.99983409198707, 0.01663158639715, 0.00742824570873, -0.0111686772709, 0.88191282826727, -0.4712801968953],
      "ImagePositionPatient": [-820.66546561713, -774.96349142243, 341.26792107397],
      "ImageType": [
        "ORIGINAL",
        "PRIMARY",
        "M",
        "MB",
        "ND",
        "MOSAIC"
],
      "ImagedNucleus": "1H",
      "ImagingFrequency": 123.259015,
      "InPlanePhaseEncodingDirection": "COL",
      "MRAcquisitionType": "2D",
      "MagneticFieldStrength": 3.0,
      "Manufacturer": "SIEMENS",
      "ManufacturerModelName": "Prisma_fit",
      "Modality": "MR",
      "NumberOfAverages": 1.0,
      "NumberOfPhaseEncodingSteps": 104,
      "PercentPhaseFieldOfView": 100.0,
      "PercentSampling": 100.0,
      "PerformedProcedureStepStartTime": "090419.904000",
      "PhotometricInterpretation": "MONOCHROME2",
      "PixelBandwidth": 2290.0,
      "PixelRepresentation": 0,
      "PixelSpacing": [2.0, 2.0],
      "ProtocolName": "func_task-friends-s04e20a",
      "RepetitionTime": 1490.0,
      "Rows": 832,
      "SAR": 0.03731741809516,
      "SamplesPerPixel": 1,
      "ScanOptions": "FS",
      "ScanningSequence": "EP",
      "SequenceName": "epfid2d1_104",
      "SequenceVariant": [
        "SK",
        "SS"
],
      "SeriesDescription": "func_task-friends-s04e20a",
      "SeriesNumber": 13,
      "SeriesTime": "093723.125000",
      "SliceLocation": -52.309321837122,
      "SliceThickness": 2.0,
      "SmallestImagePixelValue": 0,
      "SoftwareVersions": "syngo MR E11",
      "SpacingBetweenSlices": 1.9999999767293,
      "SpecificCharacterSet": "ISO_IR 100",
      "StudyID": "1",
      "StudyTime": "090419.734000",
      "TransmitCoilName": "Body",
      "VariableFlipAngleFlag": "N",
      "WindowCenterWidthExplanation": "Algo1",
      "dBdt": 0.0},
    "slices": {}
  },
  "time": {
    "samples": {
      "AcquisitionNumber": [1, 2, 3, 4, 5, 6, 7, 8, 9, 10, 11, 12, 13, 14, 15, 16, 17, 18, 19, 20, 21, 22, 23, 24, 25, 26, 27, 28, 29, 30, 31, 32, 33, 34, 35, 36, 37, 38, 39, 40, 41, 42, 43, 44, 45, 46, 47, 48, 49, 50, 51, 52, 53, 54, 55, 56, 57, 58, 59, 60, 61, 62, 63, 64, 65, 66, 67, 68, 69, 70, 71, 72, 73, 74, 75, 76, 77, 78, 79, 80, 81, 82, 83, 84, 85, 86, 87, 88, 89, 90, 91, 92, 93, 94, 95, 96, 97, 98, 99, 100, 101, 102, 103, 104, 105, 106, 107, 108, 109, 110, 111, 112, 113, 114, 115, 116, 117, 118, 119, 120, 121, 122, 123, 124, 125, 126, 127, 128, 129, 130, 131, 132, 133, 134, 135, 136, 137, 138, 139, 140, 141, 142, 143, 144, 145, 146, 147, 148, 149, 150, 151, 152, 153, 154, 155, 156, 157, 158, 159, 160, 161, 162, 163, 164, 165, 166, 167, 168, 169, 170, 171, 172, 173, 174, 175, 176, 177, 178, 179, 180, 181, 182, 183, 184, 185, 186, 187, 188, 189, 190, 191, 192, 193, 194, 195, 196, 197, 198, 199, 200, 201, 202, 203, 204, 205, 206, 207, 208, 209, 210, 211, 212, 213, 214, 215, 216, 217, 218, 219, 220, 221, 222, 223, 224, 225, 226, 227, 228, 229, 230, 231, 232, 233, 234, 235, 236, 237, 238, 239, 240, 241, 242, 243, 244, 245, 246, 247, 248, 249, 250, 251, 252, 253, 254, 255, 256, 257, 258, 259, 260, 261, 262, 263, 264, 265, 266, 267, 268, 269, 270, 271, 272, 273, 274, 275, 276, 277, 278, 279, 280, 281, 282, 283, 284, 285, 286, 287, 288, 289, 290, 291, 292, 293, 294, 295, 296, 297, 298, 299, 300, 301, 302, 303, 304, 305, 306, 307, 308, 309, 310, 311, 312, 313, 314, 315, 316, 317, 318, 319, 320, 321, 322, 323, 324, 325, 326, 327, 328, 329, 330, 331, 332, 333, 334, 335, 336, 337, 338, 339, 340, 341, 342, 343, 344, 345, 346, 347, 348, 349, 350, 351, 352, 353, 354, 355, 356, 357, 358, 359, 360, 361, 362, 363, 364, 365, 366, 367, 368, 369, 370, 371, 372, 373, 374, 375, 376, 377, 378, 379, 380, 381, 382, 383, 384, 385, 386, 387, 388, 389, 390, 391, 392, 393, 394, 395, 396, 397, 398, 399, 400, 401, 402, 403, 404, 405, 406, 407, 408, 409, 410, 411, 412, 413, 414, 415, 416, 417, 418, 419, 420, 421, 422, 423, 424, 425, 426, 427, 428, 429, 430, 431, 432, 433, 434, 435, 436, 437, 438, 439, 440, 441, 442, 443, 444, 445, 446, 447],
      "AcquisitionTime": ["093603.107500", "093604.597500", "093606.087500", "093607.577500", "093609.067500", "093610.557500", "093612.047500", "093613.537500", "093615.027500", "093616.517500", "093618.007500", "093619.497500", "093620.987500", "093622.477500", "093623.967500", "093625.457500", "093626.947500", "093628.437500", "093629.927500", "093631.417500", "093632.907500", "093634.397500", "093635.887500", "093637.377500", "093638.867500", "093640.357500", "093641.847500", "093643.337500", "093644.827500", "093646.317500", "093647.807500", "093649.297500", "093650.787500", "093652.277500", "093653.767500", "093655.257500", "093656.747500", "093658.237500", "093659.727500", "093701.217500", "093702.707500", "093704.197500", "093705.687500", "093707.177500", "093708.667500", "093710.157500", "093711.647500", "093713.137500", "093714.627500", "093716.117500", "093717.607500", "093719.097500", "093720.587500", "093722.077500", "093723.567500", "093725.057500", "093726.547500", "093728.037500", "093729.527500", "093731.017500", "093732.507500", "093733.997500", "093735.487500", "093736.977500", "093738.467500", "093739.957500", "093741.447500", "093742.937500", "093744.427500", "093745.917500", "093747.407500", "093748.897500", "093750.387500", "093751.877500", "093753.367500", "093754.857500", "093756.347500", "093757.837500", "093759.327500", "093800.817500", "093802.307500", "093803.797500", "093805.287500", "093806.777500", "093808.267500", "093809.757500", "093811.247500", "093812.737500", "093814.227500", "093815.717500", "093817.207500", "093818.697500", "093820.187500", "093821.677500", "093823.167500", "093824.657500", "093826.147500", "093827.637500", "093829.127500", "093830.617500", "093832.107500", "093833.597500", "093835.087500", "093836.577500", "093838.067500", "093839.557500", "093841.047500", "093842.537500", "093844.027500", "093845.517500", "093847.007500", "093848.497500", "093849.987500", "093851.477500", "093852.967500", "093854.457500", "093855.947500", "093857.437500", "093858.927500", "093900.417500", "093901.907500", "093903.397500", "093904.887500", "093906.377500", "093907.867500", "093909.357500", "093910.847500", "093912.337500", "093913.827500", "093915.317500", "093916.807500", "093918.297500", "093919.787500", "093921.277500", "093922.767500", "093924.257500", "093925.747500", "093927.237500", "093928.727500", "093930.217500", "093931.707500", "093933.197500", "093934.687500", "093936.177500", "093937.667500", "093939.157500", "093940.647500", "093942.137500", "093943.627500", "093945.117500", "093946.607500", "093948.097500", "093949.587500", "093951.077500", "093952.567500", "093954.057500", "093955.547500", "093957.037500", "093958.527500", "094000.017500", "094001.507500", "094002.997500", "094004.487500", "094005.977500", "094007.467500", "094008.957500", "094010.447500", "094011.937500", "094013.427500", "094014.917500", "094016.407500", "094017.897500", "094019.387500", "094020.877500", "094022.367500", "094023.857500", "094025.347500", "094026.837500", "094028.327500", "094029.817500", "094031.307500", "094032.797500", "094034.287500", "094035.777500", "094037.267500", "094038.757500", "094040.247500", "094041.737500", "094043.227500", "094044.717500", "094046.207500", "094047.697500", "094049.187500", "094050.677500", "094052.167500", "094053.657500", "094055.147500", "094056.637500", "094058.127500", "094059.617500", "094101.107500", "094102.597500", "094104.087500", "094105.577500", "094107.067500", "094108.557500", "094110.047500", "094111.537500", "094113.027500", "094114.517500", "094116.007500", "094117.497500", "094118.987500", "094120.477500", "094121.967500", "094123.457500", "094124.947500", "094126.437500", "094127.927500", "094129.417500", "094130.907500", "094132.397500", "094133.887500", "094135.377500", "094136.867500", "094138.357500", "094139.847500", "094141.337500", "094142.827500", "094144.317500", "094145.807500", "094147.297500", "094148.787500", "094150.277500", "094151.767500", "094153.257500", "094154.747500", "094156.237500", "094157.727500", "094159.217500", "094200.707500", "094202.197500", "094203.687500", "094205.177500", "094206.667500", "094208.157500", "094209.647500", "094211.137500", "094212.627500", "094214.117500", "094215.607500", "094217.097500", "094218.587500", "094220.077500", "094221.567500", "094223.057500", "094224.547500", "094226.037500", "094227.527500", "094229.017500", "094230.507500", "094231.997500", "094233.487500", "094234.977500", "094236.467500", "094237.957500", "094239.447500", "094240.937500", "094242.427500", "094243.917500", "094245.407500", "094246.897500", "094248.387500", "094249.877500", "094251.367500", "094252.857500", "094254.347500", "094255.837500", "094257.327500", "094258.817500", "094300.307500", "094301.797500", "094303.287500", "094304.777500", "094306.267500", "094307.757500", "094309.247500", "094310.737500", "094312.227500", "094313.717500", "094315.207500", "094316.697500", "094318.187500", "094319.677500", "094321.167500", "094322.657500", "094324.147500", "094325.637500", "094327.127500", "094328.617500", "094330.107500", "094331.597500", "094333.087500", "094334.577500", "094336.067500", "094337.557500", "094339.047500", "094340.537500", "094342.027500", "094343.517500", "094345.007500", "094346.497500", "094347.987500", "094349.477500", "094350.967500", "094352.457500", "094353.947500", "094355.437500", "094356.927500", "094358.417500", "094359.907500", "094401.397500", "094402.887500", "094404.377500", "094405.867500", "094407.357500", "094408.847500", "094410.337500", "094411.827500", "094413.317500", "094414.807500", "094416.297500", "094417.787500", "094419.277500", "094420.767500", "094422.257500", "094423.747500", "094425.237500", "094426.727500", "094428.217500", "094429.707500", "094431.197500", "094432.687500", "094434.177500", "094435.667500", "094437.157500", "094438.647500", "094440.137500", "094441.627500", "094443.117500", "094444.607500", "094446.097500", "094447.587500", "094449.077500", "094450.567500", "094452.057500", "094453.547500", "094455.037500", "094456.527500", "094458.017500", "094459.507500", "094500.997500", "094502.487500", "094503.977500", "094505.467500", "094506.957500", "094508.447500", "094509.937500", "094511.427500", "094512.917500", "094514.407500", "094515.897500", "094517.387500", "094518.877500", "094520.367500", "094521.857500", "094523.347500", "094524.837500", "094526.327500", "094527.817500", "094529.307500", "094530.797500", "094532.287500", "094533.777500", "094535.267500", "094536.757500", "094538.247500", "094539.737500", "094541.227500", "094542.717500", "094544.207500", "094545.697500", "094547.187500", "094548.677500", "094550.167500", "094551.657500", "094553.147500", "094554.637500", "094556.127500", "094557.617500", "094559.107500", "094600.597500", "094602.087500", "094603.577500", "094605.067500", "094606.557500", "094608.047500", "094609.537500", "094611.027500", "094612.517500", "094614.007500", "094615.497500", "094616.987500", "094618.477500", "094619.967500", "094621.457500", "094622.947500", "094624.437500", "094625.927500", "094627.417500", "094628.907500", "094630.397500", "094631.887500", "094633.377500", "094634.867500", "094636.357500", "094637.847500", "094639.337500", "094640.827500", "094642.317500", "094643.807500", "094645.297500", "094646.787500", "094648.277500", "094649.767500", "094651.257500", "094652.747500", "094654.237500", "094655.727500", "094657.217500", "094658.707500", "094700.197500", "094701.687500", "094703.177500", "094704.667500", "094706.157500", "094707.647500"],
      "ContentTime": ["093723.128000", "093723.131000", "093723.134000", "093723.138000", "093723.141000", "093723.144000", "093723.147000", "093723.159000", "093723.162000", "093723.165000", "093723.168000", "093723.171000", "093723.174000", "093723.176000", "093723.179000", "093723.182000", "093723.185000", "093723.188000", "093723.191000", "093723.203000", "093723.206000", "093723.215000", "093723.218000", "093723.221000", "093723.224000", "093723.226000", "093743.085000", "093743.088000", "093743.091000", "093743.094000", "093743.097000", "093743.099000", "093743.102000", "093743.108000", "093743.110000", "093743.113000", "093743.116000", "093743.119000", "093743.122000", "093743.125000", "093743.128000", "093743.131000", "093743.134000", "093743.137000", "093743.139000", "093743.142000", "093743.145000", "093803.085000", "093803.088000", "093803.091000", "093803.094000", "093803.097000", "093803.100000", "093803.102000", "093803.105000", "093803.108000", "093803.111000", "093803.114000", "093803.117000", "093803.120000", "093803.123000", "093803.126000", "093803.128000", "093803.131000", "093803.136000", "093803.139000", "093803.142000", "093823.085000", "093823.088000", "093823.091000", "093823.094000", "093823.097000", "093823.099000", "093823.102000", "093823.111000", "093823.114000", "093823.117000", "093823.120000", "093823.123000", "093823.126000", "093823.129000", "093823.131000", "093823.134000", "093823.137000", "093823.140000", "093823.143000", "093823.146000", "093843.086000", "093843.089000", "093843.092000", "093843.095000", "093843.098000", "093843.100000", "093843.103000", "093843.106000", "093843.109000", "093843.112000", "093843.115000", "093843.118000", "093843.121000", "093843.123000", "093843.126000", "093843.129000", "093843.132000", "093843.135000", "093843.138000", "093843.141000", "093923.086000", "093923.089000", "093923.092000", "093923.095000", "093923.098000", "093923.101000", "093923.104000", "093923.106000", "093923.109000", "093923.112000", "093923.115000", "093923.118000", "093923.121000", "093923.124000", "093923.127000", "093923.130000", "093923.133000", "093923.136000", "093923.139000", "093923.142000", "093923.145000", "093923.148000", "093923.151000", "093923.154000", "093923.157000", "093923.159000", "094003.085000", "094003.088000", "094003.091000", "094003.094000", "094003.097000", "094003.099000", "094003.102000", "094003.105000", "094003.108000", "094003.111000", "094003.114000", "094003.117000", "094003.120000", "094003.123000", "094003.126000", "094003.129000", "094003.131000", "094003.134000", "094003.137000", "094003.140000", "094003.143000", "094003.146000", "094003.149000", "094003.170000", "094003.173000", "094003.176000", "094003.179000", "094043.086000", "094043.089000", "094043.092000", "094043.095000", "094043.098000", "094043.101000", "094043.104000", "094043.107000", "094043.110000", "094043.113000", "094043.116000", "094043.119000", "094043.122000", "094043.125000", "094043.128000", "094043.131000", "094043.134000", "094043.136000", "094043.139000", "094043.142000", "094043.145000", "094043.148000", "094043.151000", "094043.154000", "094043.157000", "094043.160000", "094043.163000", "094123.086000", "094123.089000", "094123.092000", "094123.095000", "094123.098000", "094123.101000", "094123.104000", "094123.107000", "094123.110000", "094123.112000", "094123.115000", "094123.118000", "094123.121000", "094123.124000", "094123.127000", "094123.130000", "094123.133000", "094123.136000", "094123.139000", "094123.141000", "094123.144000", "094123.147000", "094123.150000", "094123.153000", "094123.156000", "094123.159000", "094123.162000", "094203.086000", "094203.089000", "094203.092000", "094203.095000", "094203.098000", "094203.103000", "094203.106000", "094203.109000", "094203.112000", "094203.115000", "094203.118000", "094203.121000", "094203.124000", "094203.127000", "094203.130000", "094203.133000", "094203.136000", "094203.139000", "094203.142000", "094203.145000", "094203.148000", "094203.151000", "094203.154000", "094203.156000", "094203.159000", "094203.162000", "094203.165000", "094243.085000", "094243.088000", "094243.091000", "094243.094000", "094243.097000", "094243.100000", "094243.103000", "094243.106000", "094243.108000", "094243.111000", "094243.114000", "094243.117000", "094243.120000", "094243.123000", "094243.126000", "094243.129000", "094243.132000", "094243.135000", "094243.137000", "094243.140000", "094243.143000", "094243.146000", "094243.149000", "094243.152000", "094243.155000", "094243.158000", "094243.161000", "094323.086000", "094323.089000", "094323.092000", "094323.095000", "094323.098000", "094323.108000", "094323.111000", "094323.114000", "094323.117000", "094323.120000", "094323.123000", "094323.126000", "094323.129000", "094323.131000", "094323.134000", "094323.137000", "094323.140000", "094323.143000", "094323.146000", "094323.149000", "094323.152000", "094323.155000", "094323.158000", "094323.161000", "094323.164000", "094323.167000", "094403.086000", "094403.089000", "094403.092000", "094403.095000", "094403.098000", "094403.101000", "094403.104000", "094403.107000", "094403.110000", "094403.113000", "094403.115000", "094403.118000", "094403.121000", "094403.124000", "094403.127000", "094403.130000", "094403.133000", "094403.136000", "094403.139000", "094403.142000", "094403.145000", "094403.148000", "094403.161000", "094403.164000", "094403.167000", "094403.169000", "094403.172000", "094443.085000", "094443.088000", "094443.091000", "094443.094000", "094443.097000", "094443.100000", "094443.103000", "094443.106000", "094443.109000", "094443.112000", "094443.115000", "094443.117000", "094443.120000", "094443.123000", "094443.126000", "094443.129000", "094443.132000", "094443.135000", "094443.138000", "094443.141000", "094443.144000", "094443.147000", "094443.150000", "094443.153000", "094443.156000", "094443.159000", "094443.162000", "094523.086000", "094523.089000", "094523.092000", "094523.095000", "094523.112000", "094523.115000", "094523.118000", "094523.121000", "094523.124000", "094523.126000", "094523.129000", "094523.132000", "094523.135000", "094523.138000", "094523.141000", "094523.152000", "094523.155000", "094523.158000", "094523.161000", "094523.164000", "094523.167000", "094523.170000", "094523.173000", "094523.175000", "094523.178000", "094523.181000", "094523.184000", "094603.086000", "094603.089000", "094603.110000", "094603.113000", "094603.116000", "094603.119000", "094603.122000", "094603.125000", "094603.128000", "094603.131000", "094603.134000", "094603.136000", "094603.139000", "094603.142000", "094603.145000", "094603.148000", "094603.151000", "094603.154000", "094603.157000", "094603.160000", "094603.163000", "094603.166000", "094603.169000", "094603.172000", "094603.175000", "094603.177000", "094603.180000", "094643.086000", "094643.089000", "094643.092000", "094643.095000", "094643.098000", "094643.101000", "094643.104000", "094643.106000", "094643.109000", "094643.112000", "094643.115000", "094643.118000", "094643.121000", "094643.124000", "094643.127000", "094643.130000", "094643.133000", "094643.136000", "094643.146000", "094643.148000", "094643.151000", "094643.154000", "094643.157000", "094643.160000", "094643.163000", "094643.166000", "094643.169000", "094709.633000", "094709.636000", "094709.639000", "094709.642000", "094709.645000", "094709.648000", "094709.651000", "094709.654000", "094709.657000", "094709.660000", "094709.663000", "094709.666000", "094709.669000", "094709.672000", "094709.675000", "094709.678000", "094709.681000", "094709.684000"],
