{
  "AcquisitionMatrixPE": 104,
  "AcquisitionNumber": 1,
  "AcquisitionTime": "09:59:14.245000",
  "BandwidthPerPixelPhaseEncode": 17.17,
  "BaseResolution": 104,
  "BodyPartExamined": "BRAIN",
  "CoilString": "HC1-7;NC1_2",
  "ConsistencyInfo": "N4_VE11C_LATEST_20160120",
  "ConversionSoftware": "dcm2niix",
  "ConversionSoftwareVersion": "v1.0.20190902",
  "DerivedVendorReportedEchoSpacing": 0.000560011,
  "DeviceSerialNumber": "167006",
  "DwellTime": 2.1e-06,
  "EchoTime": 0.037,
  "EchoTrainLength": 104,
  "EffectiveEchoSpacing": 0.000560011,
  "FlipAngle": 52,
  "ImageComments": "Unaliased_MB4_PE3_LB",
  "ImageOrientationPatientDICOM": [0.999834, 0.0166316, 0.00742825, -0.0111687, 0.881913, -0.47128],
  "ImageType": [
    "ORIGINAL",
    "PRIMARY",
    "M",
    "MB",
    "ND",
    "MOSAIC"
],
  "ImagingFrequency": 123.259,
  "InPlanePhaseEncodingDirectionDICOM": "COL",
  "InstitutionAddress": "Chemin_Queen-Mary_4565_Montreal_District_CA_H3W_1W5",
  "InstitutionName": "IUGM",
  "InstitutionalDepartmentName": "Department",
  "MRAcquisitionType": "2D",
  "MagneticFieldStrength": 3,
  "Manufacturer": "Siemens",
  "ManufacturersModelName": "Prisma_fit",
  "Modality": "MR",
  "MultibandAccelerationFactor": 4,
  "PartialFourier": 1,
  "PatientPosition": "HFS",
  "PercentPhaseFOV": 100,
  "PhaseEncodingDirection": "j",
  "PhaseEncodingSteps": 104,
  "PhaseResolution": 1,
  "PixelBandwidth": 2290,
  "ProcedureStepDescription": "video_friends",
  "ProtocolName": "func_task-friends-s04e21a",
  "PulseSequenceDetails": "%CustomerSeq%_cmrr_mbep2d_bold",
  "ReceiveCoilActiveElements": "HC1-7;NC1,2",
  "ReceiveCoilName": "HeadNeck_64",
  "ReconMatrixPE": 104,
  "RepetitionTime": 1.49,
  "SAR": 0.0373178,
  "ScanOptions": "FS",
  "ScanningSequence": "EP",
  "SequenceName": "epfid2d1_104",
  "SequenceVariant": "SK_SS",
  "SeriesDescription": "func_task-friends-s04e21a",
  "SeriesNumber": 17,
  "ShimSetting": [616, -7213, -8861, 419, -29, -182, -14, -26],
  "SliceThickness": 2,
  "SliceTiming": [0, 0.7825, 0.0975, 0.88, 0.195, 0.98, 0.2925, 1.0775, 0.39, 1.175, 0.49, 1.2725, 0.5875, 1.37, 0.685, 0, 0.7825, 0.0975, 0.88, 0.195, 0.98, 0.2925, 1.0775, 0.39, 1.175, 0.49, 1.2725, 0.5875, 1.37, 0.685, 0, 0.7825, 0.0975, 0.88, 0.195, 0.98, 0.2925, 1.0775, 0.39, 1.175, 0.49, 1.2725, 0.5875, 1.37, 0.685, 0, 0.7825, 0.0975, 0.88, 0.195, 0.98, 0.2925, 1.0775, 0.39, 1.175, 0.49, 1.2725, 0.5875, 1.37, 0.685],
  "SoftwareVersions": "syngo_MR_E11",
  "SpacingBetweenSlices": 2,
  "StationName": "MRC35049",
  "TaskName": "s04e21a",
  "TotalReadoutTime": 0.0576811,
  "TxRefAmp": 253.805,
  "WipMemBlock": "203d42fb-1b1b-4c5a-946a-3c99dc72a98b||Sequence: R016 ve11c/master r/e634e98; Dec 19 2017 11:00:25 by eja",
  "dcmmeta_affine": [
    [-1.9996682405471802, -0.022337354719638824, 0.028778403997421265, 103.21778869628906],
    [-0.03326317295432091, 1.7638256549835205, -0.9422380924224854, -60.85088348388672],
    [0.0148564912378788, 0.9425603747367859, 1.7639044523239136, -93.5000228881836],
    [0.0, 0.0, 0.0, 1.0]
],
  "dcmmeta_reorient_transform": [
    [0.0, -1.0, 0.0, 103.0],
    [1.0, 0.0, 0.0, 0.0],
    [0.0, 0.0, 1.0, 0.0],
    [0.0, 0.0, 0.0, 1.0]
],
  "dcmmeta_shape": [104, 104, 60, 448],
  "dcmmeta_slice_dim": 2,
  "dcmmeta_version": 0.6,
  "global": {
    "const": {
      "AcquisitionMatrix": [104, 0, 0, 104],
      "AngioFlag": "N",
      "BitsAllocated": 16,
      "BitsStored": 16,
      "BodyPartExamined": "BRAIN",
      "Columns": 832,
      "EchoNumbers": 1,
      "EchoTime": 37.0,
      "EchoTrainLength": 104,
      "FlipAngle": 52.0,
      "HighBit": 15,
      "ImageOrientationPatient": [0.99983409198707, 0.01663158639715, 0.00742824570873, -0.0111686772709, 0.88191282826727, -0.4712801968953],
      "ImagePositionPatient": [-820.66546561713, -774.96349142243, 341.26792107397],
      "ImageType": [
        "ORIGINAL",
        "PRIMARY",
        "M",
        "MB",
        "ND",
        "MOSAIC"
],
      "ImagedNucleus": "1H",
      "ImagingFrequency": 123.259022,
      "InPlanePhaseEncodingDirection": "COL",
      "MRAcquisitionType": "2D",
      "MagneticFieldStrength": 3.0,
      "Manufacturer": "SIEMENS",
      "ManufacturerModelName": "Prisma_fit",
      "Modality": "MR",
      "NumberOfAverages": 1.0,
      "NumberOfPhaseEncodingSteps": 104,
      "PercentPhaseFieldOfView": 100.0,
      "PercentSampling": 100.0,
      "PerformedProcedureStepStartTime": "090419.904000",
      "PhotometricInterpretation": "MONOCHROME2",
      "PixelBandwidth": 2290.0,
      "PixelRepresentation": 0,
      "PixelSpacing": [2.0, 2.0],
      "ProtocolName": "func_task-friends-s04e21a",
      "RepetitionTime": 1490.0,
      "Rows": 832,
      "SAR": 0.03731778263265,
      "SamplesPerPixel": 1,
      "ScanOptions": "FS",
      "ScanningSequence": "EP",
      "SequenceName": "epfid2d1_104",
      "SequenceVariant": [
        "SK",
        "SS"
],
      "SeriesDescription": "func_task-friends-s04e21a",
      "SeriesNumber": 17,
      "SeriesTime": "100043.262000",
      "SliceLocation": -52.309321837122,
      "SliceThickness": 2.0,
      "SmallestImagePixelValue": 0,
      "SoftwareVersions": "syngo MR E11",
      "SpacingBetweenSlices": 1.9999999767293,
      "SpecificCharacterSet": "ISO_IR 100",
      "StudyID": "1",
      "StudyTime": "090419.734000",
      "TransmitCoilName": "Body",
      "VariableFlipAngleFlag": "N",
      "WindowCenterWidthExplanation": "Algo1",
      "dBdt": 0.0},
    "slices": {}
  },
  "time": {
    "samples": {
      "AcquisitionNumber": [1, 2, 3, 4, 5, 6, 7, 8, 9, 10, 11, 12, 13, 14, 15, 16, 17, 18, 19, 20, 21, 22, 23, 24, 25, 26, 27, 28, 29, 30, 31, 32, 33, 34, 35, 36, 37, 38, 39, 40, 41, 42, 43, 44, 45, 46, 47, 48, 49, 50, 51, 52, 53, 54, 55, 56, 57, 58, 59, 60, 61, 62, 63, 64, 65, 66, 67, 68, 69, 70, 71, 72, 73, 74, 75, 76, 77, 78, 79, 80, 81, 82, 83, 84, 85, 86, 87, 88, 89, 90, 91, 92, 93, 94, 95, 96, 97, 98, 99, 100, 101, 102, 103, 104, 105, 106, 107, 108, 109, 110, 111, 112, 113, 114, 115, 116, 117, 118, 119, 120, 121, 122, 123, 124, 125, 126, 127, 128, 129, 130, 131, 132, 133, 134, 135, 136, 137, 138, 139, 140, 141, 142, 143, 144, 145, 146, 147, 148, 149, 150, 151, 152, 153, 154, 155, 156, 157, 158, 159, 160, 161, 162, 163, 164, 165, 166, 167, 168, 169, 170, 171, 172, 173, 174, 175, 176, 177, 178, 179, 180, 181, 182, 183, 184, 185, 186, 187, 188, 189, 190, 191, 192, 193, 194, 195, 196, 197, 198, 199, 200, 201, 202, 203, 204, 205, 206, 207, 208, 209, 210, 211, 212, 213, 214, 215, 216, 217, 218, 219, 220, 221, 222, 223, 224, 225, 226, 227, 228, 229, 230, 231, 232, 233, 234, 235, 236, 237, 238, 239, 240, 241, 242, 243, 244, 245, 246, 247, 248, 249, 250, 251, 252, 253, 254, 255, 256, 257, 258, 259, 260, 261, 262, 263, 264, 265, 266, 267, 268, 269, 270, 271, 272, 273, 274, 275, 276, 277, 278, 279, 280, 281, 282, 283, 284, 285, 286, 287, 288, 289, 290, 291, 292, 293, 294, 295, 296, 297, 298, 299, 300, 301, 302, 303, 304, 305, 306, 307, 308, 309, 310, 311, 312, 313, 314, 315, 316, 317, 318, 319, 320, 321, 322, 323, 324, 325, 326, 327, 328, 329, 330, 331, 332, 333, 334, 335, 336, 337, 338, 339, 340, 341, 342, 343, 344, 345, 346, 347, 348, 349, 350, 351, 352, 353, 354, 355, 356, 357, 358, 359, 360, 361, 362, 363, 364, 365, 366, 367, 368, 369, 370, 371, 372, 373, 374, 375, 376, 377, 378, 379, 380, 381, 382, 383, 384, 385, 386, 387, 388, 389, 390, 391, 392, 393, 394, 395, 396, 397, 398, 399, 400, 401, 402, 403, 404, 405, 406, 407, 408, 409, 410, 411, 412, 413, 414, 415, 416, 417, 418, 419, 420, 421, 422, 423, 424, 425, 426, 427, 428, 429, 430, 431, 432, 433, 434, 435, 436, 437, 438, 439, 440, 441, 442, 443, 444, 445, 446, 447, 448],
      "AcquisitionTime": ["095914.245000", "095915.735000", "095917.225000", "095918.715000", "095920.205000", "095921.695000", "095923.185000", "095924.675000", "095926.165000", "095927.655000", "095929.145000", "095930.635000", "095932.125000", "095933.615000", "095935.105000", "095936.595000", "095938.085000", "095939.575000", "095941.065000", "095942.555000", "095944.045000", "095945.535000", "095947.025000", "095948.515000", "095950.005000", "095951.495000", "095952.985000", "095954.475000", "095955.965000", "095957.455000", "095958.945000", "100000.435000", "100001.925000", "100003.415000", "100004.905000", "100006.395000", "100007.885000", "100009.375000", "100010.865000", "100012.355000", "100013.845000", "100015.335000", "100016.825000", "100018.315000", "100019.805000", "100021.295000", "100022.785000", "100024.275000", "100025.765000", "100027.255000", "100028.745000", "100030.235000", "100031.725000", "100033.215000", "100034.705000", "100036.195000", "100037.685000", "100039.175000", "100040.665000", "100042.155000", "100043.645000", "100045.135000", "100046.625000", "100048.115000", "100049.605000", "100051.095000", "100052.585000", "100054.075000", "100055.565000", "100057.055000", "100058.545000", "100100.035000", "100101.525000", "100103.015000", "100104.505000", "100105.995000", "100107.485000", "100108.975000", "100110.465000", "100111.955000", "100113.445000", "100114.935000", "100116.425000", "100117.915000", "100119.405000", "100120.895000", "100122.385000", "100123.875000", "100125.365000", "100126.855000", "100128.345000", "100129.835000", "100131.325000", "100132.815000", "100134.305000", "100135.795000", "100137.285000", "100138.775000", "100140.265000", "100141.755000", "100143.245000", "100144.735000", "100146.225000", "100147.715000", "100149.205000", "100150.695000", "100152.185000", "100153.675000", "100155.165000", "100156.655000", "100158.145000", "100159.635000", "100201.125000", "100202.615000", "100204.105000", "100205.595000", "100207.085000", "100208.575000", "100210.065000", "100211.555000", "100213.045000", "100214.535000", "100216.025000", "100217.515000", "100219.005000", "100220.495000", "100221.985000", "100223.475000", "100224.965000", "100226.455000", "100227.945000", "100229.435000", "100230.925000", "100232.415000", "100233.905000", "100235.395000", "100236.885000", "100238.375000", "100239.865000", "100241.355000", "100242.845000", "100244.335000", "100245.825000", "100247.315000", "100248.805000", "100250.295000", "100251.785000", "100253.275000", "100254.765000", "100256.255000", "100257.745000", "100259.235000", "100300.725000", "100302.215000", "100303.705000", "100305.195000", "100306.685000", "100308.175000", "100309.665000", "100311.155000", "100312.645000", "100314.135000", "100315.625000", "100317.115000", "100318.605000", "100320.095000", "100321.585000", "100323.075000", "100324.565000", "100326.055000", "100327.545000", "100329.035000", "100330.525000", "100332.015000", "100333.505000", "100334.995000", "100336.485000", "100337.975000", "100339.465000", "100340.955000", "100342.445000", "100343.935000", "100345.425000", "100346.915000", "100348.405000", "100349.895000", "100351.385000", "100352.875000", "100354.365000", "100355.855000", "100357.345000", "100358.835000", "100400.325000", "100401.815000", "100403.305000", "100404.795000", "100406.285000", "100407.775000", "100409.265000", "100410.755000", "100412.245000", "100413.735000", "100415.225000", "100416.715000", "100418.205000", "100419.695000", "100421.185000", "100422.675000", "100424.165000", "100425.655000", "100427.145000", "100428.635000", "100430.125000", "100431.615000", "100433.105000", "100434.595000", "100436.085000", "100437.575000", "100439.065000", "100440.555000", "100442.045000", "100443.535000", "100445.025000", "100446.515000", "100448.005000", "100449.495000", "100450.985000", "100452.475000", "100453.965000", "100455.455000", "100456.945000", "100458.435000", "100459.925000", "100501.415000", "100502.905000", "100504.395000", "100505.885000", "100507.375000", "100508.865000", "100510.355000", "100511.845000", "100513.335000", "100514.825000", "100516.315000", "100517.805000", "100519.295000", "100520.785000", "100522.275000", "100523.765000", "100525.255000", "100526.745000", "100528.235000", "100529.725000", "100531.215000", "100532.705000", "100534.195000", "100535.685000", "100537.175000", "100538.665000", "100540.155000", "100541.645000", "100543.135000", "100544.625000", "100546.115000", "100547.605000", "100549.095000", "100550.585000", "100552.075000", "100553.565000", "100555.055000", "100556.545000", "100558.035000", "100559.525000", "100601.015000", "100602.505000", "100603.995000", "100605.485000", "100606.975000", "100608.465000", "100609.955000", "100611.445000", "100612.935000", "100614.425000", "100615.915000", "100617.405000", "100618.895000", "100620.385000", "100621.875000", "100623.365000", "100624.855000", "100626.345000", "100627.835000", "100629.325000", "100630.815000", "100632.305000", "100633.795000", "100635.285000", "100636.775000", "100638.265000", "100639.755000", "100641.245000", "100642.735000", "100644.225000", "100645.715000", "100647.205000", "100648.695000", "100650.185000", "100651.675000", "100653.165000", "100654.655000", "100656.145000", "100657.635000", "100659.125000", "100700.615000", "100702.105000", "100703.595000", "100705.085000", "100706.575000", "100708.065000", "100709.555000", "100711.045000", "100712.535000", "100714.025000", "100715.515000", "100717.005000", "100718.495000", "100719.985000", "100721.475000", "100722.965000", "100724.455000", "100725.945000", "100727.435000", "100728.925000", "100730.415000", "100731.905000", "100733.395000", "100734.885000", "100736.375000", "100737.865000", "100739.355000", "100740.845000", "100742.335000", "100743.825000", "100745.315000", "100746.805000", "100748.295000", "100749.785000", "100751.275000", "100752.765000", "100754.255000", "100755.745000", "100757.235000", "100758.725000", "100800.215000", "100801.705000", "100803.195000", "100804.685000", "100806.175000", "100807.665000", "100809.155000", "100810.645000", "100812.135000", "100813.625000", "100815.115000", "100816.605000", "100818.095000", "100819.585000", "100821.075000", "100822.565000", "100824.055000", "100825.545000", "100827.035000", "100828.525000", "100830.015000", "100831.505000", "100832.995000", "100834.485000", "100835.975000", "100837.465000", "100838.955000", "100840.445000", "100841.935000", "100843.425000", "100844.915000", "100846.405000", "100847.895000", "100849.385000", "100850.875000", "100852.365000", "100853.855000", "100855.345000", "100856.835000", "100858.325000", "100859.815000", "100901.305000", "100902.795000", "100904.285000", "100905.775000", "100907.265000", "100908.755000", "100910.245000", "100911.735000", "100913.225000", "100914.715000", "100916.205000", "100917.695000", "100919.185000", "100920.675000", "100922.165000", "100923.655000", "100925.145000", "100926.635000", "100928.125000", "100929.615000", "100931.105000", "100932.595000", "100934.085000", "100935.575000", "100937.065000", "100938.555000", "100940.045000", "100941.535000", "100943.025000", "100944.515000", "100946.005000", "100947.495000", "100948.985000", "100950.475000", "100951.965000", "100953.455000", "100954.945000", "100956.435000", "100957.925000", "100959.415000", "101000.905000", "101002.395000", "101003.885000", "101005.375000", "101006.865000", "101008.355000", "101009.845000", "101011.335000", "101012.825000", "101014.315000", "101015.805000", "101017.295000", "101018.785000", "101020.275000"],
      "ContentTime": ["100043.265000", "100043.268000", "100043.271000", "100043.274000", "100043.277000", "100043.280000", "100043.283000", "100043.286000", "100043.289000", "100043.299000", "100043.302000", "100043.305000", "100043.308000", "100043.310000", "100043.313000", "100043.316000", "100043.319000", "100043.322000", "100043.325000", "100043.328000", "100043.331000", "100043.334000", "100043.337000", "100043.340000", "100043.342000", "100043.345000", "100043.348000", "100043.351000", "100043.354000", "100043.357000", "100043.360000", "100043.363000", "100043.366000", "100043.378000", "100043.381000", "100043.384000", "100103.228000", "100103.231000", "100103.234000", "100103.237000", "100103.240000", "100103.243000", "100103.246000", "100103.248000", "100103.251000", "100103.254000", "100103.257000", "100103.260000", "100103.263000", "100103.266000", "100103.269000", "100103.272000", "100103.275000", "100103.278000", "100103.280000", "100103.283000", "100123.228000", "100123.231000", "100123.234000", "100123.237000", "100123.240000", "100123.243000", "100123.245000", "100123.248000", "100123.251000", "100123.254000", "100123.257000", "100123.260000", "100123.263000", "100123.266000", "100123.269000", "100123.272000", "100123.275000", "100123.278000", "100123.280000", "100123.283000", "100143.229000", "100143.232000", "100143.235000", "100143.248000", "100143.251000", "100143.253000", "100143.256000", "100143.259000", "100143.262000", "100143.265000", "100143.268000", "100143.271000", "100143.274000", "100143.277000", "100143.280000", "100143.283000", "100143.285000", "100143.288000", "100143.291000", "100143.294000", "100203.229000", "100203.232000", "100203.235000", "100203.238000", "100203.241000", "100203.244000", "100203.247000", "100203.250000", "100203.258000", "100203.261000", "100203.264000", "100203.266000", "100203.269000", "100203.272000", "100203.275000", "100203.278000", "100243.229000", "100243.232000", "100243.235000", "100243.238000", "100243.241000", "100243.244000", "100243.247000", "100243.250000", "100243.253000", "100243.256000", "100243.259000", "100243.261000", "100243.264000", "100243.267000", "100243.270000", "100243.273000", "100243.276000", "100243.279000", "100243.282000", "100243.285000", "100243.288000", "100243.291000", "100243.294000", "100243.297000", "100243.300000", "100243.303000", "100243.306000", "100323.228000", "100323.231000", "100323.234000", "100323.237000", "100323.240000", "100323.243000", "100323.246000", "100323.249000", "100323.252000", "100323.255000", "100323.257000", "100323.260000", "100323.263000", "100323.266000", "100323.269000", "100323.272000", "100323.275000", "100323.278000", "100323.281000", "100323.284000", "100323.287000", "100323.290000", "100323.293000", "100323.296000", "100323.299000", "100323.302000", "100323.304000", "100403.229000", "100403.232000", "100403.235000", "100403.251000", "100403.262000", "100403.265000", "100403.268000", "100403.271000", "100403.274000", "100403.277000", "100403.280000", "100403.283000", "100403.286000", "100403.289000", "100403.291000", "100403.294000", "100403.297000", "100403.300000", "100403.303000", "100403.306000", "100403.309000", "100403.312000", "100403.315000", "100403.318000", "100403.321000", "100403.324000", "100403.327000", "100443.229000", "100443.232000", "100443.235000", "100443.238000", "100443.241000", "100443.244000", "100443.247000", "100443.250000", "100443.253000", "100443.256000", "100443.259000", "100443.261000", "100443.264000", "100443.267000", "100443.270000", "100443.273000", "100443.276000", "100443.279000", "100443.291000", "100443.294000", "100443.297000", "100443.299000", "100443.302000", "100443.305000", "100443.308000", "100443.311000", "100443.314000", "100523.229000", "100523.232000", "100523.235000", "100523.238000", "100523.241000", "100523.244000", "100523.247000", "100523.250000", "100523.253000", "100523.256000", "100523.259000", "100523.262000", "100523.264000", "100523.267000", "100523.270000", "100523.273000", "100523.276000", "100523.279000", "100523.282000", "100523.285000", "100523.288000", "100523.291000", "100523.294000", "100523.297000", "100523.300000", "100523.303000", "100523.306000", "100603.228000", "100603.231000", "100603.234000", "100603.237000", "100603.240000", "100603.243000", "100603.247000", "100603.250000", "100603.252000", "100603.255000", "100603.258000", "100603.261000", "100603.264000", "100603.267000", "100603.270000", "100603.273000", "100603.276000", "100603.279000", "100603.282000", "100603.285000", "100603.288000", "100603.291000", "100603.294000", "100603.297000", "100603.300000", "100603.303000", "100643.229000", "100643.232000", "100643.235000", "100643.238000", "100643.241000", "100643.244000", "100643.247000", "100643.250000", "100643.253000", "100643.256000", "100643.259000", "100643.261000", "100643.264000", "100643.267000", "100643.270000", "100643.273000", "100643.276000", "100643.279000", "100643.282000", "100643.285000", "100643.288000", "100643.291000", "100643.294000", "100643.297000", "100643.300000", "100643.303000", "100643.306000", "100723.229000", "100723.232000", "100723.235000", "100723.238000", "100723.241000", "100723.244000", "100723.247000", "100723.250000", "100723.253000", "100723.256000", "100723.259000", "100723.262000", "100723.265000", "100723.268000", "100723.271000", "100723.274000", "100723.277000", "100723.280000", "100723.283000", "100723.286000", "100723.288000", "100723.291000", "100723.294000", "100723.297000", "100723.300000", "100723.303000", "100723.306000", "100803.228000", "100803.231000", "100803.234000", "100803.237000", "100803.240000", "100803.243000", "100803.246000", "100803.249000", "100803.252000", "100803.254000", "100803.257000", "100803.260000", "100803.263000", "100803.266000", "100803.269000", "100803.272000", "100803.275000", "100803.278000", "100803.281000", "100803.284000", "100803.287000", "100803.290000", "100803.293000", "100803.296000", "100803.299000", "100803.302000", "100803.305000", "100843.229000", "100843.232000", "100843.235000", "100843.238000", "100843.241000", "100843.244000", "100843.247000", "100843.250000", "100843.253000", "100843.256000", "100843.259000", "100843.262000", "100843.264000", "100843.267000", "100843.270000", "100843.273000", "100843.276000", "100843.279000", "100843.282000", "100843.285000", "100843.288000", "100843.291000", "100843.294000", "100843.297000", "100843.300000", "100843.303000", "100843.306000", "100923.230000", "100923.233000", "100923.236000", "100923.239000", "100923.242000", "100923.245000", "100923.248000", "100923.251000", "100923.253000", "100923.256000", "100923.259000", "100923.262000", "100923.265000", "100923.268000", "100923.271000", "100923.274000", "100923.277000", "100923.280000", "100923.283000", "100923.286000", "100923.289000", "100923.292000", "100923.295000", "100923.298000", "100923.301000", "100923.304000", "100923.307000", "101003.229000", "101003.232000", "101003.235000", "101003.238000", "101003.241000", "101003.244000", "101003.247000", "101003.250000", "101003.253000", "101003.256000", "101003.259000", "101003.262000", "101003.266000", "101003.269000", "101003.272000", "101003.275000", "101003.277000", "101003.280000", "101003.283000", "101003.286000", "101003.289000", "101003.292000", "101003.295000", "101003.298000", "101003.301000", "101003.304000", "101022.686000", "101022.690000", "101022.693000", "101022.696000", "101022.699000", "101022.702000", "101022.705000", "101022.708000", "101022.711000", "101022.714000", "101022.717000", "101022.720000", "101022.723000", "101022.726000"],
