{
  "AcquisitionMatrixPE": 104,
  "AcquisitionNumber": 1,
  "AcquisitionTime": "10:55:42.187500",
  "BandwidthPerPixelPhaseEncode": 17.17,
  "BaseResolution": 104,
  "BodyPartExamined": "BRAIN",
  "CoilString": "HC1-7;NC1_2",
  "ConsistencyInfo": "N4_VE11C_LATEST_20160120",
  "ConversionSoftware": "dcm2niix",
  "ConversionSoftwareVersion": "v1.0.20190902",
  "DerivedVendorReportedEchoSpacing": 0.000560011,
  "DeviceSerialNumber": "167006",
  "DwellTime": 2.1e-06,
  "EchoTime": 0.037,
  "EchoTrainLength": 104,
  "EffectiveEchoSpacing": 0.000560011,
  "FlipAngle": 52,
  "ImageComments": "Unaliased_MB4_PE3_LB",
  "ImageOrientationPatientDICOM": [0.999712, 0.0206763, 0.0121523, -0.0118653, 0.866747, -0.498608],
  "ImageType": [
    "ORIGINAL",
    "PRIMARY",
    "M",
    "MB",
    "ND",
    "MOSAIC"
],
  "ImagingFrequency": 123.259,
  "InPlanePhaseEncodingDirectionDICOM": "COL",
  "InstitutionAddress": "Chemin_Queen-Mary_4565_Montreal_District_CA_H3W_1W5",
  "InstitutionName": "IUGM",
  "InstitutionalDepartmentName": "Department",
  "MRAcquisitionType": "2D",
  "MagneticFieldStrength": 3,
  "Manufacturer": "Siemens",
  "ManufacturersModelName": "Prisma_fit",
  "Modality": "MR",
  "MultibandAccelerationFactor": 4,
  "PartialFourier": 1,
  "PatientPosition": "HFS",
  "PercentPhaseFOV": 100,
  "PhaseEncodingDirection": "j",
  "PhaseEncodingSteps": 104,
  "PhaseResolution": 1,
  "PixelBandwidth": 2290,
  "ProcedureStepDescription": "video_friends",
  "ProtocolName": "func_task-friends-s04e23a",
  "PulseSequenceDetails": "%CustomerSeq%_cmrr_mbep2d_bold",
  "ReceiveCoilActiveElements": "HC1-7;NC1,2",
  "ReceiveCoilName": "HeadNeck_64",
  "ReconMatrixPE": 104,
  "RepetitionTime": 1.49,
  "SAR": 0.0399285,
  "ScanOptions": "FS",
  "ScanningSequence": "EP",
  "SequenceName": "epfid2d1_104",
  "SequenceVariant": "SK_SS",
  "SeriesDescription": "func_task-friends-s04e23a",
  "SeriesNumber": 32,
  "ShimSetting": [620, -7215, -8857, 338, -25, -254, -22, -21],
  "SliceThickness": 2,
  "SliceTiming": [0, 0.7825, 0.0975, 0.8825, 0.195, 0.98, 0.2925, 1.0775, 0.3925, 1.175, 0.49, 1.2725, 0.5875, 1.37, 0.685, 0, 0.7825, 0.0975, 0.8825, 0.195, 0.98, 0.2925, 1.0775, 0.3925, 1.175, 0.49, 1.2725, 0.5875, 1.37, 0.685, 0, 0.7825, 0.0975, 0.8825, 0.195, 0.98, 0.2925, 1.0775, 0.3925, 1.175, 0.49, 1.2725, 0.5875, 1.37, 0.685, 0, 0.7825, 0.0975, 0.8825, 0.195, 0.98, 0.2925, 1.0775, 0.3925, 1.175, 0.49, 1.2725, 0.5875, 1.37, 0.685],
  "SoftwareVersions": "syngo_MR_E11",
  "SpacingBetweenSlices": 2,
  "StationName": "MRC35049",
  "TaskName": "s04e23a",
  "TotalReadoutTime": 0.0576811,
  "TxRefAmp": 258.776,
  "WipMemBlock": "dedbc66e-bc5c-45fd-8823-be5f7d219d35||Sequence: R016 ve11c/master r/e634e98; Dec 19 2017 11:00:25 by eja",
  "dcmmeta_affine": [
    [-1.999424695968628, -0.023730678483843803, 0.04168466851115227, 103.70902252197266],
    [-0.041352685540914536, 1.7334930896759033, -0.9966402053833008, -58.048648834228516],
    [0.024304568767547607, 0.9972153902053833, 1.733485221862793, -92.7372817993164],
    [0.0, 0.0, 0.0, 1.0]
],
  "dcmmeta_reorient_transform": [
    [0.0, -1.0, 0.0, 103.0],
    [1.0, 0.0, 0.0, 0.0],
    [0.0, 0.0, 1.0, 0.0],
    [0.0, 0.0, 0.0, 1.0]
],
  "dcmmeta_shape": [104, 104, 60, 505],
  "dcmmeta_slice_dim": 2,
  "dcmmeta_version": 0.6,
  "global": {
    "const": {
      "AcquisitionMatrix": [104, 0, 0, 104],
      "AngioFlag": "N",
      "BitsAllocated": 16,
      "BitsStored": 16,
      "BodyPartExamined": "BRAIN",
      "Columns": 832,
      "EchoNumbers": 1,
      "EchoTime": 37.0,
      "EchoTrainLength": 104,
      "FlipAngle": 52.0,
      "HighBit": 15,
      "ImageOrientationPatient": [0.99971236405373, 0.02067634273718, 0.012152284111, -0.0118653392898, 0.86674655014652, -0.4986076930139],
      "ImagePositionPatient": [-820.41739992139, -766.54500482296, 364.11544076508],
      "ImageType": [
        "ORIGINAL",
        "PRIMARY",
        "M",
        "MB",
        "ND",
        "MOSAIC"
],
      "ImagedNucleus": "1H",
      "ImagingFrequency": 123.259013,
      "InPlanePhaseEncodingDirection": "COL",
      "MRAcquisitionType": "2D",
      "MagneticFieldStrength": 3.0,
      "Manufacturer": "SIEMENS",
      "ManufacturerModelName": "Prisma_fit",
      "Modality": "MR",
      "NumberOfAverages": 1.0,
      "NumberOfPhaseEncodingSteps": 104,
      "PercentPhaseFieldOfView": 100.0,
      "PercentSampling": 100.0,
      "PerformedProcedureStepStartTime": "090419.904000",
      "PhotometricInterpretation": "MONOCHROME2",
      "PixelBandwidth": 2290.0,
      "PixelRepresentation": 0,
      "PixelSpacing": [2.0, 2.0],
      "ProtocolName": "func_task-friends-s04e23a",
      "RepetitionTime": 1490.0,
      "Rows": 832,
      "SAR": 0.03992848871882,
      "SamplesPerPixel": 1,
      "ScanOptions": "FS",
      "ScanningSequence": "EP",
      "SequenceName": "epfid2d1_104",
      "SequenceVariant": [
        "SK",
        "SS"
],
      "SeriesDescription": "func_task-friends-s04e23a",
      "SeriesNumber": 32,
      "SeriesTime": "105714.475000",
      "SliceLocation": -49.291003693265,
      "SliceThickness": 2.0,
      "SmallestImagePixelValue": 0,
      "SoftwareVersions": "syngo MR E11",
      "SpacingBetweenSlices": 2.0000000430827,
      "SpecificCharacterSet": "ISO_IR 100",
      "StudyID": "1",
      "StudyTime": "090419.734000",
      "TransmitCoilName": "Body",
      "VariableFlipAngleFlag": "N",
      "WindowCenterWidthExplanation": "Algo1",
      "dBdt": 0.0},
    "slices": {}
  },
  "time": {
    "samples": {
      "AcquisitionNumber": [1, 2, 3, 4, 5, 6, 7, 8, 9, 10, 11, 12, 13, 14, 15, 16, 17, 18, 19, 20, 21, 22, 23, 24, 25, 26, 27, 28, 29, 30, 31, 32, 33, 34, 35, 36, 37, 38, 39, 40, 41, 42, 43, 44, 45, 46, 47, 48, 49, 50, 51, 52, 53, 54, 55, 56, 57, 58, 59, 60, 61, 62, 63, 64, 65, 66, 67, 68, 69, 70, 71, 72, 73, 74, 75, 76, 77, 78, 79, 80, 81, 82, 83, 84, 85, 86, 87, 88, 89, 90, 91, 92, 93, 94, 95, 96, 97, 98, 99, 100, 101, 102, 103, 104, 105, 106, 107, 108, 109, 110, 111, 112, 113, 114, 115, 116, 117, 118, 119, 120, 121, 122, 123, 124, 125, 126, 127, 128, 129, 130, 131, 132, 133, 134, 135, 136, 137, 138, 139, 140, 141, 142, 143, 144, 145, 146, 147, 148, 149, 150, 151, 152, 153, 154, 155, 156, 157, 158, 159, 160, 161, 162, 163, 164, 165, 166, 167, 168, 169, 170, 171, 172, 173, 174, 175, 176, 177, 178, 179, 180, 181, 182, 183, 184, 185, 186, 187, 188, 189, 190, 191, 192, 193, 194, 195, 196, 197, 198, 199, 200, 201, 202, 203, 204, 205, 206, 207, 208, 209, 210, 211, 212, 213, 214, 215, 216, 217, 218, 219, 220, 221, 222, 223, 224, 225, 226, 227, 228, 229, 230, 231, 232, 233, 234, 235, 236, 237, 238, 239, 240, 241, 242, 243, 244, 245, 246, 247, 248, 249, 250, 251, 252, 253, 254, 255, 256, 257, 258, 259, 260, 261, 262, 263, 264, 265, 266, 267, 268, 269, 270, 271, 272, 273, 274, 275, 276, 277, 278, 279, 280, 281, 282, 283, 284, 285, 286, 287, 288, 289, 290, 291, 292, 293, 294, 295, 296, 297, 298, 299, 300, 301, 302, 303, 304, 305, 306, 307, 308, 309, 310, 311, 312, 313, 314, 315, 316, 317, 318, 319, 320, 321, 322, 323, 324, 325, 326, 327, 328, 329, 330, 331, 332, 333, 334, 335, 336, 337, 338, 339, 340, 341, 342, 343, 344, 345, 346, 347, 348, 349, 350, 351, 352, 353, 354, 355, 356, 357, 358, 359, 360, 361, 362, 363, 364, 365, 366, 367, 368, 369, 370, 371, 372, 373, 374, 375, 376, 377, 378, 379, 380, 381, 382, 383, 384, 385, 386, 387, 388, 389, 390, 391, 392, 393, 394, 395, 396, 397, 398, 399, 400, 401, 402, 403, 404, 405, 406, 407, 408, 409, 410, 411, 412, 413, 414, 415, 416, 417, 418, 419, 420, 421, 422, 423, 424, 425, 426, 427, 428, 429, 430, 431, 432, 433, 434, 435, 436, 437, 438, 439, 440, 441, 442, 443, 444, 445, 446, 447, 448, 449, 450, 451, 452, 453, 454, 455, 456, 457, 458, 459, 460, 461, 462, 463, 464, 465, 466, 467, 468, 469, 470, 471, 472, 473, 474, 475, 476, 477, 478, 479, 480, 481, 482, 483, 484, 485, 486, 487, 488, 489, 490, 491, 492, 493, 494, 495, 496, 497, 498, 499, 500, 501, 502, 503, 504, 505],
      "AcquisitionTime": ["105542.187500", "105543.677500", "105545.167500", "105546.657500", "105548.147500", "105549.637500", "105551.127500", "105552.617500", "105554.107500", "105555.597500", "105557.087500", "105558.577500", "105600.067500", "105601.557500", "105603.047500", "105604.537500", "105606.027500", "105607.517500", "105609.007500", "105610.497500", "105611.987500", "105613.477500", "105614.967500", "105616.457500", "105617.947500", "105619.437500", "105620.927500", "105622.417500", "105623.907500", "105625.397500", "105626.887500", "105628.377500", "105629.867500", "105631.357500", "105632.847500", "105634.337500", "105635.827500", "105637.317500", "105638.807500", "105640.297500", "105641.787500", "105643.277500", "105644.767500", "105646.257500", "105647.747500", "105649.237500", "105650.727500", "105652.217500", "105653.707500", "105655.197500", "105656.687500", "105658.177500", "105659.667500", "105701.157500", "105702.647500", "105704.137500", "105705.627500", "105707.117500", "105708.607500", "105710.097500", "105711.587500", "105713.077500", "105714.567500", "105716.057500", "105717.547500", "105719.037500", "105720.527500", "105722.017500", "105723.507500", "105724.997500", "105726.487500", "105727.977500", "105729.467500", "105730.957500", "105732.447500", "105733.937500", "105735.427500", "105736.917500", "105738.407500", "105739.897500", "105741.387500", "105742.877500", "105744.367500", "105745.857500", "105747.347500", "105748.837500", "105750.327500", "105751.817500", "105753.307500", "105754.797500", "105756.287500", "105757.777500", "105759.267500", "105800.757500", "105802.247500", "105803.737500", "105805.227500", "105806.717500", "105808.207500", "105809.697500", "105811.187500", "105812.677500", "105814.167500", "105815.657500", "105817.147500", "105818.637500", "105820.127500", "105821.617500", "105823.107500", "105824.597500", "105826.087500", "105827.577500", "105829.067500", "105830.557500", "105832.047500", "105833.537500", "105835.027500", "105836.517500", "105838.007500", "105839.497500", "105840.987500", "105842.477500", "105843.967500", "105845.457500", "105846.947500", "105848.437500", "105849.927500", "105851.417500", "105852.907500", "105854.397500", "105855.887500", "105857.377500", "105858.867500", "105900.357500", "105901.847500", "105903.337500", "105904.827500", "105906.317500", "105907.807500", "105909.297500", "105910.787500", "105912.277500", "105913.767500", "105915.257500", "105916.747500", "105918.237500", "105919.727500", "105921.217500", "105922.707500", "105924.197500", "105925.687500", "105927.177500", "105928.667500", "105930.157500", "105931.647500", "105933.137500", "105934.627500", "105936.117500", "105937.607500", "105939.097500", "105940.587500", "105942.077500", "105943.567500", "105945.057500", "105946.547500", "105948.037500", "105949.527500", "105951.017500", "105952.507500", "105953.997500", "105955.487500", "105956.977500", "105958.467500", "105959.957500", "110001.447500", "110002.937500", "110004.427500", "110005.917500", "110007.407500", "110008.897500", "110010.387500", "110011.877500", "110013.367500", "110014.857500", "110016.347500", "110017.837500", "110019.327500", "110020.817500", "110022.307500", "110023.797500", "110025.287500", "110026.777500", "110028.267500", "110029.757500", "110031.247500", "110032.737500", "110034.227500", "110035.717500", "110037.207500", "110038.697500", "110040.187500", "110041.677500", "110043.167500", "110044.657500", "110046.147500", "110047.637500", "110049.127500", "110050.617500", "110052.107500", "110053.597500", "110055.087500", "110056.577500", "110058.067500", "110059.557500", "110101.047500", "110102.537500", "110104.027500", "110105.517500", "110107.007500", "110108.497500", "110109.987500", "110111.477500", "110112.967500", "110114.457500", "110115.947500", "110117.437500", "110118.927500", "110120.417500", "110121.907500", "110123.397500", "110124.887500", "110126.377500", "110127.867500", "110129.357500", "110130.847500", "110132.337500", "110133.827500", "110135.317500", "110136.807500", "110138.297500", "110139.787500", "110141.277500", "110142.767500", "110144.257500", "110145.747500", "110147.237500", "110148.727500", "110150.217500", "110151.707500", "110153.197500", "110154.687500", "110156.177500", "110157.667500", "110159.157500", "110200.647500", "110202.137500", "110203.627500", "110205.117500", "110206.607500", "110208.097500", "110209.587500", "110211.077500", "110212.567500", "110214.057500", "110215.547500", "110217.037500", "110218.527500", "110220.017500", "110221.507500", "110222.997500", "110224.487500", "110225.977500", "110227.467500", "110228.957500", "110230.447500", "110231.937500", "110233.427500", "110234.917500", "110236.407500", "110237.897500", "110239.387500", "110240.877500", "110242.367500", "110243.857500", "110245.347500", "110246.837500", "110248.327500", "110249.817500", "110251.307500", "110252.797500", "110254.287500", "110255.777500", "110257.267500", "110258.757500", "110300.247500", "110301.737500", "110303.227500", "110304.717500", "110306.207500", "110307.697500", "110309.187500", "110310.677500", "110312.167500", "110313.657500", "110315.147500", "110316.637500", "110318.127500", "110319.617500", "110321.107500", "110322.597500", "110324.087500", "110325.577500", "110327.067500", "110328.557500", "110330.047500", "110331.537500", "110333.027500", "110334.517500", "110336.007500", "110337.497500", "110338.987500", "110340.477500", "110341.967500", "110343.457500", "110344.947500", "110346.437500", "110347.927500", "110349.417500", "110350.907500", "110352.397500", "110353.887500", "110355.377500", "110356.867500", "110358.357500", "110359.847500", "110401.337500", "110402.827500", "110404.317500", "110405.807500", "110407.297500", "110408.787500", "110410.277500", "110411.767500", "110413.257500", "110414.747500", "110416.237500", "110417.727500", "110419.217500", "110420.707500", "110422.197500", "110423.687500", "110425.177500", "110426.667500", "110428.157500", "110429.647500", "110431.137500", "110432.627500", "110434.117500", "110435.607500", "110437.097500", "110438.587500", "110440.077500", "110441.567500", "110443.057500", "110444.547500", "110446.037500", "110447.527500", "110449.017500", "110450.507500", "110451.997500", "110453.487500", "110454.977500", "110456.467500", "110457.957500", "110459.447500", "110500.937500", "110502.427500", "110503.917500", "110505.407500", "110506.897500", "110508.387500", "110509.877500", "110511.367500", "110512.857500", "110514.347500", "110515.837500", "110517.327500", "110518.817500", "110520.307500", "110521.797500", "110523.287500", "110524.777500", "110526.267500", "110527.757500", "110529.247500", "110530.737500", "110532.227500", "110533.717500", "110535.207500", "110536.697500", "110538.187500", "110539.677500", "110541.167500", "110542.657500", "110544.147500", "110545.637500", "110547.127500", "110548.617500", "110550.107500", "110551.597500", "110553.087500", "110554.577500", "110556.067500", "110557.557500", "110559.047500", "110600.537500", "110602.027500", "110603.517500", "110605.007500", "110606.497500", "110607.987500", "110609.477500", "110610.967500", "110612.457500", "110613.947500", "110615.437500", "110616.927500", "110618.417500", "110619.907500", "110621.397500", "110622.887500", "110624.377500", "110625.867500", "110627.357500", "110628.847500", "110630.337500", "110631.827500", "110633.317500", "110634.807500", "110636.297500", "110637.787500", "110639.277500", "110640.767500", "110642.257500", "110643.747500", "110645.237500", "110646.727500", "110648.217500", "110649.707500", "110651.197500", "110652.687500", "110654.177500", "110655.667500", "110657.157500", "110658.647500", "110700.137500", "110701.627500", "110703.117500", "110704.607500", "110706.097500", "110707.587500", "110709.077500", "110710.567500", "110712.057500", "110713.547500", "110715.037500", "110716.527500", "110718.017500", "110719.507500", "110720.997500", "110722.487500", "110723.977500", "110725.467500", "110726.957500", "110728.447500", "110729.937500", "110731.427500", "110732.917500", "110734.407500", "110735.897500", "110737.387500", "110738.877500", "110740.367500", "110741.857500", "110743.347500", "110744.837500", "110746.327500", "110747.817500", "110749.307500", "110750.797500", "110752.287500", "110753.777500", "110755.267500", "110756.757500", "110758.247500", "110759.737500", "110801.227500", "110802.717500", "110804.207500", "110805.697500", "110807.187500", "110808.677500", "110810.167500", "110811.657500", "110813.147500"],
      "ContentTime": ["105714.477000", "105714.480000", "105714.483000", "105714.486000", "105714.489000", "105714.492000", "105714.495000", "105714.498000", "105714.501000", "105714.504000", "105714.508000", "105714.511000", "105714.514000", "105714.517000", "105714.529000", "105714.532000", "105714.535000", "105714.538000", "105714.547000", "105714.549000", "105714.552000", "105714.555000", "105714.558000", "105714.561000", "105714.564000", "105734.435000", "105734.438000", "105734.441000", "105734.444000", "105734.447000", "105734.450000", "105734.453000", "105734.461000", "105734.464000", "105734.467000", "105734.470000", "105734.472000", "105734.475000", "105734.478000", "105734.481000", "105734.484000", "105734.487000", "105734.490000", "105734.493000", "105734.496000", "105754.435000", "105754.438000", "105754.441000", "105754.444000", "105754.447000", "105754.450000", "105754.453000", "105754.470000", "105754.473000", "105754.476000", "105754.479000", "105754.482000", "105754.485000", "105754.488000", "105754.491000", "105754.494000", "105754.497000", "105754.500000", "105754.502000", "105754.505000", "105814.435000", "105814.438000", "105814.441000", "105814.444000", "105814.447000", "105814.450000", "105814.453000", "105814.456000", "105814.459000", "105814.461000", "105814.464000", "105814.467000", "105814.470000", "105814.473000", "105814.476000", "105814.479000", "105814.482000", "105814.485000", "105814.488000", "105814.491000", "105834.435000", "105834.438000", "105834.441000", "105834.444000", "105834.447000", "105834.462000", "105834.465000", "105834.468000", "105834.471000", "105834.474000", "105834.477000", "105834.480000", "105834.483000", "105834.486000", "105834.488000", "105834.491000", "105834.494000", "105834.497000", "105834.500000", "105834.503000", "105854.435000", "105854.438000", "105854.441000", "105854.444000", "105854.447000", "105854.450000", "105854.453000", "105854.456000", "105854.458000", "105854.461000", "105854.464000", "105854.467000", "105854.470000", "105854.473000", "105854.476000", "105854.479000", "105854.482000", "105854.485000", "105854.488000", "105854.491000", "105934.435000", "105934.438000", "105934.441000", "105934.444000", "105934.447000", "105934.450000", "105934.453000", "105934.456000", "105934.459000", "105934.462000", "105934.464000", "105934.467000", "105934.470000", "105934.473000", "105934.476000", "105934.479000", "105934.482000", "105934.485000", "105934.488000", "105934.491000", "105934.494000", "105934.497000", "105934.500000", "105934.503000", "105934.505000", "105934.508000", "105934.511000", "105934.515000", "105934.518000", "105934.521000", "110014.435000", "110014.438000", "110014.441000", "110014.444000", "110014.447000", "110014.450000", "110014.453000", "110014.456000", "110014.459000", "110014.462000", "110014.464000", "110014.467000", "110014.470000", "110014.473000", "110014.476000", "110014.479000", "110014.482000", "110014.485000", "110014.488000", "110014.491000", "110014.494000", "110014.497000", "110014.500000", "110014.503000", "110014.506000", "110014.508000", "110014.511000", "110054.435000", "110054.438000", "110054.441000", "110054.444000", "110054.447000", "110054.450000", "110054.453000", "110054.456000", "110054.459000", "110054.462000", "110054.465000", "110054.468000", "110054.470000", "110054.473000", "110054.476000", "110054.479000", "110054.482000", "110054.485000", "110054.488000", "110054.491000", "110054.494000", "110054.497000", "110054.500000", "110054.503000", "110054.505000", "110054.508000", "110054.511000", "110134.435000", "110134.438000", "110134.441000", "110134.444000", "110134.447000", "110134.450000", "110134.453000", "110134.456000", "110134.459000", "110134.461000", "110134.464000", "110134.467000", "110134.470000", "110134.473000", "110134.476000", "110134.479000", "110134.482000", "110134.485000", "110134.488000", "110134.491000", "110134.494000", "110134.497000", "110134.500000", "110134.502000", "110134.505000", "110134.508000", "110134.511000", "110214.435000", "110214.438000", "110214.441000", "110214.444000", "110214.447000", "110214.450000", "110214.453000", "110214.456000", "110214.459000", "110214.462000", "110214.465000", "110214.468000", "110214.471000", "110214.474000", "110214.476000", "110214.479000", "110214.482000", "110214.485000", "110214.488000", "110214.491000", "110214.495000", "110214.500000", "110214.504000", "110214.507000", "110214.520000", "110214.523000", "110254.435000", "110254.438000", "110254.441000", "110254.444000", "110254.447000", "110254.450000", "110254.453000", "110254.456000", "110254.459000", "110254.462000", "110254.465000", "110254.468000", "110254.484000", "110254.487000", "110254.490000", "110254.493000", "110254.496000", "110254.499000", "110254.502000", "110254.505000", "110254.508000", "110254.511000", "110254.514000", "110254.517000", "110254.519000", "110254.522000", "110254.525000", "110334.435000", "110334.438000", "110334.441000", "110334.444000", "110334.447000", "110334.450000", "110334.453000", "110334.456000", "110334.459000", "110334.462000", "110334.465000", "110334.468000", "110334.471000", "110334.474000", "110334.476000", "110334.479000", "110334.482000", "110334.485000", "110334.488000", "110334.491000", "110334.494000", "110334.497000", "110334.500000", "110334.503000", "110334.506000", "110334.509000", "110334.512000", "110414.435000", "110414.438000", "110414.441000", "110414.444000", "110414.447000", "110414.450000", "110414.453000", "110414.456000", "110414.459000", "110414.462000", "110414.465000", "110414.468000", "110414.471000", "110414.474000", "110414.476000", "110414.479000", "110414.482000", "110414.485000", "110414.488000", "110414.491000", "110414.494000", "110414.505000", "110414.508000", "110414.511000", "110414.514000", "110414.517000", "110414.520000", "110454.435000", "110454.438000", "110454.441000", "110454.444000", "110454.447000", "110454.450000", "110454.453000", "110454.456000", "110454.459000", "110454.462000", "110454.465000", "110454.468000", "110454.471000", "110454.474000", "110454.477000", "110454.479000", "110454.482000", "110454.485000", "110454.488000", "110454.491000", "110454.494000", "110454.497000", "110454.500000", "110454.503000", "110454.506000", "110454.509000", "110454.512000", "110534.435000", "110534.438000", "110534.441000", "110534.444000", "110534.447000", "110534.450000", "110534.453000", "110534.456000", "110534.459000", "110534.462000", "110534.465000", "110534.468000", "110534.471000", "110534.473000", "110534.476000", "110534.479000", "110534.482000", "110534.485000", "110534.488000", "110534.491000", "110534.494000", "110534.497000", "110534.500000", "110534.503000", "110534.506000", "110534.509000", "110534.512000", "110614.435000", "110614.438000", "110614.441000", "110614.444000", "110614.447000", "110614.450000", "110614.453000", "110614.456000", "110614.459000", "110614.462000", "110614.465000", "110614.468000", "110614.471000", "110614.474000", "110614.477000", "110614.480000", "110614.483000", "110614.486000", "110614.488000", "110614.491000", "110614.494000", "110614.497000", "110614.500000", "110614.503000", "110614.506000", "110614.509000", "110614.512000", "110654.435000", "110654.438000", "110654.441000", "110654.444000", "110654.447000", "110654.450000", "110654.453000", "110654.456000", "110654.459000", "110654.462000", "110654.465000", "110654.468000", "110654.471000", "110654.474000", "110654.477000", "110654.479000", "110654.482000", "110654.485000", "110654.488000", "110654.491000", "110654.495000", "110654.498000", "110654.501000", "110654.504000", "110654.507000", "110654.510000", "110734.435000", "110734.438000", "110734.441000", "110734.444000", "110734.447000", "110734.450000", "110734.453000", "110734.466000", "110734.469000", "110734.472000", "110734.475000", "110734.477000", "110734.480000", "110734.490000", "110734.493000", "110734.496000", "110734.499000", "110734.502000", "110734.505000", "110734.508000", "110734.511000", "110734.514000", "110734.517000", "110734.520000", "110734.523000", "110734.526000", "110734.529000", "110814.435000", "110814.438000", "110814.441000", "110814.444000", "110814.447000", "110814.450000", "110814.453000", "110814.456000", "110814.459000", "110814.462000", "110814.464000", "110814.467000", "110814.470000", "110814.473000", "110814.476000", "110814.479000", "110814.482000", "110814.485000", "110814.488000", "110814.491000", "110814.494000", "110814.497000", "110814.500000", "110814.503000", "110814.506000", "110814.509000", "110814.512000", "110815.133000"],
