{
  "AcquisitionMatrixPE": 104,
  "AcquisitionNumber": 1,
  "AcquisitionTime": "09:47:38.335000",
  "BandwidthPerPixelPhaseEncode": 17.17,
  "BaseResolution": 104,
  "BodyPartExamined": "BRAIN",
  "CoilString": "HC1-7;NC1_2",
  "ConsistencyInfo": "N4_VE11C_LATEST_20160120",
  "ConversionSoftware": "dcm2niix",
  "ConversionSoftwareVersion": "v1.0.20190902",
  "DerivedVendorReportedEchoSpacing": 0.000560011,
  "DeviceSerialNumber": "167006",
  "DwellTime": 2.1e-06,
  "EchoTime": 0.037,
  "EchoTrainLength": 104,
  "EffectiveEchoSpacing": 0.000560011,
  "FlipAngle": 52,
  "ImageComments": "Unaliased_MB4_PE3_LB",
  "ImageOrientationPatientDICOM": [0.999834, 0.0166316, 0.00742825, -0.0111687, 0.881913, -0.47128],
  "ImageType": [
    "ORIGINAL",
    "PRIMARY",
    "M",
    "MB",
    "ND",
    "MOSAIC"
],
  "ImagingFrequency": 123.259,
  "InPlanePhaseEncodingDirectionDICOM": "COL",
  "InstitutionAddress": "Chemin_Queen-Mary_4565_Montreal_District_CA_H3W_1W5",
  "InstitutionName": "IUGM",
  "InstitutionalDepartmentName": "Department",
  "MRAcquisitionType": "2D",
  "MagneticFieldStrength": 3,
  "Manufacturer": "Siemens",
  "ManufacturersModelName": "Prisma_fit",
  "Modality": "MR",
  "MultibandAccelerationFactor": 4,
  "PartialFourier": 1,
  "PatientPosition": "HFS",
  "PercentPhaseFOV": 100,
  "PhaseEncodingDirection": "j",
  "PhaseEncodingSteps": 104,
  "PhaseResolution": 1,
  "PixelBandwidth": 2290,
  "ProcedureStepDescription": "video_friends",
  "ProtocolName": "func_task-friends-s04e20b",
  "PulseSequenceDetails": "%CustomerSeq%_cmrr_mbep2d_bold",
  "ReceiveCoilActiveElements": "HC1-7;NC1,2",
  "ReceiveCoilName": "HeadNeck_64",
  "ReconMatrixPE": 104,
  "RepetitionTime": 1.49,
  "SAR": 0.0373174,
  "ScanOptions": "FS",
  "ScanningSequence": "EP",
  "SequenceName": "epfid2d1_104",
  "SequenceVariant": "SK_SS",
  "SeriesDescription": "func_task-friends-s04e20b",
  "SeriesNumber": 15,
  "ShimSetting": [616, -7213, -8861, 419, -29, -182, -14, -26],
  "SliceThickness": 2,
  "SliceTiming": [0, 0.785, 0.0975, 0.8825, 0.1975, 0.98, 0.295, 1.0775, 0.3925, 1.1775, 0.49, 1.275, 0.5875, 1.3725, 0.6875, 0, 0.785, 0.0975, 0.8825, 0.1975, 0.98, 0.295, 1.0775, 0.3925, 1.1775, 0.49, 1.275, 0.5875, 1.3725, 0.6875, 0, 0.785, 0.0975, 0.8825, 0.1975, 0.98, 0.295, 1.0775, 0.3925, 1.1775, 0.49, 1.275, 0.5875, 1.3725, 0.6875, 0, 0.785, 0.0975, 0.8825, 0.1975, 0.98, 0.295, 1.0775, 0.3925, 1.1775, 0.49, 1.275, 0.5875, 1.3725, 0.6875],
  "SoftwareVersions": "syngo_MR_E11",
  "SpacingBetweenSlices": 2,
  "StationName": "MRC35049",
  "TaskName": "s04e20b",
  "TotalReadoutTime": 0.0576811,
  "TxRefAmp": 253.805,
  "WipMemBlock": "71486dd2-8ce1-486e-ab32-12ed32384cd5||Sequence: R016 ve11c/master r/e634e98; Dec 19 2017 11:00:25 by eja",
  "dcmmeta_affine": [
    [-1.9996682405471802, -0.022337354719638824, 0.028778403997421265, 103.21778869628906],
    [-0.03326317295432091, 1.7638256549835205, -0.9422380924224854, -60.85088348388672],
    [0.0148564912378788, 0.9425603747367859, 1.7639044523239136, -93.5000228881836],
    [0.0, 0.0, 0.0, 1.0]
],
  "dcmmeta_reorient_transform": [
    [0.0, -1.0, 0.0, 103.0],
    [1.0, 0.0, 0.0, 0.0],
    [0.0, 0.0, 1.0, 0.0],
    [0.0, 0.0, 0.0, 1.0]
],
  "dcmmeta_shape": [104, 104, 60, 447],
  "dcmmeta_slice_dim": 2,
  "dcmmeta_version": 0.6,
  "global": {
    "const": {
      "AcquisitionMatrix": [104, 0, 0, 104],
      "AngioFlag": "N",
      "BitsAllocated": 16,
      "BitsStored": 16,
      "BodyPartExamined": "BRAIN",
      "Columns": 832,
      "EchoNumbers": 1,
      "EchoTime": 37.0,
      "EchoTrainLength": 104,
      "FlipAngle": 52.0,
      "HighBit": 15,
      "ImageOrientationPatient": [0.99983409198707, 0.01663158639715, 0.00742824570873, -0.0111686772709, 0.88191282826727, -0.4712801968953],
      "ImagePositionPatient": [-820.66546561713, -774.96349142243, 341.26792107397],
      "ImageType": [
        "ORIGINAL",
        "PRIMARY",
        "M",
        "MB",
        "ND",
        "MOSAIC"
],
      "ImagedNucleus": "1H",
      "ImagingFrequency": 123.259019,
      "InPlanePhaseEncodingDirection": "COL",
      "MRAcquisitionType": "2D",
      "MagneticFieldStrength": 3.0,
      "Manufacturer": "SIEMENS",
      "ManufacturerModelName": "Prisma_fit",
      "Modality": "MR",
      "NumberOfAverages": 1.0,
      "NumberOfPhaseEncodingSteps": 104,
      "PercentPhaseFieldOfView": 100.0,
      "PercentSampling": 100.0,
      "PerformedProcedureStepStartTime": "090419.904000",
      "PhotometricInterpretation": "MONOCHROME2",
      "PixelBandwidth": 2290.0,
      "PixelRepresentation": 0,
      "PixelSpacing": [2.0, 2.0],
      "ProtocolName": "func_task-friends-s04e20b",
      "RepetitionTime": 1490.0,
      "Rows": 832,
      "SAR": 0.03731741809516,
      "SamplesPerPixel": 1,
      "ScanOptions": "FS",
      "ScanningSequence": "EP",
      "SequenceName": "epfid2d1_104",
      "SequenceVariant": [
        "SK",
        "SS"
],
      "SeriesDescription": "func_task-friends-s04e20b",
      "SeriesNumber": 15,
      "SeriesTime": "094854.469000",
      "SliceLocation": -52.309321837122,
      "SliceThickness": 2.0,
      "SmallestImagePixelValue": 0,
      "SoftwareVersions": "syngo MR E11",
      "SpacingBetweenSlices": 1.9999999767293,
      "SpecificCharacterSet": "ISO_IR 100",
      "StudyID": "1",
      "StudyTime": "090419.734000",
      "TransmitCoilName": "Body",
      "VariableFlipAngleFlag": "N",
      "WindowCenterWidthExplanation": "Algo1",
      "dBdt": 0.0},
    "slices": {}
  },
  "time": {
    "samples": {
      "AcquisitionNumber": [1, 2, 3, 4, 5, 6, 7, 8, 9, 10, 11, 12, 13, 14, 15, 16, 17, 18, 19, 20, 21, 22, 23, 24, 25, 26, 27, 28, 29, 30, 31, 32, 33, 34, 35, 36, 37, 38, 39, 40, 41, 42, 43, 44, 45, 46, 47, 48, 49, 50, 51, 52, 53, 54, 55, 56, 57, 58, 59, 60, 61, 62, 63, 64, 65, 66, 67, 68, 69, 70, 71, 72, 73, 74, 75, 76, 77, 78, 79, 80, 81, 82, 83, 84, 85, 86, 87, 88, 89, 90, 91, 92, 93, 94, 95, 96, 97, 98, 99, 100, 101, 102, 103, 104, 105, 106, 107, 108, 109, 110, 111, 112, 113, 114, 115, 116, 117, 118, 119, 120, 121, 122, 123, 124, 125, 126, 127, 128, 129, 130, 131, 132, 133, 134, 135, 136, 137, 138, 139, 140, 141, 142, 143, 144, 145, 146, 147, 148, 149, 150, 151, 152, 153, 154, 155, 156, 157, 158, 159, 160, 161, 162, 163, 164, 165, 166, 167, 168, 169, 170, 171, 172, 173, 174, 175, 176, 177, 178, 179, 180, 181, 182, 183, 184, 185, 186, 187, 188, 189, 190, 191, 192, 193, 194, 195, 196, 197, 198, 199, 200, 201, 202, 203, 204, 205, 206, 207, 208, 209, 210, 211, 212, 213, 214, 215, 216, 217, 218, 219, 220, 221, 222, 223, 224, 225, 226, 227, 228, 229, 230, 231, 232, 233, 234, 235, 236, 237, 238, 239, 240, 241, 242, 243, 244, 245, 246, 247, 248, 249, 250, 251, 252, 253, 254, 255, 256, 257, 258, 259, 260, 261, 262, 263, 264, 265, 266, 267, 268, 269, 270, 271, 272, 273, 274, 275, 276, 277, 278, 279, 280, 281, 282, 283, 284, 285, 286, 287, 288, 289, 290, 291, 292, 293, 294, 295, 296, 297, 298, 299, 300, 301, 302, 303, 304, 305, 306, 307, 308, 309, 310, 311, 312, 313, 314, 315, 316, 317, 318, 319, 320, 321, 322, 323, 324, 325, 326, 327, 328, 329, 330, 331, 332, 333, 334, 335, 336, 337, 338, 339, 340, 341, 342, 343, 344, 345, 346, 347, 348, 349, 350, 351, 352, 353, 354, 355, 356, 357, 358, 359, 360, 361, 362, 363, 364, 365, 366, 367, 368, 369, 370, 371, 372, 373, 374, 375, 376, 377, 378, 379, 380, 381, 382, 383, 384, 385, 386, 387, 388, 389, 390, 391, 392, 393, 394, 395, 396, 397, 398, 399, 400, 401, 402, 403, 404, 405, 406, 407, 408, 409, 410, 411, 412, 413, 414, 415, 416, 417, 418, 419, 420, 421, 422, 423, 424, 425, 426, 427, 428, 429, 430, 431, 432, 433, 434, 435, 436, 437, 438, 439, 440, 441, 442, 443, 444, 445, 446, 447],
      "AcquisitionTime": ["094738.335000", "094739.825000", "094741.315000", "094742.805000", "094744.295000", "094745.785000", "094747.275000", "094748.765000", "094750.255000", "094751.745000", "094753.235000", "094754.725000", "094756.215000", "094757.705000", "094759.195000", "094800.685000", "094802.175000", "094803.665000", "094805.155000", "094806.645000", "094808.135000", "094809.625000", "094811.115000", "094812.605000", "094814.095000", "094815.585000", "094817.075000", "094818.565000", "094820.055000", "094821.545000", "094823.035000", "094824.525000", "094826.015000", "094827.505000", "094828.995000", "094830.485000", "094831.975000", "094833.465000", "094834.955000", "094836.445000", "094837.935000", "094839.425000", "094840.915000", "094842.405000", "094843.895000", "094845.385000", "094846.875000", "094848.365000", "094849.855000", "094851.345000", "094852.835000", "094854.325000", "094855.815000", "094857.305000", "094858.795000", "094900.285000", "094901.775000", "094903.265000", "094904.755000", "094906.245000", "094907.735000", "094909.225000", "094910.715000", "094912.205000", "094913.695000", "094915.185000", "094916.675000", "094918.165000", "094919.655000", "094921.145000", "094922.635000", "094924.125000", "094925.615000", "094927.105000", "094928.595000", "094930.085000", "094931.575000", "094933.065000", "094934.555000", "094936.045000", "094937.535000", "094939.025000", "094940.515000", "094942.005000", "094943.495000", "094944.985000", "094946.475000", "094947.965000", "094949.455000", "094950.945000", "094952.435000", "094953.925000", "094955.415000", "094956.905000", "094958.395000", "094959.885000", "095001.375000", "095002.865000", "095004.355000", "095005.845000", "095007.335000", "095008.825000", "095010.315000", "095011.805000", "095013.295000", "095014.785000", "095016.275000", "095017.765000", "095019.255000", "095020.745000", "095022.235000", "095023.725000", "095025.215000", "095026.705000", "095028.195000", "095029.685000", "095031.175000", "095032.665000", "095034.155000", "095035.645000", "095037.135000", "095038.625000", "095040.115000", "095041.605000", "095043.095000", "095044.585000", "095046.075000", "095047.565000", "095049.055000", "095050.545000", "095052.035000", "095053.525000", "095055.015000", "095056.505000", "095057.995000", "095059.485000", "095100.975000", "095102.465000", "095103.955000", "095105.445000", "095106.935000", "095108.425000", "095109.915000", "095111.405000", "095112.895000", "095114.385000", "095115.875000", "095117.365000", "095118.855000", "095120.345000", "095121.835000", "095123.325000", "095124.815000", "095126.305000", "095127.795000", "095129.285000", "095130.775000", "095132.265000", "095133.755000", "095135.245000", "095136.735000", "095138.225000", "095139.715000", "095141.205000", "095142.695000", "095144.185000", "095145.675000", "095147.165000", "095148.655000", "095150.145000", "095151.635000", "095153.125000", "095154.615000", "095156.105000", "095157.595000", "095159.085000", "095200.575000", "095202.065000", "095203.555000", "095205.045000", "095206.535000", "095208.025000", "095209.515000", "095211.005000", "095212.495000", "095213.985000", "095215.475000", "095216.965000", "095218.455000", "095219.945000", "095221.435000", "095222.925000", "095224.415000", "095225.905000", "095227.395000", "095228.885000", "095230.375000", "095231.865000", "095233.355000", "095234.845000", "095236.335000", "095237.825000", "095239.315000", "095240.805000", "095242.295000", "095243.785000", "095245.275000", "095246.765000", "095248.255000", "095249.745000", "095251.235000", "095252.725000", "095254.215000", "095255.705000", "095257.195000", "095258.685000", "095300.175000", "095301.665000", "095303.155000", "095304.645000", "095306.135000", "095307.625000", "095309.115000", "095310.605000", "095312.095000", "095313.585000", "095315.075000", "095316.565000", "095318.055000", "095319.545000", "095321.035000", "095322.525000", "095324.015000", "095325.505000", "095326.995000", "095328.485000", "095329.975000", "095331.465000", "095332.955000", "095334.445000", "095335.935000", "095337.425000", "095338.915000", "095340.405000", "095341.895000", "095343.385000", "095344.875000", "095346.365000", "095347.855000", "095349.345000", "095350.835000", "095352.325000", "095353.815000", "095355.305000", "095356.795000", "095358.285000", "095359.775000", "095401.265000", "095402.755000", "095404.245000", "095405.735000", "095407.225000", "095408.715000", "095410.205000", "095411.695000", "095413.185000", "095414.675000", "095416.165000", "095417.655000", "095419.145000", "095420.635000", "095422.125000", "095423.615000", "095425.105000", "095426.595000", "095428.085000", "095429.575000", "095431.065000", "095432.555000", "095434.045000", "095435.535000", "095437.025000", "095438.515000", "095440.005000", "095441.495000", "095442.985000", "095444.475000", "095445.965000", "095447.455000", "095448.945000", "095450.435000", "095451.925000", "095453.415000", "095454.905000", "095456.395000", "095457.885000", "095459.375000", "095500.865000", "095502.355000", "095503.845000", "095505.335000", "095506.825000", "095508.315000", "095509.805000", "095511.295000", "095512.785000", "095514.275000", "095515.765000", "095517.255000", "095518.745000", "095520.235000", "095521.725000", "095523.215000", "095524.705000", "095526.195000", "095527.685000", "095529.175000", "095530.665000", "095532.155000", "095533.645000", "095535.135000", "095536.625000", "095538.115000", "095539.605000", "095541.095000", "095542.585000", "095544.075000", "095545.565000", "095547.055000", "095548.545000", "095550.035000", "095551.525000", "095553.015000", "095554.505000", "095555.995000", "095557.485000", "095558.975000", "095600.465000", "095601.955000", "095603.445000", "095604.935000", "095606.425000", "095607.915000", "095609.405000", "095610.895000", "095612.385000", "095613.875000", "095615.365000", "095616.855000", "095618.345000", "095619.835000", "095621.325000", "095622.815000", "095624.305000", "095625.795000", "095627.285000", "095628.775000", "095630.265000", "095631.755000", "095633.245000", "095634.735000", "095636.225000", "095637.715000", "095639.205000", "095640.695000", "095642.185000", "095643.675000", "095645.165000", "095646.655000", "095648.145000", "095649.635000", "095651.125000", "095652.615000", "095654.105000", "095655.595000", "095657.085000", "095658.575000", "095700.065000", "095701.555000", "095703.045000", "095704.535000", "095706.025000", "095707.515000", "095709.005000", "095710.495000", "095711.985000", "095713.475000", "095714.965000", "095716.455000", "095717.945000", "095719.435000", "095720.925000", "095722.415000", "095723.905000", "095725.395000", "095726.885000", "095728.375000", "095729.865000", "095731.355000", "095732.845000", "095734.335000", "095735.825000", "095737.315000", "095738.805000", "095740.295000", "095741.785000", "095743.275000", "095744.765000", "095746.255000", "095747.745000", "095749.235000", "095750.725000", "095752.215000", "095753.705000", "095755.195000", "095756.685000", "095758.175000", "095759.665000", "095801.155000", "095802.645000", "095804.135000", "095805.625000", "095807.115000", "095808.605000", "095810.095000", "095811.585000", "095813.075000", "095814.565000", "095816.055000", "095817.545000", "095819.035000", "095820.525000", "095822.015000", "095823.505000", "095824.995000", "095826.485000", "095827.975000", "095829.465000", "095830.955000", "095832.445000", "095833.935000", "095835.425000", "095836.915000", "095838.405000", "095839.895000", "095841.385000", "095842.875000"],
      "ContentTime": ["094854.472000", "094854.475000", "094854.478000", "094854.481000", "094854.492000", "094854.495000", "094854.498000", "094854.501000", "094854.504000", "094854.507000", "094854.516000", "094854.519000", "094854.522000", "094854.525000", "094854.528000", "094854.530000", "094854.533000", "094854.547000", "094854.550000", "094854.553000", "094854.555000", "094854.558000", "094914.435000", "094914.438000", "094914.441000", "094914.444000", "094914.447000", "094914.450000", "094914.453000", "094914.456000", "094914.458000", "094914.461000", "094914.464000", "094914.467000", "094914.470000", "094914.473000", "094914.479000", "094914.482000", "094914.485000", "094914.487000", "094914.490000", "094914.493000", "094934.435000", "094934.438000", "094934.441000", "094934.444000", "094934.447000", "094934.450000", "094934.452000", "094934.455000", "094934.458000", "094934.461000", "094934.464000", "094934.467000", "094934.470000", "094934.473000", "094934.476000", "094934.478000", "094934.481000", "094934.484000", "094934.487000", "094934.490000", "094954.435000", "094954.438000", "094954.452000", "094954.455000", "094954.458000", "094954.461000", "094954.464000", "094954.467000", "094954.470000", "094954.472000", "094954.475000", "094954.478000", "094954.481000", "094954.484000", "094954.487000", "094954.490000", "094954.493000", "094954.496000", "094954.499000", "094954.502000", "095014.435000", "095014.438000", "095014.441000", "095014.444000", "095014.447000", "095014.450000", "095014.452000", "095014.455000", "095014.458000", "095014.461000", "095014.464000", "095014.467000", "095014.470000", "095014.473000", "095014.476000", "095014.479000", "095014.482000", "095014.486000", "095014.489000", "095014.492000", "095054.435000", "095054.438000", "095054.441000", "095054.444000", "095054.447000", "095054.450000", "095054.453000", "095054.455000", "095054.458000", "095054.461000", "095054.464000", "095054.467000", "095054.470000", "095054.473000", "095054.476000", "095054.479000", "095054.482000", "095054.485000", "095054.487000", "095054.490000", "095054.493000", "095054.496000", "095054.499000", "095054.502000", "095054.505000", "095054.508000", "095054.511000", "095054.514000", "095054.517000", "095134.435000", "095134.438000", "095134.441000", "095134.444000", "095134.447000", "095134.456000", "095134.459000", "095134.462000", "095134.465000", "095134.468000", "095134.470000", "095134.473000", "095134.476000", "095134.479000", "095134.482000", "095134.485000", "095134.488000", "095134.491000", "095134.494000", "095134.497000", "095134.500000", "095134.503000", "095134.506000", "095134.509000", "095134.512000", "095134.515000", "095134.517000", "095214.435000", "095214.438000", "095214.441000", "095214.444000", "095214.447000", "095214.450000", "095214.453000", "095214.456000", "095214.459000", "095214.462000", "095214.469000", "095214.472000", "095214.475000", "095214.478000", "095214.480000", "095214.483000", "095214.486000", "095214.489000", "095214.492000", "095214.495000", "095214.498000", "095214.501000", "095214.504000", "095214.507000", "095214.510000", "095214.519000", "095254.435000", "095254.438000", "095254.441000", "095254.444000", "095254.447000", "095254.450000", "095254.453000", "095254.456000", "095254.458000", "095254.461000", "095254.464000", "095254.467000", "095254.470000", "095254.473000", "095254.476000", "095254.479000", "095254.482000", "095254.485000", "095254.488000", "095254.491000", "095254.494000", "095254.496000", "095254.499000", "095254.502000", "095254.505000", "095254.508000", "095254.511000", "095334.435000", "095334.438000", "095334.441000", "095334.444000", "095334.447000", "095334.450000", "095334.453000", "095334.456000", "095334.458000", "095334.461000", "095334.464000", "095334.467000", "095334.470000", "095334.473000", "095334.476000", "095334.479000", "095334.482000", "095334.485000", "095334.488000", "095334.491000", "095334.494000", "095334.497000", "095334.500000", "095334.503000", "095334.506000", "095334.509000", "095334.511000", "095414.435000", "095414.438000", "095414.447000", "095414.450000", "095414.453000", "095414.456000", "095414.459000", "095414.461000", "095414.464000", "095414.467000", "095414.470000", "095414.473000", "095414.476000", "095414.479000", "095414.482000", "095414.485000", "095414.488000", "095414.497000", "095414.500000", "095414.503000", "095414.506000", "095414.509000", "095414.522000", "095414.525000", "095414.528000", "095414.531000", "095414.534000", "095454.435000", "095454.438000", "095454.441000", "095454.444000", "095454.447000", "095454.450000", "095454.453000", "095454.456000", "095454.459000", "095454.462000", "095454.465000", "095454.467000", "095454.470000", "095454.473000", "095454.476000", "095454.479000", "095454.482000", "095454.485000", "095454.488000", "095454.491000", "095454.494000", "095454.497000", "095454.499000", "095454.502000", "095454.505000", "095454.508000", "095454.511000", "095534.435000", "095534.438000", "095534.441000", "095534.444000", "095534.447000", "095534.450000", "095534.453000", "095534.456000", "095534.459000", "095534.462000", "095534.465000", "095534.467000", "095534.470000", "095534.473000", "095534.476000", "095534.479000", "095534.482000", "095534.485000", "095534.488000", "095534.491000", "095534.494000", "095534.497000", "095534.500000", "095534.503000", "095534.506000", "095534.509000", "095534.516000", "095614.435000", "095614.438000", "095614.441000", "095614.444000", "095614.447000", "095614.450000", "095614.453000", "095614.456000", "095614.459000", "095614.462000", "095614.465000", "095614.468000", "095614.470000", "095614.473000", "095614.476000", "095614.479000", "095614.482000", "095614.485000", "095614.488000", "095614.491000", "095614.494000", "095614.497000", "095614.500000", "095614.503000", "095614.506000", "095614.509000", "095614.512000", "095654.435000", "095654.438000", "095654.441000", "095654.444000", "095654.447000", "095654.450000", "095654.453000", "095654.456000", "095654.463000", "095654.466000", "095654.469000", "095654.472000", "095654.475000", "095654.478000", "095654.480000", "095654.483000", "095654.486000", "095654.489000", "095654.492000", "095654.495000", "095654.498000", "095654.501000", "095654.504000", "095654.507000", "095654.510000", "095654.514000", "095734.435000", "095734.438000", "095734.441000", "095734.444000", "095734.447000", "095734.450000", "095734.453000", "095734.456000", "095734.459000", "095734.462000", "095734.465000", "095734.468000", "095734.471000", "095734.474000", "095734.477000", "095734.480000", "095734.482000", "095734.485000", "095734.488000", "095734.491000", "095734.494000", "095734.497000", "095734.500000", "095734.503000", "095734.506000", "095734.509000", "095734.512000", "095814.435000", "095814.438000", "095814.441000", "095814.444000", "095814.447000", "095814.450000", "095814.453000", "095814.456000", "095814.459000", "095814.462000", "095814.465000", "095814.468000", "095814.471000", "095814.474000", "095814.476000", "095814.479000", "095814.482000", "095814.485000", "095814.488000", "095814.491000", "095814.494000", "095814.497000", "095814.500000", "095814.503000", "095814.506000", "095814.509000", "095814.512000", "095844.961000", "095844.964000", "095844.967000", "095844.970000", "095844.973000", "095844.986000", "095844.990000", "095844.993000", "095844.996000", "095845.000000", "095845.003000", "095845.006000", "095845.009000", "095845.012000", "095845.015000", "095845.018000", "095845.021000", "095845.024000", "095845.027000", "095845.030000", "095845.033000"],
