{
  "AcquisitionMatrixPE": 104,
  "AcquisitionNumber": 1,
  "AcquisitionTime": "11:21:49.042500",
  "BandwidthPerPixelPhaseEncode": 17.17,
  "BaseResolution": 104,
  "BodyPartExamined": "BRAIN",
  "CoilString": "HC1-7;NC1_2",
  "ConsistencyInfo": "N4_VE11C_LATEST_20160120",
  "ConversionSoftware": "dcm2niix",
  "ConversionSoftwareVersion": "v1.0.20190902",
  "DerivedVendorReportedEchoSpacing": 0.000560011,
  "DeviceSerialNumber": "167006",
  "DwellTime": 2.1e-06,
  "EchoTime": 0.037,
  "EchoTrainLength": 104,
  "EffectiveEchoSpacing": 0.000560011,
  "FlipAngle": 52,
  "ImageComments": "Unaliased_MB4_PE3_LB",
  "ImageOrientationPatientDICOM": [0.999712, 0.0206763, 0.0121523, -0.0118653, 0.866747, -0.498608],
  "ImageType": [
    "ORIGINAL",
    "PRIMARY",
    "M",
    "MB",
    "ND",
    "MOSAIC"
],
  "ImagingFrequency": 123.259,
  "InPlanePhaseEncodingDirectionDICOM": "COL",
  "InstitutionAddress": "Chemin_Queen-Mary_4565_Montreal_District_CA_H3W_1W5",
  "InstitutionName": "IUGM",
  "InstitutionalDepartmentName": "Department",
  "MRAcquisitionType": "2D",
  "MagneticFieldStrength": 3,
  "Manufacturer": "Siemens",
  "ManufacturersModelName": "Prisma_fit",
  "Modality": "MR",
  "MultibandAccelerationFactor": 4,
  "PartialFourier": 1,
  "PatientPosition": "HFS",
  "PercentPhaseFOV": 100,
  "PhaseEncodingDirection": "j",
  "PhaseEncodingSteps": 104,
  "PhaseResolution": 1,
  "PixelBandwidth": 2290,
  "ProcedureStepDescription": "video_friends",
  "ProtocolName": "func_task-friends-s04e23c",
  "PulseSequenceDetails": "%CustomerSeq%_cmrr_mbep2d_bold",
  "ReceiveCoilActiveElements": "HC1-7;NC1,2",
  "ReceiveCoilName": "HeadNeck_64",
  "ReconMatrixPE": 104,
  "RepetitionTime": 1.49,
  "SAR": 0.0399282,
  "ScanOptions": "FS",
  "ScanningSequence": "EP",
  "SequenceName": "epfid2d1_104",
  "SequenceVariant": "SK_SS",
  "SeriesDescription": "func_task-friends-s04e23c",
  "SeriesNumber": 36,
  "ShimSetting": [620, -7215, -8857, 338, -25, -254, -22, -21],
  "SliceThickness": 2,
  "SliceTiming": [0, 0.785, 0.1, 0.8825, 0.1975, 0.98, 0.295, 1.08, 0.3925, 1.1775, 0.49, 1.275, 0.59, 1.3725, 0.6875, 0, 0.785, 0.1, 0.8825, 0.1975, 0.98, 0.295, 1.08, 0.3925, 1.1775, 0.49, 1.275, 0.59, 1.3725, 0.6875, 0, 0.785, 0.1, 0.8825, 0.1975, 0.98, 0.295, 1.08, 0.3925, 1.1775, 0.49, 1.275, 0.59, 1.3725, 0.6875, 0, 0.785, 0.1, 0.8825, 0.1975, 0.98, 0.295, 1.08, 0.3925, 1.1775, 0.49, 1.275, 0.59, 1.3725, 0.6875],
  "SoftwareVersions": "syngo_MR_E11",
  "SpacingBetweenSlices": 2,
  "StationName": "MRC35049",
  "TaskName": "s04e23c",
  "TotalReadoutTime": 0.0576811,
  "TxRefAmp": 258.776,
  "WipMemBlock": "0722ef51-5350-481f-a57c-3eb1b184ea06||Sequence: R016 ve11c/master r/e634e98; Dec 19 2017 11:00:25 by eja",
  "dcmmeta_affine": [
    [-1.999424695968628, -0.023730678483843803, 0.04168466851115227, 103.70902252197266],
    [-0.041352685540914536, 1.7334930896759033, -0.9966402053833008, -58.048648834228516],
    [0.024304568767547607, 0.9972153902053833, 1.733485221862793, -92.7372817993164],
    [0.0, 0.0, 0.0, 1.0]
],
  "dcmmeta_reorient_transform": [
    [0.0, -1.0, 0.0, 103.0],
    [1.0, 0.0, 0.0, 0.0],
    [0.0, 0.0, 1.0, 0.0],
    [0.0, 0.0, 0.0, 1.0]
],
  "dcmmeta_shape": [104, 104, 60, 504],
  "dcmmeta_slice_dim": 2,
  "dcmmeta_version": 0.6,
  "global": {
    "const": {
      "AcquisitionMatrix": [104, 0, 0, 104],
      "AngioFlag": "N",
      "BitsAllocated": 16,
      "BitsStored": 16,
      "BodyPartExamined": "BRAIN",
      "Columns": 832,
      "EchoNumbers": 1,
      "EchoTime": 37.0,
      "EchoTrainLength": 104,
      "FlipAngle": 52.0,
      "HighBit": 15,
      "ImageOrientationPatient": [0.99971236405373, 0.02067634273718, 0.012152284111, -0.0118653392898, 0.86674655014652, -0.4986076930139],
      "ImagePositionPatient": [-820.41739992139, -766.54500482296, 364.11544076508],
      "ImageType": [
        "ORIGINAL",
        "PRIMARY",
        "M",
        "MB",
        "ND",
        "MOSAIC"
],
      "ImagedNucleus": "1H",
      "ImagingFrequency": 123.259019,
      "InPlanePhaseEncodingDirection": "COL",
      "MRAcquisitionType": "2D",
      "MagneticFieldStrength": 3.0,
      "Manufacturer": "SIEMENS",
      "ManufacturerModelName": "Prisma_fit",
      "Modality": "MR",
      "NumberOfAverages": 1.0,
      "NumberOfPhaseEncodingSteps": 104,
      "PercentPhaseFieldOfView": 100.0,
      "PercentSampling": 100.0,
      "PerformedProcedureStepStartTime": "090419.904000",
      "PhotometricInterpretation": "MONOCHROME2",
      "PixelBandwidth": 2290.0,
      "PixelRepresentation": 0,
      "PixelSpacing": [2.0, 2.0],
      "ProtocolName": "func_task-friends-s04e23c",
      "RepetitionTime": 1490.0,
      "Rows": 832,
      "SAR": 0.03992818025906,
      "SamplesPerPixel": 1,
      "ScanOptions": "FS",
      "ScanningSequence": "EP",
      "SequenceName": "epfid2d1_104",
      "SequenceVariant": [
        "SK",
        "SS"
],
      "SeriesDescription": "func_task-friends-s04e23c",
      "SeriesNumber": 36,
      "SeriesTime": "112243.121000",
      "SliceLocation": -49.291003693265,
      "SliceThickness": 2.0,
      "SmallestImagePixelValue": 0,
      "SoftwareVersions": "syngo MR E11",
      "SpacingBetweenSlices": 2.0000000430827,
      "SpecificCharacterSet": "ISO_IR 100",
      "StudyID": "1",
      "StudyTime": "090419.734000",
      "TransmitCoilName": "Body",
      "VariableFlipAngleFlag": "N",
      "WindowCenterWidthExplanation": "Algo1",
      "dBdt": 0.0},
    "slices": {}
  },
  "time": {
    "samples": {
      "AcquisitionNumber": [1, 2, 3, 4, 5, 6, 7, 8, 9, 10, 11, 12, 13, 14, 15, 16, 17, 18, 19, 20, 21, 22, 23, 24, 25, 26, 27, 28, 29, 30, 31, 32, 33, 34, 35, 36, 37, 38, 39, 40, 41, 42, 43, 44, 45, 46, 47, 48, 49, 50, 51, 52, 53, 54, 55, 56, 57, 58, 59, 60, 61, 62, 63, 64, 65, 66, 67, 68, 69, 70, 71, 72, 73, 74, 75, 76, 77, 78, 79, 80, 81, 82, 83, 84, 85, 86, 87, 88, 89, 90, 91, 92, 93, 94, 95, 96, 97, 98, 99, 100, 101, 102, 103, 104, 105, 106, 107, 108, 109, 110, 111, 112, 113, 114, 115, 116, 117, 118, 119, 120, 121, 122, 123, 124, 125, 126, 127, 128, 129, 130, 131, 132, 133, 134, 135, 136, 137, 138, 139, 140, 141, 142, 143, 144, 145, 146, 147, 148, 149, 150, 151, 152, 153, 154, 155, 156, 157, 158, 159, 160, 161, 162, 163, 164, 165, 166, 167, 168, 169, 170, 171, 172, 173, 174, 175, 176, 177, 178, 179, 180, 181, 182, 183, 184, 185, 186, 187, 188, 189, 190, 191, 192, 193, 194, 195, 196, 197, 198, 199, 200, 201, 202, 203, 204, 205, 206, 207, 208, 209, 210, 211, 212, 213, 214, 215, 216, 217, 218, 219, 220, 221, 222, 223, 224, 225, 226, 227, 228, 229, 230, 231, 232, 233, 234, 235, 236, 237, 238, 239, 240, 241, 242, 243, 244, 245, 246, 247, 248, 249, 250, 251, 252, 253, 254, 255, 256, 257, 258, 259, 260, 261, 262, 263, 264, 265, 266, 267, 268, 269, 270, 271, 272, 273, 274, 275, 276, 277, 278, 279, 280, 281, 282, 283, 284, 285, 286, 287, 288, 289, 290, 291, 292, 293, 294, 295, 296, 297, 298, 299, 300, 301, 302, 303, 304, 305, 306, 307, 308, 309, 310, 311, 312, 313, 314, 315, 316, 317, 318, 319, 320, 321, 322, 323, 324, 325, 326, 327, 328, 329, 330, 331, 332, 333, 334, 335, 336, 337, 338, 339, 340, 341, 342, 343, 344, 345, 346, 347, 348, 349, 350, 351, 352, 353, 354, 355, 356, 357, 358, 359, 360, 361, 362, 363, 364, 365, 366, 367, 368, 369, 370, 371, 372, 373, 374, 375, 376, 377, 378, 379, 380, 381, 382, 383, 384, 385, 386, 387, 388, 389, 390, 391, 392, 393, 394, 395, 396, 397, 398, 399, 400, 401, 402, 403, 404, 405, 406, 407, 408, 409, 410, 411, 412, 413, 414, 415, 416, 417, 418, 419, 420, 421, 422, 423, 424, 425, 426, 427, 428, 429, 430, 431, 432, 433, 434, 435, 436, 437, 438, 439, 440, 441, 442, 443, 444, 445, 446, 447, 448, 449, 450, 451, 452, 453, 454, 455, 456, 457, 458, 459, 460, 461, 462, 463, 464, 465, 466, 467, 468, 469, 470, 471, 472, 473, 474, 475, 476, 477, 478, 479, 480, 481, 482, 483, 484, 485, 486, 487, 488, 489, 490, 491, 492, 493, 494, 495, 496, 497, 498, 499, 500, 501, 502, 503, 504],
      "AcquisitionTime": ["112149.042500", "112150.532500", "112152.022500", "112153.512500", "112155.002500", "112156.492500", "112157.982500", "112159.472500", "112200.962500", "112202.452500", "112203.942500", "112205.432500", "112206.922500", "112208.412500", "112209.902500", "112211.392500", "112212.882500", "112214.372500", "112215.862500", "112217.352500", "112218.842500", "112220.332500", "112221.822500", "112223.312500", "112224.802500", "112226.292500", "112227.782500", "112229.272500", "112230.762500", "112232.252500", "112233.742500", "112235.232500", "112236.722500", "112238.212500", "112239.702500", "112241.192500", "112242.682500", "112244.172500", "112245.662500", "112247.152500", "112248.642500", "112250.132500", "112251.622500", "112253.112500", "112254.602500", "112256.092500", "112257.582500", "112259.072500", "112300.562500", "112302.052500", "112303.542500", "112305.032500", "112306.522500", "112308.012500", "112309.502500", "112310.992500", "112312.482500", "112313.972500", "112315.462500", "112316.952500", "112318.442500", "112319.932500", "112321.422500", "112322.912500", "112324.402500", "112325.892500", "112327.382500", "112328.872500", "112330.362500", "112331.852500", "112333.342500", "112334.832500", "112336.322500", "112337.812500", "112339.302500", "112340.792500", "112342.282500", "112343.772500", "112345.262500", "112346.752500", "112348.242500", "112349.732500", "112351.222500", "112352.712500", "112354.202500", "112355.692500", "112357.182500", "112358.672500", "112400.162500", "112401.652500", "112403.142500", "112404.632500", "112406.122500", "112407.612500", "112409.102500", "112410.592500", "112412.082500", "112413.572500", "112415.062500", "112416.552500", "112418.042500", "112419.532500", "112421.022500", "112422.512500", "112424.002500", "112425.492500", "112426.982500", "112428.472500", "112429.962500", "112431.452500", "112432.942500", "112434.432500", "112435.922500", "112437.412500", "112438.902500", "112440.392500", "112441.882500", "112443.372500", "112444.862500", "112446.352500", "112447.842500", "112449.332500", "112450.822500", "112452.312500", "112453.802500", "112455.292500", "112456.782500", "112458.272500", "112459.762500", "112501.252500", "112502.742500", "112504.232500", "112505.722500", "112507.212500", "112508.702500", "112510.192500", "112511.682500", "112513.172500", "112514.662500", "112516.152500", "112517.642500", "112519.132500", "112520.622500", "112522.112500", "112523.602500", "112525.092500", "112526.582500", "112528.072500", "112529.562500", "112531.052500", "112532.542500", "112534.032500", "112535.522500", "112537.012500", "112538.502500", "112539.992500", "112541.482500", "112542.972500", "112544.462500", "112545.952500", "112547.442500", "112548.932500", "112550.422500", "112551.912500", "112553.402500", "112554.892500", "112556.382500", "112557.872500", "112559.362500", "112600.852500", "112602.342500", "112603.832500", "112605.322500", "112606.812500", "112608.302500", "112609.792500", "112611.282500", "112612.772500", "112614.262500", "112615.752500", "112617.242500", "112618.732500", "112620.222500", "112621.712500", "112623.202500", "112624.692500", "112626.182500", "112627.672500", "112629.162500", "112630.652500", "112632.142500", "112633.632500", "112635.122500", "112636.612500", "112638.102500", "112639.592500", "112641.082500", "112642.572500", "112644.062500", "112645.552500", "112647.042500", "112648.532500", "112650.022500", "112651.512500", "112653.002500", "112654.492500", "112655.982500", "112657.472500", "112658.962500", "112700.452500", "112701.942500", "112703.432500", "112704.922500", "112706.412500", "112707.902500", "112709.392500", "112710.882500", "112712.372500", "112713.862500", "112715.352500", "112716.842500", "112718.332500", "112719.822500", "112721.312500", "112722.802500", "112724.292500", "112725.782500", "112727.272500", "112728.762500", "112730.252500", "112731.742500", "112733.232500", "112734.722500", "112736.212500", "112737.702500", "112739.192500", "112740.682500", "112742.172500", "112743.662500", "112745.152500", "112746.642500", "112748.132500", "112749.622500", "112751.112500", "112752.602500", "112754.092500", "112755.582500", "112757.072500", "112758.562500", "112800.052500", "112801.542500", "112803.032500", "112804.522500", "112806.012500", "112807.502500", "112808.992500", "112810.482500", "112811.972500", "112813.462500", "112814.952500", "112816.442500", "112817.932500", "112819.422500", "112820.912500", "112822.402500", "112823.892500", "112825.382500", "112826.872500", "112828.362500", "112829.852500", "112831.342500", "112832.832500", "112834.322500", "112835.812500", "112837.302500", "112838.792500", "112840.282500", "112841.772500", "112843.262500", "112844.752500", "112846.242500", "112847.732500", "112849.222500", "112850.712500", "112852.202500", "112853.692500", "112855.182500", "112856.672500", "112858.162500", "112859.652500", "112901.142500", "112902.632500", "112904.122500", "112905.612500", "112907.102500", "112908.592500", "112910.082500", "112911.572500", "112913.062500", "112914.552500", "112916.042500", "112917.532500", "112919.022500", "112920.512500", "112922.002500", "112923.492500", "112924.982500", "112926.472500", "112927.962500", "112929.452500", "112930.942500", "112932.432500", "112933.922500", "112935.412500", "112936.902500", "112938.392500", "112939.882500", "112941.372500", "112942.862500", "112944.352500", "112945.842500", "112947.332500", "112948.822500", "112950.312500", "112951.802500", "112953.292500", "112954.782500", "112956.272500", "112957.762500", "112959.252500", "113000.742500", "113002.232500", "113003.722500", "113005.212500", "113006.702500", "113008.192500", "113009.682500", "113011.172500", "113012.662500", "113014.152500", "113015.642500", "113017.132500", "113018.622500", "113020.112500", "113021.602500", "113023.092500", "113024.582500", "113026.072500", "113027.562500", "113029.052500", "113030.542500", "113032.032500", "113033.522500", "113035.012500", "113036.502500", "113037.992500", "113039.482500", "113040.972500", "113042.462500", "113043.952500", "113045.442500", "113046.932500", "113048.422500", "113049.912500", "113051.402500", "113052.892500", "113054.382500", "113055.872500", "113057.362500", "113058.852500", "113100.342500", "113101.832500", "113103.322500", "113104.812500", "113106.302500", "113107.792500", "113109.282500", "113110.772500", "113112.262500", "113113.752500", "113115.242500", "113116.732500", "113118.222500", "113119.712500", "113121.202500", "113122.692500", "113124.182500", "113125.672500", "113127.162500", "113128.652500", "113130.142500", "113131.632500", "113133.122500", "113134.612500", "113136.102500", "113137.592500", "113139.082500", "113140.572500", "113142.062500", "113143.552500", "113145.042500", "113146.532500", "113148.022500", "113149.512500", "113151.002500", "113152.492500", "113153.982500", "113155.472500", "113156.962500", "113158.452500", "113159.942500", "113201.432500", "113202.922500", "113204.412500", "113205.902500", "113207.392500", "113208.882500", "113210.372500", "113211.862500", "113213.352500", "113214.842500", "113216.332500", "113217.822500", "113219.312500", "113220.802500", "113222.292500", "113223.782500", "113225.272500", "113226.762500", "113228.252500", "113229.742500", "113231.232500", "113232.722500", "113234.212500", "113235.702500", "113237.192500", "113238.682500", "113240.172500", "113241.662500", "113243.152500", "113244.642500", "113246.132500", "113247.622500", "113249.112500", "113250.602500", "113252.092500", "113253.582500", "113255.072500", "113256.562500", "113258.052500", "113259.542500", "113301.032500", "113302.522500", "113304.012500", "113305.502500", "113306.992500", "113308.482500", "113309.972500", "113311.462500", "113312.952500", "113314.442500", "113315.932500", "113317.422500", "113318.912500", "113320.402500", "113321.892500", "113323.382500", "113324.872500", "113326.362500", "113327.852500", "113329.342500", "113330.832500", "113332.322500", "113333.812500", "113335.302500", "113336.792500", "113338.282500", "113339.772500", "113341.262500", "113342.752500", "113344.242500", "113345.732500", "113347.222500", "113348.712500", "113350.202500", "113351.692500", "113353.182500", "113354.672500", "113356.162500", "113357.652500", "113359.142500", "113400.632500", "113402.122500", "113403.612500", "113405.102500", "113406.592500", "113408.082500", "113409.572500", "113411.062500", "113412.552500", "113414.042500", "113415.532500", "113417.022500", "113418.512500"],
      "ContentTime": ["112243.123000", "112303.086000", "112303.089000", "112303.092000", "112303.095000", "112303.098000", "112303.101000", "112303.103000", "112303.106000", "112303.109000", "112303.112000", "112303.115000", "112303.118000", "112303.121000", "112303.124000", "112303.133000", "112303.136000", "112303.139000", "112303.142000", "112303.145000", "112303.148000", "112323.086000", "112323.089000", "112323.092000", "112323.095000", "112323.098000", "112323.101000", "112323.104000", "112323.107000", "112323.109000", "112323.112000", "112323.115000", "112323.118000", "112323.121000", "112323.124000", "112323.127000", "112323.130000", "112323.133000", "112323.136000", "112323.139000", "112323.148000", "112343.086000", "112343.089000", "112343.092000", "112343.095000", "112343.098000", "112343.101000", "112343.104000", "112343.107000", "112343.109000", "112343.112000", "112343.115000", "112343.118000", "112343.121000", "112343.124000", "112343.127000", "112343.130000", "112343.133000", "112343.136000", "112343.139000", "112343.142000", "112403.086000", "112403.089000", "112403.092000", "112403.095000", "112403.098000", "112403.101000", "112403.104000", "112403.107000", "112403.109000", "112403.112000", "112403.115000", "112403.118000", "112403.121000", "112403.124000", "112403.127000", "112403.130000", "112403.133000", "112403.136000", "112403.139000", "112403.142000", "112423.085000", "112423.088000", "112423.091000", "112423.094000", "112423.097000", "112423.100000", "112423.103000", "112423.106000", "112423.109000", "112423.112000", "112423.115000", "112423.118000", "112423.121000", "112423.124000", "112423.127000", "112423.129000", "112423.132000", "112423.135000", "112423.138000", "112423.141000", "112423.144000", "112503.086000", "112503.089000", "112503.092000", "112503.095000", "112503.098000", "112503.101000", "112503.104000", "112503.107000", "112503.110000", "112503.113000", "112503.115000", "112503.118000", "112503.121000", "112503.124000", "112503.127000", "112503.130000", "112503.133000", "112503.136000", "112503.139000", "112503.142000", "112503.145000", "112503.148000", "112503.151000", "112503.154000", "112503.157000", "112503.160000", "112503.162000", "112543.086000", "112543.089000", "112543.092000", "112543.095000", "112543.098000", "112543.101000", "112543.104000", "112543.107000", "112543.110000", "112543.113000", "112543.116000", "112543.119000", "112543.122000", "112543.125000", "112543.128000", "112543.131000", "112543.134000", "112543.136000", "112543.139000", "112543.142000", "112543.145000", "112543.148000", "112543.151000", "112543.154000", "112543.157000", "112543.160000", "112543.163000", "112623.086000", "112623.089000", "112623.092000", "112623.095000", "112623.098000", "112623.101000", "112623.104000", "112623.107000", "112623.110000", "112623.113000", "112623.116000", "112623.119000", "112623.122000", "112623.125000", "112623.128000", "112623.131000", "112623.134000", "112623.145000", "112623.148000", "112623.151000", "112623.154000", "112623.157000", "112623.160000", "112623.163000", "112623.166000", "112623.169000", "112623.172000", "112703.085000", "112703.088000", "112703.091000", "112703.094000", "112703.097000", "112703.100000", "112703.103000", "112703.106000", "112703.109000", "112703.112000", "112703.115000", "112703.117000", "112703.120000", "112703.123000", "112703.126000", "112703.129000", "112703.132000", "112703.135000", "112703.138000", "112703.141000", "112703.144000", "112703.147000", "112703.150000", "112703.153000", "112703.156000", "112703.159000", "112703.162000", "112743.086000", "112743.089000", "112743.092000", "112743.095000", "112743.098000", "112743.101000", "112743.104000", "112743.107000", "112743.110000", "112743.113000", "112743.116000", "112743.119000", "112743.121000", "112743.124000", "112743.127000", "112743.130000", "112743.133000", "112743.136000", "112743.139000", "112743.142000", "112743.145000", "112743.148000", "112743.151000", "112743.154000", "112743.157000", "112743.160000", "112743.163000", "112823.086000", "112823.089000", "112823.092000", "112823.095000", "112823.098000", "112823.101000", "112823.104000", "112823.107000", "112823.110000", "112823.113000", "112823.116000", "112823.119000", "112823.122000", "112823.125000", "112823.128000", "112823.131000", "112823.134000", "112823.137000", "112823.140000", "112823.143000", "112823.146000", "112823.149000", "112823.152000", "112823.155000", "112823.158000", "112823.161000", "112823.163000", "112903.085000", "112903.088000", "112903.091000", "112903.094000", "112903.097000", "112903.100000", "112903.103000", "112903.106000", "112903.109000", "112903.112000", "112903.115000", "112903.118000", "112903.121000", "112903.123000", "112903.126000", "112903.129000", "112903.132000", "112903.135000", "112903.138000", "112903.141000", "112903.144000", "112903.147000", "112903.150000", "112903.153000", "112903.156000", "112903.159000", "112943.086000", "112943.089000", "112943.092000", "112943.095000", "112943.098000", "112943.101000", "112943.104000", "112943.107000", "112943.110000", "112943.112000", "112943.116000", "112943.119000", "112943.121000", "112943.124000", "112943.127000", "112943.130000", "112943.133000", "112943.136000", "112943.139000", "112943.142000", "112943.145000", "112943.148000", "112943.151000", "112943.154000", "112943.157000", "112943.160000", "112943.163000", "113023.086000", "113023.089000", "113023.092000", "113023.095000", "113023.098000", "113023.101000", "113023.104000", "113023.107000", "113023.110000", "113023.113000", "113023.116000", "113023.119000", "113023.122000", "113023.125000", "113023.128000", "113023.131000", "113023.133000", "113023.136000", "113023.140000", "113023.142000", "113023.145000", "113023.148000", "113023.151000", "113023.154000", "113023.158000", "113023.160000", "113023.163000", "113103.086000", "113103.089000", "113103.092000", "113103.095000", "113103.098000", "113103.101000", "113103.104000", "113103.107000", "113103.131000", "113103.134000", "113103.137000", "113103.140000", "113103.142000", "113103.145000", "113103.148000", "113103.151000", "113103.154000", "113103.157000", "113103.160000", "113103.163000", "113103.166000", "113103.169000", "113103.172000", "113103.175000", "113103.178000", "113103.181000", "113103.184000", "113143.085000", "113143.088000", "113143.091000", "113143.094000", "113143.097000", "113143.100000", "113143.103000", "113143.106000", "113143.109000", "113143.112000", "113143.115000", "113143.118000", "113143.121000", "113143.124000", "113143.126000", "113143.129000", "113143.132000", "113143.135000", "113143.138000", "113143.141000", "113143.144000", "113143.147000", "113143.150000", "113143.153000", "113143.156000", "113143.159000", "113143.162000", "113203.086000", "113203.089000", "113203.092000", "113203.095000", "113203.098000", "113203.101000", "113203.104000", "113203.107000", "113203.110000", "113203.113000", "113203.116000", "113203.119000", "113203.122000", "113243.086000", "113243.089000", "113243.092000", "113243.095000", "113243.098000", "113243.101000", "113243.104000", "113243.107000", "113243.110000", "113243.113000", "113243.116000", "113243.119000", "113243.122000", "113243.125000", "113243.128000", "113243.131000", "113243.134000", "113243.137000", "113243.140000", "113243.143000", "113243.146000", "113243.149000", "113243.152000", "113243.155000", "113243.157000", "113243.160000", "113243.163000", "113323.086000", "113323.089000", "113323.092000", "113323.095000", "113323.098000", "113323.101000", "113323.104000", "113323.107000", "113323.110000", "113323.113000", "113323.116000", "113323.119000", "113323.122000", "113323.125000", "113323.127000", "113323.130000", "113323.134000", "113323.137000", "113323.139000", "113323.142000", "113323.145000", "113323.148000", "113323.151000", "113323.154000", "113323.157000", "113323.160000", "113323.163000", "113403.085000", "113403.088000", "113403.091000", "113403.094000", "113403.097000", "113403.100000", "113403.103000", "113403.106000", "113403.109000", "113403.112000", "113403.115000", "113403.118000", "113403.121000", "113403.124000", "113403.127000", "113403.130000", "113403.133000", "113403.136000", "113403.141000", "113403.144000", "113403.147000", "113403.150000", "113403.153000", "113403.156000", "113403.159000", "113403.162000", "113403.165000", "113420.735000", "113420.738000", "113420.741000", "113420.744000", "113420.747000", "113420.750000", "113420.753000", "113420.756000", "113420.759000", "113420.762000", "113420.765000", "113420.769000"],
