{
  "AcquisitionMatrixPE": 104,
  "AcquisitionNumber": 1,
  "AcquisitionTime": "11:34:46.437500",
  "BandwidthPerPixelPhaseEncode": 17.17,
  "BaseResolution": 104,
  "BodyPartExamined": "BRAIN",
  "CoilString": "HC1-7;NC1_2",
  "ConsistencyInfo": "N4_VE11C_LATEST_20160120",
  "ConversionSoftware": "dcm2niix",
  "ConversionSoftwareVersion": "v1.0.20190902",
  "DerivedVendorReportedEchoSpacing": 0.000560011,
  "DeviceSerialNumber": "167006",
  "DwellTime": 2.1e-06,
  "EchoTime": 0.037,
  "EchoTrainLength": 104,
  "EffectiveEchoSpacing": 0.000560011,
  "FlipAngle": 52,
  "ImageComments": "Unaliased_MB4_PE3_LB",
  "ImageOrientationPatientDICOM": [0.999712, 0.0206763, 0.0121523, -0.0118653, 0.866747, -0.498608],
  "ImageType": [
    "ORIGINAL",
    "PRIMARY",
    "M",
    "MB",
    "ND",
    "MOSAIC"
],
  "ImagingFrequency": 123.259,
  "InPlanePhaseEncodingDirectionDICOM": "COL",
  "InstitutionAddress": "Chemin_Queen-Mary_4565_Montreal_District_CA_H3W_1W5",
  "InstitutionName": "IUGM",
  "InstitutionalDepartmentName": "Department",
  "MRAcquisitionType": "2D",
  "MagneticFieldStrength": 3,
  "Manufacturer": "Siemens",
  "ManufacturersModelName": "Prisma_fit",
  "Modality": "MR",
  "MultibandAccelerationFactor": 4,
  "PartialFourier": 1,
  "PatientPosition": "HFS",
  "PercentPhaseFOV": 100,
  "PhaseEncodingDirection": "j",
  "PhaseEncodingSteps": 104,
  "PhaseResolution": 1,
  "PixelBandwidth": 2290,
  "ProcedureStepDescription": "video_friends",
  "ProtocolName": "func_task-friends-s04e23d",
  "PulseSequenceDetails": "%CustomerSeq%_cmrr_mbep2d_bold",
  "ReceiveCoilActiveElements": "HC1-7;NC1,2",
  "ReceiveCoilName": "HeadNeck_64",
  "ReconMatrixPE": 104,
  "RepetitionTime": 1.49,
  "SAR": 0.0399282,
  "ScanOptions": "FS",
  "ScanningSequence": "EP",
  "SequenceName": "epfid2d1_104",
  "SequenceVariant": "SK_SS",
  "SeriesDescription": "func_task-friends-s04e23d",
  "SeriesNumber": 38,
  "ShimSetting": [620, -7215, -8857, 338, -25, -254, -22, -21],
  "SliceThickness": 2,
  "SliceTiming": [0, 0.7825, 0.0975, 0.8825, 0.195, 0.98, 0.2925, 1.0775, 0.3925, 1.175, 0.49, 1.2725, 0.5875, 1.3725, 0.685, 0, 0.7825, 0.0975, 0.8825, 0.195, 0.98, 0.2925, 1.0775, 0.3925, 1.175, 0.49, 1.2725, 0.5875, 1.3725, 0.685, 0, 0.7825, 0.0975, 0.8825, 0.195, 0.98, 0.2925, 1.0775, 0.3925, 1.175, 0.49, 1.2725, 0.5875, 1.3725, 0.685, 0, 0.7825, 0.0975, 0.8825, 0.195, 0.98, 0.2925, 1.0775, 0.3925, 1.175, 0.49, 1.2725, 0.5875, 1.3725, 0.685],
  "SoftwareVersions": "syngo_MR_E11",
  "SpacingBetweenSlices": 2,
  "StationName": "MRC35049",
  "TaskName": "s04e23d",
  "TotalReadoutTime": 0.0576811,
  "TxRefAmp": 258.776,
  "WipMemBlock": "915921fd-8037-4684-8d69-be4d42191511||Sequence: R016 ve11c/master r/e634e98; Dec 19 2017 11:00:25 by eja",
  "dcmmeta_affine": [
    [-1.999424695968628, -0.023730678483843803, 0.04168466851115227, 103.70902252197266],
    [-0.041352685540914536, 1.7334930896759033, -0.9966402053833008, -58.048648834228516],
    [0.024304568767547607, 0.9972153902053833, 1.733485221862793, -92.7372817993164],
    [0.0, 0.0, 0.0, 1.0]
],
  "dcmmeta_reorient_transform": [
    [0.0, -1.0, 0.0, 103.0],
    [1.0, 0.0, 0.0, 0.0],
    [0.0, 0.0, 1.0, 0.0],
    [0.0, 0.0, 0.0, 1.0]
],
  "dcmmeta_shape": [104, 104, 60, 504],
  "dcmmeta_slice_dim": 2,
  "dcmmeta_version": 0.6,
  "global": {
    "const": {
      "AcquisitionMatrix": [104, 0, 0, 104],
      "AngioFlag": "N",
      "BitsAllocated": 16,
      "BitsStored": 16,
      "BodyPartExamined": "BRAIN",
      "Columns": 832,
      "EchoNumbers": 1,
      "EchoTime": 37.0,
      "EchoTrainLength": 104,
      "FlipAngle": 52.0,
      "HighBit": 15,
      "ImageOrientationPatient": [0.99971236405373, 0.02067634273718, 0.012152284111, -0.0118653392898, 0.86674655014652, -0.4986076930139],
      "ImagePositionPatient": [-820.41739992139, -766.54500482296, 364.11544076508],
      "ImageType": [
        "ORIGINAL",
        "PRIMARY",
        "M",
        "MB",
        "ND",
        "MOSAIC"
],
      "ImagedNucleus": "1H",
      "ImagingFrequency": 123.259023,
      "InPlanePhaseEncodingDirection": "COL",
      "MRAcquisitionType": "2D",
      "MagneticFieldStrength": 3.0,
      "Manufacturer": "SIEMENS",
      "ManufacturerModelName": "Prisma_fit",
      "Modality": "MR",
      "NumberOfAverages": 1.0,
      "NumberOfPhaseEncodingSteps": 104,
      "PercentPhaseFieldOfView": 100.0,
      "PercentSampling": 100.0,
      "PerformedProcedureStepStartTime": "090419.904000",
      "PhotometricInterpretation": "MONOCHROME2",
      "PixelBandwidth": 2290.0,
      "PixelRepresentation": 0,
      "PixelSpacing": [2.0, 2.0],
      "ProtocolName": "func_task-friends-s04e23d",
      "RepetitionTime": 1490.0,
      "Rows": 832,
      "SAR": 0.03992818025906,
      "SamplesPerPixel": 1,
      "ScanOptions": "FS",
      "ScanningSequence": "EP",
      "SequenceName": "epfid2d1_104",
      "SequenceVariant": [
        "SK",
        "SS"
],
      "SeriesDescription": "func_task-friends-s04e23d",
      "SeriesNumber": 38,
      "SeriesTime": "113614.469000",
      "SliceLocation": -49.291003693265,
      "SliceThickness": 2.0,
      "SmallestImagePixelValue": 0,
      "SoftwareVersions": "syngo MR E11",
      "SpacingBetweenSlices": 2.0000000430827,
      "SpecificCharacterSet": "ISO_IR 100",
      "StudyID": "1",
      "StudyTime": "090419.734000",
      "TransmitCoilName": "Body",
      "VariableFlipAngleFlag": "N",
      "WindowCenterWidthExplanation": "Algo1",
      "dBdt": 0.0},
    "slices": {}
  },
  "time": {
    "samples": {
      "AcquisitionNumber": [1, 2, 3, 4, 5, 6, 7, 8, 9, 10, 11, 12, 13, 14, 15, 16, 17, 18, 19, 20, 21, 22, 23, 24, 25, 26, 27, 28, 29, 30, 31, 32, 33, 34, 35, 36, 37, 38, 39, 40, 41, 42, 43, 44, 45, 46, 47, 48, 49, 50, 51, 52, 53, 54, 55, 56, 57, 58, 59, 60, 61, 62, 63, 64, 65, 66, 67, 68, 69, 70, 71, 72, 73, 74, 75, 76, 77, 78, 79, 80, 81, 82, 83, 84, 85, 86, 87, 88, 89, 90, 91, 92, 93, 94, 95, 96, 97, 98, 99, 100, 101, 102, 103, 104, 105, 106, 107, 108, 109, 110, 111, 112, 113, 114, 115, 116, 117, 118, 119, 120, 121, 122, 123, 124, 125, 126, 127, 128, 129, 130, 131, 132, 133, 134, 135, 136, 137, 138, 139, 140, 141, 142, 143, 144, 145, 146, 147, 148, 149, 150, 151, 152, 153, 154, 155, 156, 157, 158, 159, 160, 161, 162, 163, 164, 165, 166, 167, 168, 169, 170, 171, 172, 173, 174, 175, 176, 177, 178, 179, 180, 181, 182, 183, 184, 185, 186, 187, 188, 189, 190, 191, 192, 193, 194, 195, 196, 197, 198, 199, 200, 201, 202, 203, 204, 205, 206, 207, 208, 209, 210, 211, 212, 213, 214, 215, 216, 217, 218, 219, 220, 221, 222, 223, 224, 225, 226, 227, 228, 229, 230, 231, 232, 233, 234, 235, 236, 237, 238, 239, 240, 241, 242, 243, 244, 245, 246, 247, 248, 249, 250, 251, 252, 253, 254, 255, 256, 257, 258, 259, 260, 261, 262, 263, 264, 265, 266, 267, 268, 269, 270, 271, 272, 273, 274, 275, 276, 277, 278, 279, 280, 281, 282, 283, 284, 285, 286, 287, 288, 289, 290, 291, 292, 293, 294, 295, 296, 297, 298, 299, 300, 301, 302, 303, 304, 305, 306, 307, 308, 309, 310, 311, 312, 313, 314, 315, 316, 317, 318, 319, 320, 321, 322, 323, 324, 325, 326, 327, 328, 329, 330, 331, 332, 333, 334, 335, 336, 337, 338, 339, 340, 341, 342, 343, 344, 345, 346, 347, 348, 349, 350, 351, 352, 353, 354, 355, 356, 357, 358, 359, 360, 361, 362, 363, 364, 365, 366, 367, 368, 369, 370, 371, 372, 373, 374, 375, 376, 377, 378, 379, 380, 381, 382, 383, 384, 385, 386, 387, 388, 389, 390, 391, 392, 393, 394, 395, 396, 397, 398, 399, 400, 401, 402, 403, 404, 405, 406, 407, 408, 409, 410, 411, 412, 413, 414, 415, 416, 417, 418, 419, 420, 421, 422, 423, 424, 425, 426, 427, 428, 429, 430, 431, 432, 433, 434, 435, 436, 437, 438, 439, 440, 441, 442, 443, 444, 445, 446, 447, 448, 449, 450, 451, 452, 453, 454, 455, 456, 457, 458, 459, 460, 461, 462, 463, 464, 465, 466, 467, 468, 469, 470, 471, 472, 473, 474, 475, 476, 477, 478, 479, 480, 481, 482, 483, 484, 485, 486, 487, 488, 489, 490, 491, 492, 493, 494, 495, 496, 497, 498, 499, 500, 501, 502, 503, 504],
      "AcquisitionTime": ["113446.437500", "113447.927500", "113449.417500", "113450.907500", "113452.397500", "113453.887500", "113455.377500", "113456.867500", "113458.357500", "113459.847500", "113501.337500", "113502.827500", "113504.317500", "113505.807500", "113507.297500", "113508.787500", "113510.277500", "113511.767500", "113513.257500", "113514.747500", "113516.237500", "113517.727500", "113519.217500", "113520.707500", "113522.197500", "113523.687500", "113525.177500", "113526.667500", "113528.157500", "113529.647500", "113531.137500", "113532.627500", "113534.117500", "113535.607500", "113537.097500", "113538.587500", "113540.077500", "113541.567500", "113543.057500", "113544.547500", "113546.037500", "113547.527500", "113549.017500", "113550.507500", "113551.997500", "113553.487500", "113554.977500", "113556.467500", "113557.957500", "113559.447500", "113600.937500", "113602.427500", "113603.917500", "113605.407500", "113606.897500", "113608.387500", "113609.877500", "113611.367500", "113612.857500", "113614.347500", "113615.837500", "113617.327500", "113618.817500", "113620.307500", "113621.797500", "113623.287500", "113624.777500", "113626.267500", "113627.757500", "113629.247500", "113630.737500", "113632.227500", "113633.717500", "113635.207500", "113636.697500", "113638.187500", "113639.677500", "113641.167500", "113642.657500", "113644.147500", "113645.637500", "113647.127500", "113648.617500", "113650.107500", "113651.597500", "113653.087500", "113654.577500", "113656.067500", "113657.557500", "113659.047500", "113700.537500", "113702.027500", "113703.517500", "113705.007500", "113706.497500", "113707.987500", "113709.477500", "113710.967500", "113712.457500", "113713.947500", "113715.437500", "113716.927500", "113718.417500", "113719.907500", "113721.397500", "113722.887500", "113724.377500", "113725.867500", "113727.357500", "113728.847500", "113730.337500", "113731.827500", "113733.317500", "113734.807500", "113736.297500", "113737.787500", "113739.277500", "113740.767500", "113742.257500", "113743.747500", "113745.237500", "113746.727500", "113748.217500", "113749.707500", "113751.197500", "113752.687500", "113754.177500", "113755.667500", "113757.157500", "113758.647500", "113800.137500", "113801.627500", "113803.117500", "113804.607500", "113806.097500", "113807.587500", "113809.077500", "113810.567500", "113812.057500", "113813.547500", "113815.037500", "113816.527500", "113818.017500", "113819.507500", "113820.997500", "113822.487500", "113823.977500", "113825.467500", "113826.957500", "113828.447500", "113829.937500", "113831.427500", "113832.917500", "113834.407500", "113835.897500", "113837.387500", "113838.877500", "113840.367500", "113841.857500", "113843.347500", "113844.837500", "113846.327500", "113847.817500", "113849.307500", "113850.797500", "113852.287500", "113853.777500", "113855.267500", "113856.757500", "113858.247500", "113859.737500", "113901.227500", "113902.717500", "113904.207500", "113905.697500", "113907.187500", "113908.677500", "113910.167500", "113911.657500", "113913.147500", "113914.637500", "113916.127500", "113917.617500", "113919.107500", "113920.597500", "113922.087500", "113923.577500", "113925.067500", "113926.557500", "113928.047500", "113929.537500", "113931.027500", "113932.517500", "113934.007500", "113935.497500", "113936.987500", "113938.477500", "113939.967500", "113941.457500", "113942.947500", "113944.437500", "113945.927500", "113947.417500", "113948.907500", "113950.397500", "113951.887500", "113953.377500", "113954.867500", "113956.357500", "113957.847500", "113959.337500", "114000.827500", "114002.317500", "114003.807500", "114005.297500", "114006.787500", "114008.277500", "114009.767500", "114011.257500", "114012.747500", "114014.237500", "114015.727500", "114017.217500", "114018.707500", "114020.197500", "114021.687500", "114023.177500", "114024.667500", "114026.157500", "114027.647500", "114029.137500", "114030.627500", "114032.117500", "114033.607500", "114035.097500", "114036.587500", "114038.077500", "114039.567500", "114041.057500", "114042.547500", "114044.037500", "114045.527500", "114047.017500", "114048.507500", "114049.997500", "114051.487500", "114052.977500", "114054.467500", "114055.957500", "114057.447500", "114058.937500", "114100.427500", "114101.917500", "114103.407500", "114104.897500", "114106.387500", "114107.877500", "114109.367500", "114110.857500", "114112.347500", "114113.837500", "114115.327500", "114116.817500", "114118.307500", "114119.797500", "114121.287500", "114122.777500", "114124.267500", "114125.757500", "114127.247500", "114128.737500", "114130.227500", "114131.717500", "114133.207500", "114134.697500", "114136.187500", "114137.677500", "114139.167500", "114140.657500", "114142.147500", "114143.637500", "114145.127500", "114146.617500", "114148.107500", "114149.597500", "114151.087500", "114152.577500", "114154.067500", "114155.557500", "114157.047500", "114158.537500", "114200.027500", "114201.517500", "114203.007500", "114204.497500", "114205.987500", "114207.477500", "114208.967500", "114210.457500", "114211.947500", "114213.437500", "114214.927500", "114216.417500", "114217.907500", "114219.397500", "114220.887500", "114222.377500", "114223.867500", "114225.357500", "114226.847500", "114228.337500", "114229.827500", "114231.317500", "114232.807500", "114234.297500", "114235.787500", "114237.277500", "114238.767500", "114240.257500", "114241.747500", "114243.237500", "114244.727500", "114246.217500", "114247.707500", "114249.197500", "114250.687500", "114252.177500", "114253.667500", "114255.157500", "114256.647500", "114258.137500", "114259.627500", "114301.117500", "114302.607500", "114304.097500", "114305.587500", "114307.077500", "114308.567500", "114310.057500", "114311.547500", "114313.037500", "114314.527500", "114316.017500", "114317.507500", "114318.997500", "114320.487500", "114321.977500", "114323.467500", "114324.957500", "114326.447500", "114327.937500", "114329.427500", "114330.917500", "114332.407500", "114333.897500", "114335.387500", "114336.877500", "114338.367500", "114339.857500", "114341.347500", "114342.837500", "114344.327500", "114345.817500", "114347.307500", "114348.797500", "114350.287500", "114351.777500", "114353.267500", "114354.757500", "114356.247500", "114357.737500", "114359.227500", "114400.717500", "114402.207500", "114403.697500", "114405.187500", "114406.677500", "114408.167500", "114409.657500", "114411.147500", "114412.637500", "114414.127500", "114415.617500", "114417.107500", "114418.597500", "114420.087500", "114421.577500", "114423.067500", "114424.557500", "114426.047500", "114427.537500", "114429.027500", "114430.517500", "114432.007500", "114433.497500", "114434.987500", "114436.477500", "114437.967500", "114439.457500", "114440.947500", "114442.437500", "114443.927500", "114445.417500", "114446.907500", "114448.397500", "114449.887500", "114451.377500", "114452.867500", "114454.357500", "114455.847500", "114457.337500", "114458.827500", "114500.317500", "114501.807500", "114503.297500", "114504.787500", "114506.277500", "114507.767500", "114509.257500", "114510.747500", "114512.237500", "114513.727500", "114515.217500", "114516.707500", "114518.197500", "114519.687500", "114521.177500", "114522.667500", "114524.157500", "114525.647500", "114527.137500", "114528.627500", "114530.117500", "114531.607500", "114533.097500", "114534.587500", "114536.077500", "114537.567500", "114539.057500", "114540.547500", "114542.037500", "114543.527500", "114545.017500", "114546.507500", "114547.997500", "114549.487500", "114550.977500", "114552.467500", "114553.957500", "114555.447500", "114556.937500", "114558.427500", "114559.917500", "114601.407500", "114602.897500", "114604.387500", "114605.877500", "114607.367500", "114608.857500", "114610.347500", "114611.837500", "114613.327500", "114614.817500", "114616.307500", "114617.797500", "114619.287500", "114620.777500", "114622.267500", "114623.757500", "114625.247500", "114626.737500", "114628.227500", "114629.717500", "114631.207500", "114632.697500", "114634.187500", "114635.677500", "114637.167500", "114638.657500", "114640.147500", "114641.637500", "114643.127500", "114644.617500", "114646.107500", "114647.597500", "114649.087500", "114650.577500", "114652.067500", "114653.557500", "114655.047500", "114656.537500", "114658.027500", "114659.517500", "114701.007500", "114702.497500", "114703.987500", "114705.477500", "114706.967500", "114708.457500", "114709.947500", "114711.437500", "114712.927500", "114714.417500", "114715.907500"],
      "ContentTime": ["113614.473000", "113614.476000", "113614.479000", "113614.482000", "113614.485000", "113614.488000", "113614.491000", "113614.494000", "113614.497000", "113614.500000", "113614.503000", "113614.506000", "113614.509000", "113614.512000", "113614.515000", "113614.518000", "113614.521000", "113614.523000", "113614.529000", "113614.532000", "113614.535000", "113614.538000", "113614.541000", "113614.544000", "113614.547000", "113614.550000", "113614.553000", "113614.556000", "113614.558000", "113614.561000", "113614.564000", "113614.567000", "113614.570000", "113614.573000", "113614.583000", "113634.435000", "113634.438000", "113634.441000", "113634.461000", "113634.464000", "113634.467000", "113634.470000", "113634.473000", "113634.476000", "113634.479000", "113634.482000", "113634.485000", "113634.488000", "113634.491000", "113634.493000", "113634.496000", "113634.499000", "113634.502000", "113634.505000", "113634.508000", "113654.435000", "113654.438000", "113654.441000", "113654.444000", "113654.447000", "113654.450000", "113654.453000", "113654.456000", "113654.459000", "113654.462000", "113654.465000", "113654.467000", "113654.470000", "113654.473000", "113654.476000", "113654.479000", "113654.482000", "113654.485000", "113654.488000", "113654.491000", "113714.435000", "113714.438000", "113714.441000", "113714.444000", "113714.447000", "113714.450000", "113714.453000", "113714.456000", "113714.459000", "113714.462000", "113714.466000", "113714.469000", "113714.472000", "113714.476000", "113714.478000", "113714.481000", "113714.484000", "113714.487000", "113714.490000", "113714.493000", "113754.435000", "113754.438000", "113754.441000", "113754.444000", "113754.447000", "113754.450000", "113754.453000", "113754.456000", "113754.459000", "113754.462000", "113754.465000", "113754.468000", "113754.470000", "113754.473000", "113754.476000", "113754.479000", "113754.482000", "113754.485000", "113754.488000", "113754.491000", "113754.494000", "113754.497000", "113754.500000", "113754.503000", "113754.506000", "113754.508000", "113754.511000", "113754.514000", "113754.517000", "113754.520000", "113834.435000", "113834.438000", "113834.441000", "113834.444000", "113834.447000", "113834.450000", "113834.453000", "113834.456000", "113834.459000", "113834.462000", "113834.465000", "113834.468000", "113834.471000", "113834.474000", "113834.476000", "113834.479000", "113834.482000", "113834.485000", "113834.488000", "113834.491000", "113834.494000", "113834.497000", "113834.500000", "113834.503000", "113834.506000", "113834.509000", "113834.512000", "113914.435000", "113914.438000", "113914.441000", "113914.444000", "113914.447000", "113914.450000", "113914.453000", "113914.456000", "113914.459000", "113914.462000", "113914.465000", "113914.467000", "113914.470000", "113914.473000", "113914.476000", "113914.479000", "113914.482000", "113914.485000", "113914.488000", "113914.491000", "113914.494000", "113914.497000", "113914.500000", "113914.503000", "113914.506000", "113914.509000", "113914.512000", "113954.435000", "113954.438000", "113954.441000", "113954.444000", "113954.447000", "113954.450000", "113954.453000", "113954.456000", "113954.459000", "113954.462000", "113954.465000", "113954.468000", "113954.471000", "113954.474000", "113954.477000", "113954.480000", "113954.483000", "113954.486000", "113954.489000", "113954.491000", "113954.494000", "113954.497000", "113954.500000", "113954.503000", "113954.506000", "113954.509000", "113954.512000", "114034.435000", "114034.438000", "114034.441000", "114034.444000", "114034.447000", "114034.450000", "114034.453000", "114034.460000", "114034.463000", "114034.466000", "114034.469000", "114034.472000", "114034.475000", "114034.478000", "114034.481000", "114034.484000", "114034.487000", "114034.490000", "114034.493000", "114034.495000", "114034.498000", "114034.501000", "114034.504000", "114034.507000", "114034.510000", "114034.513000", "114034.516000", "114114.435000", "114114.453000", "114114.456000", "114114.469000", "114114.472000", "114114.475000", "114114.478000", "114114.481000", "114114.484000", "114114.487000", "114114.489000", "114114.492000", "114114.495000", "114114.498000", "114114.501000", "114114.504000", "114114.507000", "114114.510000", "114114.513000", "114114.516000", "114114.519000", "114114.522000", "114114.525000", "114114.528000", "114114.531000", "114114.533000", "114154.435000", "114154.438000", "114154.441000", "114154.444000", "114154.447000", "114154.450000", "114154.453000", "114154.456000", "114154.459000", "114154.462000", "114154.465000", "114154.468000", "114154.471000", "114154.474000", "114154.477000", "114154.480000", "114154.483000", "114154.486000", "114154.489000", "114154.492000", "114154.495000", "114154.498000", "114154.501000", "114154.504000", "114154.507000", "114154.510000", "114154.513000", "114214.435000", "114214.438000", "114214.441000", "114214.444000", "114214.447000", "114214.450000", "114214.453000", "114214.456000", "114214.459000", "114214.462000", "114214.465000", "114214.468000", "114214.471000", "114214.474000", "114254.435000", "114254.438000", "114254.441000", "114254.444000", "114254.447000", "114254.450000", "114254.453000", "114254.456000", "114254.459000", "114254.462000", "114254.464000", "114254.467000", "114254.470000", "114254.473000", "114254.476000", "114254.479000", "114254.482000", "114254.485000", "114254.488000", "114254.491000", "114254.494000", "114254.497000", "114254.500000", "114254.503000", "114254.506000", "114254.509000", "114254.512000", "114334.435000", "114334.438000", "114334.441000", "114334.444000", "114334.447000", "114334.450000", "114334.453000", "114334.456000", "114334.459000", "114334.462000", "114334.465000", "114334.468000", "114334.471000", "114334.474000", "114334.478000", "114334.481000", "114334.484000", "114334.487000", "114334.490000", "114334.493000", "114334.496000", "114334.499000", "114334.502000", "114334.505000", "114334.508000", "114334.511000", "114414.435000", "114414.438000", "114414.441000", "114414.445000", "114414.448000", "114414.451000", "114414.454000", "114414.457000", "114414.460000", "114414.463000", "114414.467000", "114414.470000", "114414.474000", "114414.477000", "114414.480000", "114414.483000", "114414.486000", "114414.489000", "114414.492000", "114414.495000", "114414.498000", "114414.501000", "114414.504000", "114414.507000", "114414.510000", "114414.513000", "114414.516000", "114454.435000", "114454.438000", "114454.441000", "114454.444000", "114454.447000", "114454.450000", "114454.453000", "114454.456000", "114454.459000", "114454.462000", "114454.465000", "114454.468000", "114454.471000", "114454.474000", "114454.477000", "114454.479000", "114454.482000", "114454.485000", "114454.489000", "114454.492000", "114454.495000", "114454.498000", "114454.501000", "114454.504000", "114454.507000", "114454.510000", "114454.513000", "114534.435000", "114534.439000", "114534.442000", "114534.445000", "114534.448000", "114534.450000", "114534.453000", "114534.456000", "114534.459000", "114534.462000", "114534.465000", "114534.468000", "114534.471000", "114534.474000", "114534.477000", "114534.480000", "114534.483000", "114534.486000", "114534.489000", "114534.492000", "114534.495000", "114534.498000", "114534.501000", "114534.504000", "114534.507000", "114534.509000", "114534.512000", "114614.435000", "114614.438000", "114614.441000", "114614.444000", "114614.447000", "114614.450000", "114614.453000", "114614.456000", "114614.459000", "114614.462000", "114614.465000", "114614.468000", "114614.471000", "114614.474000", "114614.476000", "114614.479000", "114614.482000", "114614.485000", "114614.488000", "114614.491000", "114614.494000", "114614.497000", "114614.500000", "114614.503000", "114614.506000", "114614.509000", "114614.512000", "114654.435000", "114654.438000", "114654.441000", "114654.444000", "114654.447000", "114654.450000", "114654.453000", "114654.456000", "114654.459000", "114654.462000", "114654.465000", "114654.468000", "114654.471000", "114654.474000", "114654.477000", "114654.480000", "114654.483000", "114654.486000", "114654.489000", "114654.492000", "114654.494000", "114654.497000", "114654.501000", "114654.504000", "114654.506000", "114654.509000", "114654.512000", "114718.143000", "114718.146000", "114718.149000", "114718.152000", "114718.155000", "114718.158000", "114718.161000", "114718.164000", "114718.179000", "114718.183000", "114718.186000", "114718.188000", "114718.191000", "114718.194000", "114718.197000", "114718.200000"],
