{
  "AcquisitionMatrixPE": 104,
  "AcquisitionNumber": 1,
  "AcquisitionTime": "09:57:11.510000",
  "BandwidthPerPixelPhaseEncode": 17.17,
  "BaseResolution": 104,
  "BodyPartExamined": "BRAIN",
  "CoilString": "HC1-7;NC1_2",
  "ConsistencyInfo": "N4_VE11C_LATEST_20160120",
  "ConversionSoftware": "dcm2niix",
  "ConversionSoftwareVersion": "v1.0.20190902",
  "DerivedVendorReportedEchoSpacing": 0.000560011,
  "DeviceSerialNumber": "167006",
  "DwellTime": 2.1e-06,
  "EchoTime": 0.037,
  "EchoTrainLength": 104,
  "EffectiveEchoSpacing": 0.000560011,
  "FlipAngle": 52,
  "ImageComments": "Unaliased_MB4_PE3_LB",
  "ImageOrientationPatientDICOM": [0.997644, -0.0407292, -0.0551985, 0.0278668, 0.975901, -0.216428],
  "ImageType": [
    "ORIGINAL",
    "PRIMARY",
    "M",
    "MB",
    "ND",
    "MOSAIC"
],
  "ImagingFrequency": 123.259,
  "InPlanePhaseEncodingDirectionDICOM": "COL",
  "InstitutionAddress": "Chemin_Queen-Mary_4565_Montreal_District_CA_H3W_1W5",
  "InstitutionName": "IUGM",
  "InstitutionalDepartmentName": "Department",
  "MRAcquisitionType": "2D",
  "MagneticFieldStrength": 3,
  "Manufacturer": "Siemens",
  "ManufacturersModelName": "Prisma_fit",
  "Modality": "MR",
  "MultibandAccelerationFactor": 4,
  "PartialFourier": 1,
  "PatientPosition": "HFS",
  "PercentPhaseFOV": 100,
  "PhaseEncodingDirection": "j",
  "PhaseEncodingSteps": 104,
  "PhaseResolution": 1,
  "PixelBandwidth": 2290,
  "ProcedureStepDescription": "video_friends",
  "ProtocolName": "func_task-friends-s04e06a",
  "PulseSequenceDetails": "%CustomerSeq%_cmrr_mbep2d_bold",
  "ReceiveCoilActiveElements": "HC1-7;NC1,2",
  "ReceiveCoilName": "HeadNeck_64",
  "ReconMatrixPE": 104,
  "RepetitionTime": 1.49,
  "SAR": 0.0305467,
  "ScanOptions": "FS",
  "ScanningSequence": "EP",
  "SequenceName": "epfid2d1_104",
  "SequenceVariant": "SK_SS",
  "SeriesDescription": "func_task-friends-s04e06a",
  "SeriesNumber": 20,
  "ShimSetting": [600, -7259, -8838, 587, -44, -324, -4, 40],
  "SliceThickness": 2,
  "SliceTiming": [0, 0.785, 0.0975, 0.8825, 0.1975, 0.98, 0.295, 1.0775, 0.3925, 1.1775, 0.49, 1.275, 0.5875, 1.3725, 0.6875, 0, 0.785, 0.0975, 0.8825, 0.1975, 0.98, 0.295, 1.0775, 0.3925, 1.1775, 0.49, 1.275, 0.5875, 1.3725, 0.6875, 0, 0.785, 0.0975, 0.8825, 0.1975, 0.98, 0.295, 1.0775, 0.3925, 1.1775, 0.49, 1.275, 0.5875, 1.3725, 0.6875, 0, 0.785, 0.0975, 0.8825, 0.1975, 0.98, 0.295, 1.0775, 0.3925, 1.1775, 0.49, 1.275, 0.5875, 1.3725, 0.6875],
  "SoftwareVersions": "syngo_MR_E11",
  "SpacingBetweenSlices": 2,
  "StationName": "MRC35049",
  "TaskName": "s04e06a",
  "TotalReadoutTime": 0.0576811,
  "TxRefAmp": 220.049,
  "WipMemBlock": "ea076c07-e59c-4ca2-88d8-4dfa8d294a1b||Sequence: R016 ve11c/master r/e634e98; Dec 19 2017 11:00:25 by eja",
  "dcmmeta_affine": [
    [-1.9952887296676636, 0.05573355406522751, -0.12536650896072388, 98.77571868896484],
    [0.08145841211080551, 1.9518014192581177, -0.4287606179714203, -86.84490966796875],
    [-0.1103970855474472, 0.4328566789627075, 1.9494737386703491, -48.732059478759766],
    [0.0, 0.0, 0.0, 1.0]
],
  "dcmmeta_reorient_transform": [
    [0.0, -1.0, 0.0, 103.0],
    [1.0, 0.0, 0.0, 0.0],
    [0.0, 0.0, 1.0, 0.0],
    [0.0, 0.0, 0.0, 1.0]
],
  "dcmmeta_shape": [104, 104, 60, 465],
  "dcmmeta_slice_dim": 2,
  "dcmmeta_version": 0.6,
  "global": {
    "const": {
      "AcquisitionMatrix": [104, 0, 0, 104],
      "AngioFlag": "N",
      "BitsAllocated": 16,
      "BitsStored": 16,
      "BodyPartExamined": "BRAIN",
      "Columns": 832,
      "EchoNumbers": 1,
      "EchoTime": 37.0,
      "EchoTrainLength": 104,
      "FlipAngle": 52.0,
      "HighBit": 15,
      "ImageOrientationPatient": [0.99764435178942, -0.0407292058651, -0.0551985428456, 0.02786677678359, 0.97590072093481, -0.2164283383261],
      "ImagePositionPatient": [-851.08837547551, -794.99550273834, 193.59654670228],
      "ImageType": [
        "ORIGINAL",
        "PRIMARY",
        "M",
        "MB",
        "ND",
        "MOSAIC"
],
      "ImagedNucleus": "1H",
      "ImagingFrequency": 123.259035,
      "InPlanePhaseEncodingDirection": "COL",
      "MRAcquisitionType": "2D",
      "MagneticFieldStrength": 3.0,
      "Manufacturer": "SIEMENS",
      "ManufacturerModelName": "Prisma_fit",
      "Modality": "MR",
      "NumberOfAverages": 1.0,
      "NumberOfPhaseEncodingSteps": 104,
      "PercentPhaseFieldOfView": 100.0,
      "PercentSampling": 100.0,
      "PerformedProcedureStepStartTime": "090015.093000",
      "PhotometricInterpretation": "MONOCHROME2",
      "PixelBandwidth": 2290.0,
      "PixelRepresentation": 0,
      "PixelSpacing": [2.0, 2.0],
      "ProtocolName": "func_task-friends-s04e06a",
      "RepetitionTime": 1490.0,
      "Rows": 832,
      "SAR": 0.0305467002475,
      "SamplesPerPixel": 1,
      "ScanOptions": "FS",
      "ScanningSequence": "EP",
      "SequenceName": "epfid2d1_104",
      "SequenceVariant": [
        "SK",
        "SS"
],
      "SeriesDescription": "func_task-friends-s04e06a",
      "SeriesNumber": 20,
      "SeriesTime": "095813.692000",
      "SliceLocation": -35.074679646098,
      "SliceThickness": 2.0,
      "SmallestImagePixelValue": 0,
      "SoftwareVersions": "syngo MR E11",
      "SpacingBetweenSlices": 2.0000000789912,
      "SpecificCharacterSet": "ISO_IR 100",
      "StudyID": "1",
      "StudyTime": "090014.979000",
      "TransmitCoilName": "Body",
      "VariableFlipAngleFlag": "N",
      "WindowCenterWidthExplanation": "Algo1",
      "dBdt": 0.0},
    "slices": {}
  },
  "time": {
    "samples": {
      "AcquisitionNumber": [1, 2, 3, 4, 5, 6, 7, 8, 9, 10, 11, 12, 13, 14, 15, 16, 17, 18, 19, 20, 21, 22, 23, 24, 25, 26, 27, 28, 29, 30, 31, 32, 33, 34, 35, 36, 37, 38, 39, 40, 41, 42, 43, 44, 45, 46, 47, 48, 49, 50, 51, 52, 53, 54, 55, 56, 57, 58, 59, 60, 61, 62, 63, 64, 65, 66, 67, 68, 69, 70, 71, 72, 73, 74, 75, 76, 77, 78, 79, 80, 81, 82, 83, 84, 85, 86, 87, 88, 89, 90, 91, 92, 93, 94, 95, 96, 97, 98, 99, 100, 101, 102, 103, 104, 105, 106, 107, 108, 109, 110, 111, 112, 113, 114, 115, 116, 117, 118, 119, 120, 121, 122, 123, 124, 125, 126, 127, 128, 129, 130, 131, 132, 133, 134, 135, 136, 137, 138, 139, 140, 141, 142, 143, 144, 145, 146, 147, 148, 149, 150, 151, 152, 153, 154, 155, 156, 157, 158, 159, 160, 161, 162, 163, 164, 165, 166, 167, 168, 169, 170, 171, 172, 173, 174, 175, 176, 177, 178, 179, 180, 181, 182, 183, 184, 185, 186, 187, 188, 189, 190, 191, 192, 193, 194, 195, 196, 197, 198, 199, 200, 201, 202, 203, 204, 205, 206, 207, 208, 209, 210, 211, 212, 213, 214, 215, 216, 217, 218, 219, 220, 221, 222, 223, 224, 225, 226, 227, 228, 229, 230, 231, 232, 233, 234, 235, 236, 237, 238, 239, 240, 241, 242, 243, 244, 245, 246, 247, 248, 249, 250, 251, 252, 253, 254, 255, 256, 257, 258, 259, 260, 261, 262, 263, 264, 265, 266, 267, 268, 269, 270, 271, 272, 273, 274, 275, 276, 277, 278, 279, 280, 281, 282, 283, 284, 285, 286, 287, 288, 289, 290, 291, 292, 293, 294, 295, 296, 297, 298, 299, 300, 301, 302, 303, 304, 305, 306, 307, 308, 309, 310, 311, 312, 313, 314, 315, 316, 317, 318, 319, 320, 321, 322, 323, 324, 325, 326, 327, 328, 329, 330, 331, 332, 333, 334, 335, 336, 337, 338, 339, 340, 341, 342, 343, 344, 345, 346, 347, 348, 349, 350, 351, 352, 353, 354, 355, 356, 357, 358, 359, 360, 361, 362, 363, 364, 365, 366, 367, 368, 369, 370, 371, 372, 373, 374, 375, 376, 377, 378, 379, 380, 381, 382, 383, 384, 385, 386, 387, 388, 389, 390, 391, 392, 393, 394, 395, 396, 397, 398, 399, 400, 401, 402, 403, 404, 405, 406, 407, 408, 409, 410, 411, 412, 413, 414, 415, 416, 417, 418, 419, 420, 421, 422, 423, 424, 425, 426, 427, 428, 429, 430, 431, 432, 433, 434, 435, 436, 437, 438, 439, 440, 441, 442, 443, 444, 445, 446, 447, 448, 449, 450, 451, 452, 453, 454, 455, 456, 457, 458, 459, 460, 461, 462, 463, 464, 465],
      "AcquisitionTime": ["095711.510000", "095713.000000", "095714.490000", "095715.980000", "095717.470000", "095718.960000", "095720.450000", "095721.940000", "095723.430000", "095724.920000", "095726.410000", "095727.900000", "095729.390000", "095730.880000", "095732.370000", "095733.860000", "095735.350000", "095736.840000", "095738.330000", "095739.820000", "095741.310000", "095742.800000", "095744.290000", "095745.780000", "095747.270000", "095748.760000", "095750.250000", "095751.740000", "095753.230000", "095754.720000", "095756.210000", "095757.700000", "095759.190000", "095800.680000", "095802.170000", "095803.660000", "095805.150000", "095806.640000", "095808.130000", "095809.620000", "095811.110000", "095812.600000", "095814.090000", "095815.580000", "095817.070000", "095818.560000", "095820.050000", "095821.540000", "095823.030000", "095824.520000", "095826.010000", "095827.500000", "095828.990000", "095830.480000", "095831.970000", "095833.460000", "095834.950000", "095836.440000", "095837.930000", "095839.420000", "095840.910000", "095842.400000", "095843.890000", "095845.380000", "095846.870000", "095848.360000", "095849.850000", "095851.340000", "095852.830000", "095854.320000", "095855.810000", "095857.300000", "095858.790000", "095900.280000", "095901.770000", "095903.260000", "095904.750000", "095906.240000", "095907.730000", "095909.220000", "095910.710000", "095912.200000", "095913.690000", "095915.180000", "095916.670000", "095918.160000", "095919.650000", "095921.140000", "095922.630000", "095924.120000", "095925.610000", "095927.100000", "095928.590000", "095930.080000", "095931.570000", "095933.060000", "095934.550000", "095936.040000", "095937.530000", "095939.020000", "095940.510000", "095942.000000", "095943.490000", "095944.980000", "095946.470000", "095947.960000", "095949.450000", "095950.940000", "095952.430000", "095953.920000", "095955.410000", "095956.900000", "095958.390000", "095959.880000", "100001.370000", "100002.860000", "100004.350000", "100005.840000", "100007.330000", "100008.820000", "100010.310000", "100011.800000", "100013.290000", "100014.780000", "100016.270000", "100017.760000", "100019.250000", "100020.740000", "100022.230000", "100023.720000", "100025.210000", "100026.700000", "100028.190000", "100029.680000", "100031.170000", "100032.660000", "100034.150000", "100035.640000", "100037.130000", "100038.620000", "100040.110000", "100041.600000", "100043.090000", "100044.580000", "100046.070000", "100047.560000", "100049.050000", "100050.540000", "100052.030000", "100053.520000", "100055.010000", "100056.500000", "100057.990000", "100059.480000", "100100.970000", "100102.460000", "100103.950000", "100105.440000", "100106.930000", "100108.420000", "100109.910000", "100111.400000", "100112.890000", "100114.380000", "100115.870000", "100117.360000", "100118.850000", "100120.340000", "100121.830000", "100123.320000", "100124.810000", "100126.300000", "100127.790000", "100129.280000", "100130.770000", "100132.260000", "100133.750000", "100135.240000", "100136.730000", "100138.220000", "100139.710000", "100141.200000", "100142.690000", "100144.180000", "100145.670000", "100147.160000", "100148.650000", "100150.140000", "100151.630000", "100153.120000", "100154.610000", "100156.100000", "100157.590000", "100159.080000", "100200.570000", "100202.060000", "100203.550000", "100205.040000", "100206.530000", "100208.020000", "100209.510000", "100211.000000", "100212.490000", "100213.980000", "100215.470000", "100216.960000", "100218.450000", "100219.940000", "100221.430000", "100222.920000", "100224.410000", "100225.900000", "100227.390000", "100228.880000", "100230.370000", "100231.860000", "100233.350000", "100234.840000", "100236.330000", "100237.820000", "100239.310000", "100240.800000", "100242.290000", "100243.780000", "100245.270000", "100246.760000", "100248.250000", "100249.740000", "100251.230000", "100252.720000", "100254.210000", "100255.700000", "100257.190000", "100258.680000", "100300.170000", "100301.660000", "100303.150000", "100304.640000", "100306.130000", "100307.620000", "100309.110000", "100310.600000", "100312.090000", "100313.580000", "100315.070000", "100316.560000", "100318.050000", "100319.540000", "100321.030000", "100322.520000", "100324.010000", "100325.500000", "100326.990000", "100328.480000", "100329.970000", "100331.460000", "100332.950000", "100334.440000", "100335.930000", "100337.420000", "100338.910000", "100340.400000", "100341.890000", "100343.380000", "100344.870000", "100346.360000", "100347.850000", "100349.340000", "100350.830000", "100352.320000", "100353.810000", "100355.300000", "100356.790000", "100358.280000", "100359.770000", "100401.260000", "100402.750000", "100404.240000", "100405.730000", "100407.220000", "100408.710000", "100410.200000", "100411.690000", "100413.180000", "100414.670000", "100416.160000", "100417.650000", "100419.140000", "100420.630000", "100422.120000", "100423.610000", "100425.100000", "100426.590000", "100428.080000", "100429.570000", "100431.060000", "100432.550000", "100434.040000", "100435.530000", "100437.020000", "100438.510000", "100440.000000", "100441.490000", "100442.980000", "100444.470000", "100445.960000", "100447.450000", "100448.940000", "100450.430000", "100451.920000", "100453.410000", "100454.900000", "100456.390000", "100457.880000", "100459.370000", "100500.860000", "100502.350000", "100503.840000", "100505.330000", "100506.820000", "100508.310000", "100509.800000", "100511.290000", "100512.780000", "100514.270000", "100515.760000", "100517.250000", "100518.740000", "100520.230000", "100521.720000", "100523.210000", "100524.700000", "100526.190000", "100527.680000", "100529.170000", "100530.660000", "100532.150000", "100533.640000", "100535.130000", "100536.620000", "100538.110000", "100539.600000", "100541.090000", "100542.580000", "100544.070000", "100545.560000", "100547.050000", "100548.540000", "100550.030000", "100551.520000", "100553.010000", "100554.500000", "100555.990000", "100557.480000", "100558.970000", "100600.460000", "100601.950000", "100603.440000", "100604.930000", "100606.420000", "100607.910000", "100609.400000", "100610.890000", "100612.380000", "100613.870000", "100615.360000", "100616.850000", "100618.340000", "100619.830000", "100621.320000", "100622.810000", "100624.300000", "100625.790000", "100627.280000", "100628.770000", "100630.260000", "100631.750000", "100633.240000", "100634.730000", "100636.220000", "100637.710000", "100639.200000", "100640.690000", "100642.180000", "100643.670000", "100645.160000", "100646.650000", "100648.140000", "100649.630000", "100651.120000", "100652.610000", "100654.100000", "100655.590000", "100657.080000", "100658.570000", "100700.060000", "100701.550000", "100703.040000", "100704.530000", "100706.020000", "100707.510000", "100709.000000", "100710.490000", "100711.980000", "100713.470000", "100714.960000", "100716.450000", "100717.940000", "100719.430000", "100720.920000", "100722.410000", "100723.900000", "100725.390000", "100726.880000", "100728.370000", "100729.860000", "100731.350000", "100732.840000", "100734.330000", "100735.820000", "100737.310000", "100738.800000", "100740.290000", "100741.780000", "100743.270000", "100744.760000", "100746.250000", "100747.740000", "100749.230000", "100750.720000", "100752.210000", "100753.700000", "100755.190000", "100756.680000", "100758.170000", "100759.660000", "100801.150000", "100802.640000", "100804.130000", "100805.620000", "100807.110000", "100808.600000", "100810.090000", "100811.580000", "100813.070000", "100814.560000", "100816.050000", "100817.540000", "100819.030000", "100820.520000", "100822.010000", "100823.500000", "100824.990000", "100826.480000", "100827.970000", "100829.460000", "100830.950000", "100832.440000", "100833.930000", "100835.420000", "100836.910000", "100838.400000", "100839.890000", "100841.380000", "100842.870000"],
      "ContentTime": ["095813.695000", "095833.661000", "095833.665000", "095833.668000", "095833.671000", "095833.674000", "095833.677000", "095833.679000", "095833.682000", "095833.685000", "095833.688000", "095833.690000", "095833.693000", "095833.696000", "095833.699000", "095833.702000", "095833.704000", "095833.707000", "095833.710000", "095833.713000", "095833.716000", "095853.661000", "095853.664000", "095853.667000", "095853.669000", "095853.672000", "095853.675000", "095853.678000", "095853.680000", "095853.683000", "095853.686000", "095853.689000", "095853.692000", "095853.694000", "095853.697000", "095853.700000", "095853.703000", "095853.706000", "095853.708000", "095853.711000", "095853.714000", "095913.660000", "095913.674000", "095913.677000", "095913.680000", "095913.683000", "095913.686000", "095913.688000", "095913.691000", "095913.694000", "095913.697000", "095913.699000", "095913.702000", "095913.705000", "095913.708000", "095913.711000", "095913.713000", "095913.716000", "095913.719000", "095913.722000", "095913.724000", "095933.660000", "095933.663000", "095933.666000", "095933.668000", "095933.671000", "095933.674000", "095933.677000", "095933.680000", "095933.682000", "095933.685000", "095933.688000", "095933.691000", "095933.694000", "095933.696000", "095933.699000", "095933.702000", "095933.711000", "095933.714000", "095933.728000", "095933.731000", "095953.661000", "095953.664000", "095953.666000", "095953.669000", "095953.672000", "095953.675000", "095953.678000", "095953.681000", "095953.683000", "095953.686000", "095953.689000", "095953.692000", "095953.695000", "095953.697000", "095953.700000", "095953.703000", "095953.706000", "095953.709000", "095953.711000", "095953.714000", "100013.661000", "100013.664000", "100013.667000", "100013.669000", "100013.672000", "100013.675000", "100013.678000", "100013.681000", "100013.683000", "100013.686000", "100013.689000", "100013.692000", "100013.695000", "100013.697000", "100013.700000", "100013.703000", "100013.706000", "100013.709000", "100013.712000", "100013.715000", "100053.661000", "100053.664000", "100053.667000", "100053.669000", "100053.672000", "100053.675000", "100053.678000", "100053.680000", "100053.683000", "100053.686000", "100053.689000", "100053.692000", "100053.695000", "100053.697000", "100053.700000", "100053.703000", "100053.706000", "100053.709000", "100053.711000", "100053.714000", "100053.717000", "100053.720000", "100053.722000", "100053.725000", "100053.728000", "100053.731000", "100053.734000", "100133.660000", "100133.663000", "100133.666000", "100133.669000", "100133.672000", "100133.674000", "100133.677000", "100133.680000", "100133.683000", "100133.686000", "100133.688000", "100133.691000", "100133.694000", "100133.697000", "100133.700000", "100133.703000", "100133.705000", "100133.708000", "100133.711000", "100133.714000", "100133.717000", "100133.720000", "100133.722000", "100133.725000", "100133.728000", "100133.731000", "100133.734000", "100213.661000", "100213.664000", "100213.667000", "100213.669000", "100213.672000", "100213.675000", "100213.678000", "100213.681000", "100213.683000", "100213.686000", "100213.689000", "100213.692000", "100213.695000", "100213.698000", "100213.701000", "100213.703000", "100213.706000", "100213.709000", "100213.712000", "100213.715000", "100213.717000", "100213.720000", "100213.723000", "100213.726000", "100213.729000", "100213.732000", "100213.734000", "100253.661000", "100253.664000", "100253.667000", "100253.670000", "100253.672000", "100253.675000", "100253.678000", "100253.681000", "100253.684000", "100253.687000", "100253.689000", "100253.692000", "100253.695000", "100253.698000", "100253.701000", "100253.703000", "100253.706000", "100253.709000", "100253.712000", "100253.715000", "100253.717000", "100253.720000", "100253.723000", "100253.726000", "100253.729000", "100253.731000", "100253.734000", "100333.661000", "100333.664000", "100333.667000", "100333.669000", "100333.672000", "100333.675000", "100333.678000", "100333.681000", "100333.684000", "100333.689000", "100333.692000", "100333.695000", "100333.698000", "100333.700000", "100333.703000", "100333.706000", "100333.709000", "100333.712000", "100333.715000", "100333.717000", "100333.720000", "100333.723000", "100333.726000", "100333.729000", "100333.731000", "100333.734000", "100333.737000", "100413.660000", "100413.663000", "100413.666000", "100413.669000", "100413.672000", "100413.675000", "100413.678000", "100413.680000", "100413.683000", "100413.686000", "100413.689000", "100413.692000", "100413.694000", "100413.697000", "100413.700000", "100413.703000", "100413.706000", "100413.709000", "100413.711000", "100413.714000", "100413.717000", "100413.720000", "100413.723000", "100413.725000", "100413.728000", "100413.731000", "100453.661000", "100453.664000", "100453.667000", "100453.670000", "100453.672000", "100453.675000", "100453.678000", "100453.681000", "100453.684000", "100453.686000", "100453.689000", "100453.692000", "100453.710000", "100453.712000", "100453.715000", "100453.718000", "100453.721000", "100453.724000", "100453.726000", "100453.729000", "100453.732000", "100453.735000", "100453.738000", "100453.740000", "100453.743000", "100453.746000", "100453.749000", "100533.661000", "100533.664000", "100533.667000", "100533.670000", "100533.672000", "100533.675000", "100533.678000", "100533.681000", "100533.684000", "100533.686000", "100533.689000", "100533.692000", "100533.695000", "100533.698000", "100533.701000", "100533.703000", "100533.706000", "100533.709000", "100533.712000", "100533.715000", "100533.718000", "100533.720000", "100533.723000", "100533.726000", "100533.729000", "100533.732000", "100533.734000", "100613.660000", "100613.663000", "100613.666000", "100613.669000", "100613.671000", "100613.674000", "100613.677000", "100613.680000", "100613.683000", "100613.685000", "100613.688000", "100613.691000", "100613.694000", "100613.697000", "100613.700000", "100613.703000", "100613.705000", "100613.708000", "100613.711000", "100613.714000", "100613.717000", "100613.719000", "100613.722000", "100613.725000", "100613.728000", "100613.731000", "100613.734000", "100653.661000", "100653.664000", "100653.667000", "100653.670000", "100653.673000", "100653.676000", "100653.678000", "100653.681000", "100653.684000", "100653.687000", "100653.690000", "100653.692000", "100653.695000", "100653.698000", "100653.701000", "100653.704000", "100653.707000", "100653.709000", "100653.712000", "100653.715000", "100653.718000", "100653.721000", "100653.724000", "100653.726000", "100653.729000", "100653.732000", "100653.735000", "100713.661000", "100713.664000", "100713.667000", "100713.670000", "100713.672000", "100713.675000", "100713.683000", "100713.686000", "100713.689000", "100713.692000", "100713.695000", "100713.697000", "100713.700000", "100753.661000", "100753.664000", "100753.667000", "100753.669000", "100753.672000", "100753.675000", "100753.678000", "100753.681000", "100753.684000", "100753.686000", "100753.689000", "100753.692000", "100753.695000", "100753.698000", "100753.701000", "100753.703000", "100753.706000", "100753.709000", "100753.712000", "100753.715000", "100753.717000", "100753.720000", "100753.723000", "100753.726000", "100753.729000", "100753.732000", "100753.735000", "100833.660000", "100833.663000", "100833.666000", "100833.668000", "100833.671000", "100833.674000", "100833.677000", "100833.680000", "100833.683000", "100833.686000", "100833.688000", "100833.691000", "100833.694000", "100833.697000", "100833.700000", "100833.703000", "100833.705000", "100833.708000", "100833.711000", "100833.714000", "100833.717000", "100833.719000", "100833.722000", "100833.725000", "100833.728000", "100833.731000", "100833.733000", "100844.897000", "100844.900000", "100844.903000", "100844.906000", "100844.909000", "100844.912000", "100844.923000", "100844.926000"],
