{
  "AcquisitionMatrixPE": 104,
  "AcquisitionNumber": 1,
  "AcquisitionTime": "10:09:18.162500",
  "BandwidthPerPixelPhaseEncode": 17.17,
  "BaseResolution": 104,
  "BodyPartExamined": "BRAIN",
  "CoilString": "HC1-7;NC1_2",
  "ConsistencyInfo": "N4_VE11C_LATEST_20160120",
  "ConversionSoftware": "dcm2niix",
  "ConversionSoftwareVersion": "v1.0.20190902",
  "DerivedVendorReportedEchoSpacing": 0.000560011,
  "DeviceSerialNumber": "167006",
  "DwellTime": 2.1e-06,
  "EchoTime": 0.037,
  "EchoTrainLength": 104,
  "EffectiveEchoSpacing": 0.000560011,
  "FlipAngle": 52,
  "ImageComments": "Unaliased_MB4_PE3_LB",
  "ImageOrientationPatientDICOM": [0.997644, -0.0407292, -0.0551985, 0.0278668, 0.975901, -0.216428],
  "ImageType": [
    "ORIGINAL",
    "PRIMARY",
    "M",
    "MB",
    "ND",
    "MOSAIC"
],
  "ImagingFrequency": 123.259,
  "InPlanePhaseEncodingDirectionDICOM": "COL",
  "InstitutionAddress": "Chemin_Queen-Mary_4565_Montreal_District_CA_H3W_1W5",
  "InstitutionName": "IUGM",
  "InstitutionalDepartmentName": "Department",
  "MRAcquisitionType": "2D",
  "MagneticFieldStrength": 3,
  "Manufacturer": "Siemens",
  "ManufacturersModelName": "Prisma_fit",
  "Modality": "MR",
  "MultibandAccelerationFactor": 4,
  "PartialFourier": 1,
  "PatientPosition": "HFS",
  "PercentPhaseFOV": 100,
  "PhaseEncodingDirection": "j",
  "PhaseEncodingSteps": 104,
  "PhaseResolution": 1,
  "PixelBandwidth": 2290,
  "ProcedureStepDescription": "video_friends",
  "ProtocolName": "func_task-friends-s04e06b",
  "PulseSequenceDetails": "%CustomerSeq%_cmrr_mbep2d_bold",
  "ReceiveCoilActiveElements": "HC1-7;NC1,2",
  "ReceiveCoilName": "HeadNeck_64",
  "ReconMatrixPE": 104,
  "RepetitionTime": 1.49,
  "SAR": 0.0305467,
  "ScanOptions": "FS",
  "ScanningSequence": "EP",
  "SequenceName": "epfid2d1_104",
  "SequenceVariant": "SK_SS",
  "SeriesDescription": "func_task-friends-s04e06b",
  "SeriesNumber": 22,
  "ShimSetting": [600, -7259, -8838, 587, -44, -324, -4, 40],
  "SliceThickness": 2,
  "SliceTiming": [0, 0.7825, 0.0975, 0.88, 0.195, 0.98, 0.2925, 1.0775, 0.39, 1.175, 0.49, 1.2725, 0.5875, 1.37, 0.685, 0, 0.7825, 0.0975, 0.88, 0.195, 0.98, 0.2925, 1.0775, 0.39, 1.175, 0.49, 1.2725, 0.5875, 1.37, 0.685, 0, 0.7825, 0.0975, 0.88, 0.195, 0.98, 0.2925, 1.0775, 0.39, 1.175, 0.49, 1.2725, 0.5875, 1.37, 0.685, 0, 0.7825, 0.0975, 0.88, 0.195, 0.98, 0.2925, 1.0775, 0.39, 1.175, 0.49, 1.2725, 0.5875, 1.37, 0.685],
  "SoftwareVersions": "syngo_MR_E11",
  "SpacingBetweenSlices": 2,
  "StationName": "MRC35049",
  "TaskName": "s04e06b",
  "TotalReadoutTime": 0.0576811,
  "TxRefAmp": 220.049,
  "WipMemBlock": "dcaaef83-77ed-43f8-8ee8-d72bd8de9547||Sequence: R016 ve11c/master r/e634e98; Dec 19 2017 11:00:25 by eja",
  "dcmmeta_affine": [
    [-1.9952887296676636, 0.05573355406522751, -0.12536650896072388, 98.77571868896484],
    [0.08145841211080551, 1.9518014192581177, -0.4287606179714203, -86.84490966796875],
    [-0.1103970855474472, 0.4328566789627075, 1.9494737386703491, -48.732059478759766],
    [0.0, 0.0, 0.0, 1.0]
],
  "dcmmeta_reorient_transform": [
    [0.0, -1.0, 0.0, 103.0],
    [1.0, 0.0, 0.0, 0.0],
    [0.0, 0.0, 1.0, 0.0],
    [0.0, 0.0, 0.0, 1.0]
],
  "dcmmeta_shape": [104, 104, 60, 465],
  "dcmmeta_slice_dim": 2,
  "dcmmeta_version": 0.6,
  "global": {
    "const": {
      "AcquisitionMatrix": [104, 0, 0, 104],
      "AngioFlag": "N",
      "BitsAllocated": 16,
      "BitsStored": 16,
      "BodyPartExamined": "BRAIN",
      "Columns": 832,
      "EchoNumbers": 1,
      "EchoTime": 37.0,
      "EchoTrainLength": 104,
      "FlipAngle": 52.0,
      "HighBit": 15,
      "ImageOrientationPatient": [0.99764435178942, -0.0407292058651, -0.0551985428456, 0.02786677678359, 0.97590072093481, -0.2164283383261],
      "ImagePositionPatient": [-851.08837547551, -794.99550273834, 193.59654670228],
      "ImageType": [
        "ORIGINAL",
        "PRIMARY",
        "M",
        "MB",
        "ND",
        "MOSAIC"
],
      "ImagedNucleus": "1H",
      "ImagingFrequency": 123.259039,
      "InPlanePhaseEncodingDirection": "COL",
      "MRAcquisitionType": "2D",
      "MagneticFieldStrength": 3.0,
      "Manufacturer": "SIEMENS",
      "ManufacturerModelName": "Prisma_fit",
      "Modality": "MR",
      "NumberOfAverages": 1.0,
      "NumberOfPhaseEncodingSteps": 104,
      "PercentPhaseFieldOfView": 100.0,
      "PercentSampling": 100.0,
      "PerformedProcedureStepStartTime": "090015.093000",
      "PhotometricInterpretation": "MONOCHROME2",
      "PixelBandwidth": 2290.0,
      "PixelRepresentation": 0,
      "PixelSpacing": [2.0, 2.0],
      "ProtocolName": "func_task-friends-s04e06b",
      "RepetitionTime": 1490.0,
      "Rows": 832,
      "SAR": 0.0305467002475,
      "SamplesPerPixel": 1,
      "ScanOptions": "FS",
      "ScanningSequence": "EP",
      "SequenceName": "epfid2d1_104",
      "SequenceVariant": [
        "SK",
        "SS"
],
      "SeriesDescription": "func_task-friends-s04e06b",
      "SeriesNumber": 22,
      "SeriesTime": "101040.831000",
      "SliceLocation": -35.074679646098,
      "SliceThickness": 2.0,
      "SmallestImagePixelValue": 0,
      "SoftwareVersions": "syngo MR E11",
      "SpacingBetweenSlices": 2.0000000789912,
      "SpecificCharacterSet": "ISO_IR 100",
      "StudyID": "1",
      "StudyTime": "090014.979000",
      "TransmitCoilName": "Body",
      "VariableFlipAngleFlag": "N",
      "WindowCenterWidthExplanation": "Algo1",
      "dBdt": 0.0},
    "slices": {}
  },
  "time": {
    "samples": {
      "AcquisitionNumber": [1, 2, 3, 4, 5, 6, 7, 8, 9, 10, 11, 12, 13, 14, 15, 16, 17, 18, 19, 20, 21, 22, 23, 24, 25, 26, 27, 28, 29, 30, 31, 32, 33, 34, 35, 36, 37, 38, 39, 40, 41, 42, 43, 44, 45, 46, 47, 48, 49, 50, 51, 52, 53, 54, 55, 56, 57, 58, 59, 60, 61, 62, 63, 64, 65, 66, 67, 68, 69, 70, 71, 72, 73, 74, 75, 76, 77, 78, 79, 80, 81, 82, 83, 84, 85, 86, 87, 88, 89, 90, 91, 92, 93, 94, 95, 96, 97, 98, 99, 100, 101, 102, 103, 104, 105, 106, 107, 108, 109, 110, 111, 112, 113, 114, 115, 116, 117, 118, 119, 120, 121, 122, 123, 124, 125, 126, 127, 128, 129, 130, 131, 132, 133, 134, 135, 136, 137, 138, 139, 140, 141, 142, 143, 144, 145, 146, 147, 148, 149, 150, 151, 152, 153, 154, 155, 156, 157, 158, 159, 160, 161, 162, 163, 164, 165, 166, 167, 168, 169, 170, 171, 172, 173, 174, 175, 176, 177, 178, 179, 180, 181, 182, 183, 184, 185, 186, 187, 188, 189, 190, 191, 192, 193, 194, 195, 196, 197, 198, 199, 200, 201, 202, 203, 204, 205, 206, 207, 208, 209, 210, 211, 212, 213, 214, 215, 216, 217, 218, 219, 220, 221, 222, 223, 224, 225, 226, 227, 228, 229, 230, 231, 232, 233, 234, 235, 236, 237, 238, 239, 240, 241, 242, 243, 244, 245, 246, 247, 248, 249, 250, 251, 252, 253, 254, 255, 256, 257, 258, 259, 260, 261, 262, 263, 264, 265, 266, 267, 268, 269, 270, 271, 272, 273, 274, 275, 276, 277, 278, 279, 280, 281, 282, 283, 284, 285, 286, 287, 288, 289, 290, 291, 292, 293, 294, 295, 296, 297, 298, 299, 300, 301, 302, 303, 304, 305, 306, 307, 308, 309, 310, 311, 312, 313, 314, 315, 316, 317, 318, 319, 320, 321, 322, 323, 324, 325, 326, 327, 328, 329, 330, 331, 332, 333, 334, 335, 336, 337, 338, 339, 340, 341, 342, 343, 344, 345, 346, 347, 348, 349, 350, 351, 352, 353, 354, 355, 356, 357, 358, 359, 360, 361, 362, 363, 364, 365, 366, 367, 368, 369, 370, 371, 372, 373, 374, 375, 376, 377, 378, 379, 380, 381, 382, 383, 384, 385, 386, 387, 388, 389, 390, 391, 392, 393, 394, 395, 396, 397, 398, 399, 400, 401, 402, 403, 404, 405, 406, 407, 408, 409, 410, 411, 412, 413, 414, 415, 416, 417, 418, 419, 420, 421, 422, 423, 424, 425, 426, 427, 428, 429, 430, 431, 432, 433, 434, 435, 436, 437, 438, 439, 440, 441, 442, 443, 444, 445, 446, 447, 448, 449, 450, 451, 452, 453, 454, 455, 456, 457, 458, 459, 460, 461, 462, 463, 464, 465],
      "AcquisitionTime": ["100918.162500", "100919.652500", "100921.142500", "100922.632500", "100924.122500", "100925.612500", "100927.102500", "100928.592500", "100930.082500", "100931.572500", "100933.062500", "100934.552500", "100936.042500", "100937.532500", "100939.022500", "100940.512500", "100942.002500", "100943.492500", "100944.982500", "100946.472500", "100947.962500", "100949.452500", "100950.942500", "100952.432500", "100953.922500", "100955.412500", "100956.902500", "100958.392500", "100959.882500", "101001.372500", "101002.862500", "101004.352500", "101005.842500", "101007.332500", "101008.822500", "101010.312500", "101011.802500", "101013.292500", "101014.782500", "101016.272500", "101017.762500", "101019.252500", "101020.742500", "101022.232500", "101023.722500", "101025.212500", "101026.702500", "101028.192500", "101029.682500", "101031.172500", "101032.662500", "101034.152500", "101035.642500", "101037.132500", "101038.622500", "101040.112500", "101041.602500", "101043.092500", "101044.582500", "101046.072500", "101047.562500", "101049.052500", "101050.542500", "101052.032500", "101053.522500", "101055.012500", "101056.502500", "101057.992500", "101059.482500", "101100.972500", "101102.462500", "101103.952500", "101105.442500", "101106.932500", "101108.422500", "101109.912500", "101111.402500", "101112.892500", "101114.382500", "101115.872500", "101117.362500", "101118.852500", "101120.342500", "101121.832500", "101123.322500", "101124.812500", "101126.302500", "101127.792500", "101129.282500", "101130.772500", "101132.262500", "101133.752500", "101135.242500", "101136.732500", "101138.222500", "101139.712500", "101141.202500", "101142.692500", "101144.182500", "101145.672500", "101147.162500", "101148.652500", "101150.142500", "101151.632500", "101153.122500", "101154.612500", "101156.102500", "101157.592500", "101159.082500", "101200.572500", "101202.062500", "101203.552500", "101205.042500", "101206.532500", "101208.022500", "101209.512500", "101211.002500", "101212.492500", "101213.982500", "101215.472500", "101216.962500", "101218.452500", "101219.942500", "101221.432500", "101222.922500", "101224.412500", "101225.902500", "101227.392500", "101228.882500", "101230.372500", "101231.862500", "101233.352500", "101234.842500", "101236.332500", "101237.822500", "101239.312500", "101240.802500", "101242.292500", "101243.782500", "101245.272500", "101246.762500", "101248.252500", "101249.742500", "101251.232500", "101252.722500", "101254.212500", "101255.702500", "101257.192500", "101258.682500", "101300.172500", "101301.662500", "101303.152500", "101304.642500", "101306.132500", "101307.622500", "101309.112500", "101310.602500", "101312.092500", "101313.582500", "101315.072500", "101316.562500", "101318.052500", "101319.542500", "101321.032500", "101322.522500", "101324.012500", "101325.502500", "101326.992500", "101328.482500", "101329.972500", "101331.462500", "101332.952500", "101334.442500", "101335.932500", "101337.422500", "101338.912500", "101340.402500", "101341.892500", "101343.382500", "101344.872500", "101346.362500", "101347.852500", "101349.342500", "101350.832500", "101352.322500", "101353.812500", "101355.302500", "101356.792500", "101358.282500", "101359.772500", "101401.262500", "101402.752500", "101404.242500", "101405.732500", "101407.222500", "101408.712500", "101410.202500", "101411.692500", "101413.182500", "101414.672500", "101416.162500", "101417.652500", "101419.142500", "101420.632500", "101422.122500", "101423.612500", "101425.102500", "101426.592500", "101428.082500", "101429.572500", "101431.062500", "101432.552500", "101434.042500", "101435.532500", "101437.022500", "101438.512500", "101440.002500", "101441.492500", "101442.982500", "101444.472500", "101445.962500", "101447.452500", "101448.942500", "101450.432500", "101451.922500", "101453.412500", "101454.902500", "101456.392500", "101457.882500", "101459.372500", "101500.862500", "101502.352500", "101503.842500", "101505.332500", "101506.822500", "101508.312500", "101509.802500", "101511.292500", "101512.782500", "101514.272500", "101515.762500", "101517.252500", "101518.742500", "101520.232500", "101521.722500", "101523.212500", "101524.702500", "101526.192500", "101527.682500", "101529.172500", "101530.662500", "101532.152500", "101533.642500", "101535.132500", "101536.622500", "101538.112500", "101539.602500", "101541.092500", "101542.582500", "101544.072500", "101545.562500", "101547.052500", "101548.542500", "101550.032500", "101551.522500", "101553.012500", "101554.502500", "101555.992500", "101557.482500", "101558.972500", "101600.462500", "101601.952500", "101603.442500", "101604.932500", "101606.422500", "101607.912500", "101609.402500", "101610.892500", "101612.382500", "101613.872500", "101615.362500", "101616.852500", "101618.342500", "101619.832500", "101621.322500", "101622.812500", "101624.302500", "101625.792500", "101627.282500", "101628.772500", "101630.262500", "101631.752500", "101633.242500", "101634.732500", "101636.222500", "101637.712500", "101639.202500", "101640.692500", "101642.182500", "101643.672500", "101645.162500", "101646.652500", "101648.142500", "101649.632500", "101651.122500", "101652.612500", "101654.102500", "101655.592500", "101657.082500", "101658.572500", "101700.062500", "101701.552500", "101703.042500", "101704.532500", "101706.022500", "101707.512500", "101709.002500", "101710.492500", "101711.982500", "101713.472500", "101714.962500", "101716.452500", "101717.942500", "101719.432500", "101720.922500", "101722.412500", "101723.902500", "101725.392500", "101726.882500", "101728.372500", "101729.862500", "101731.352500", "101732.842500", "101734.332500", "101735.822500", "101737.312500", "101738.802500", "101740.292500", "101741.782500", "101743.272500", "101744.762500", "101746.252500", "101747.742500", "101749.232500", "101750.722500", "101752.212500", "101753.702500", "101755.192500", "101756.682500", "101758.172500", "101759.662500", "101801.152500", "101802.642500", "101804.132500", "101805.622500", "101807.112500", "101808.602500", "101810.092500", "101811.582500", "101813.072500", "101814.562500", "101816.052500", "101817.542500", "101819.032500", "101820.522500", "101822.012500", "101823.502500", "101824.992500", "101826.482500", "101827.972500", "101829.462500", "101830.952500", "101832.442500", "101833.932500", "101835.422500", "101836.912500", "101838.402500", "101839.892500", "101841.382500", "101842.872500", "101844.362500", "101845.852500", "101847.342500", "101848.832500", "101850.322500", "101851.812500", "101853.302500", "101854.792500", "101856.282500", "101857.772500", "101859.262500", "101900.752500", "101902.242500", "101903.732500", "101905.222500", "101906.712500", "101908.202500", "101909.692500", "101911.182500", "101912.672500", "101914.162500", "101915.652500", "101917.142500", "101918.632500", "101920.122500", "101921.612500", "101923.102500", "101924.592500", "101926.082500", "101927.572500", "101929.062500", "101930.552500", "101932.042500", "101933.532500", "101935.022500", "101936.512500", "101938.002500", "101939.492500", "101940.982500", "101942.472500", "101943.962500", "101945.452500", "101946.942500", "101948.432500", "101949.922500", "101951.412500", "101952.902500", "101954.392500", "101955.882500", "101957.372500", "101958.862500", "102000.352500", "102001.842500", "102003.332500", "102004.822500", "102006.312500", "102007.802500", "102009.292500", "102010.782500", "102012.272500", "102013.762500", "102015.252500", "102016.742500", "102018.232500", "102019.722500", "102021.212500", "102022.702500", "102024.192500", "102025.682500", "102027.172500", "102028.662500", "102030.152500", "102031.642500", "102033.132500", "102034.622500", "102036.112500", "102037.602500", "102039.092500", "102040.582500", "102042.072500", "102043.562500", "102045.052500", "102046.542500", "102048.032500", "102049.522500"],
      "ContentTime": ["101040.834000", "101040.837000", "101040.849000", "101040.852000", "101040.855000", "101040.858000", "101040.860000", "101040.863000", "101040.870000", "101040.873000", "101040.876000", "101040.879000", "101040.882000", "101040.884000", "101040.887000", "101040.890000", "101040.893000", "101040.896000", "101040.899000", "101040.901000", "101040.904000", "101040.907000", "101040.915000", "101040.917000", "101040.920000", "101040.923000", "101040.926000", "101040.929000", "101100.791000", "101100.794000", "101100.797000", "101100.800000", "101100.802000", "101100.805000", "101100.808000", "101100.811000", "101100.814000", "101100.816000", "101100.819000", "101100.822000", "101100.825000", "101100.828000", "101100.830000", "101100.833000", "101100.836000", "101100.839000", "101100.842000", "101100.845000", "101120.791000", "101120.794000", "101120.796000", "101120.806000", "101120.809000", "101120.811000", "101120.814000", "101120.817000", "101120.820000", "101120.823000", "101120.825000", "101120.828000", "101120.831000", "101120.834000", "101120.836000", "101120.840000", "101120.843000", "101120.846000", "101120.849000", "101120.851000", "101120.854000", "101140.791000", "101140.794000", "101140.796000", "101140.799000", "101140.802000", "101140.805000", "101140.808000", "101140.810000", "101140.813000", "101140.816000", "101140.819000", "101140.822000", "101140.831000", "101140.834000", "101140.837000", "101140.840000", "101140.843000", "101140.845000", "101140.848000", "101140.851000", "101220.790000", "101220.793000", "101220.796000", "101220.799000", "101220.801000", "101220.804000", "101220.807000", "101220.810000", "101220.813000", "101220.815000", "101220.818000", "101220.821000", "101220.824000", "101220.827000", "101220.830000", "101220.833000", "101220.836000", "101220.842000", "101220.845000", "101220.848000", "101220.851000", "101220.854000", "101220.856000", "101220.859000", "101220.862000", "101220.865000", "101220.867000", "101220.870000", "101220.874000", "101220.877000", "101220.880000", "101220.883000", "101300.791000", "101300.794000", "101300.797000", "101300.800000", "101300.802000", "101300.805000", "101300.808000", "101300.811000", "101300.813000", "101300.816000", "101300.819000", "101300.822000", "101300.825000", "101300.828000", "101300.831000", "101300.833000", "101300.836000", "101300.839000", "101300.842000", "101300.845000", "101300.848000", "101300.851000", "101300.853000", "101300.856000", "101300.859000", "101300.862000", "101300.865000", "101340.791000", "101340.794000", "101340.797000", "101340.800000", "101340.802000", "101340.805000", "101340.808000", "101340.811000", "101340.813000", "101340.816000", "101340.819000", "101340.822000", "101340.825000", "101340.828000", "101340.830000", "101340.833000", "101340.836000", "101340.839000", "101340.842000", "101340.844000", "101340.847000", "101340.850000", "101340.853000", "101340.856000", "101340.858000", "101340.879000", "101340.882000", "101420.790000", "101420.793000", "101420.796000", "101420.798000", "101420.801000", "101420.804000", "101420.807000", "101420.810000", "101420.812000", "101420.815000", "101420.818000", "101420.821000", "101420.824000", "101420.827000", "101420.829000", "101420.832000", "101420.835000", "101420.838000", "101420.841000", "101420.844000", "101420.846000", "101420.849000", "101420.852000", "101420.855000", "101420.858000", "101420.861000", "101420.863000", "101500.790000", "101500.793000", "101500.796000", "101500.799000", "101500.802000", "101500.804000", "101500.807000", "101500.810000", "101500.813000", "101500.816000", "101500.818000", "101500.821000", "101500.824000", "101500.827000", "101500.830000", "101500.833000", "101500.835000", "101500.838000", "101500.841000", "101500.844000", "101500.847000", "101500.849000", "101500.852000", "101500.855000", "101500.858000", "101500.861000", "101500.864000", "101540.791000", "101540.794000", "101540.797000", "101540.800000", "101540.802000", "101540.805000", "101540.808000", "101540.811000", "101540.814000", "101540.816000", "101540.819000", "101540.822000", "101540.825000", "101540.828000", "101540.831000", "101540.833000", "101540.836000", "101540.839000", "101540.842000", "101540.845000", "101540.848000", "101540.850000", "101540.853000", "101540.862000", "101540.865000", "101540.868000", "101540.871000", "101620.791000", "101620.794000", "101620.797000", "101620.799000", "101620.802000", "101620.805000", "101620.808000", "101620.811000", "101620.814000", "101620.817000", "101620.819000", "101620.822000", "101620.825000", "101620.828000", "101620.831000", "101620.834000", "101620.837000", "101620.839000", "101620.842000", "101620.845000", "101620.848000", "101620.851000", "101620.854000", "101620.856000", "101620.859000", "101620.862000", "101700.790000", "101700.793000", "101700.796000", "101700.799000", "101700.801000", "101700.804000", "101700.807000", "101700.810000", "101700.813000", "101700.815000", "101700.818000", "101700.821000", "101700.824000", "101700.827000", "101700.829000", "101700.832000", "101700.835000", "101700.838000", "101700.841000", "101700.843000", "101700.846000", "101700.849000", "101700.852000", "101700.855000", "101700.857000", "101700.860000", "101700.863000", "101720.790000", "101720.793000", "101720.796000", "101720.799000", "101720.801000", "101720.804000", "101720.807000", "101720.810000", "101720.813000", "101720.815000", "101720.818000", "101720.838000", "101720.841000", "101720.844000", "101800.791000", "101800.794000", "101800.797000", "101800.799000", "101800.802000", "101800.805000", "101800.808000", "101800.811000", "101800.814000", "101800.816000", "101800.819000", "101800.822000", "101800.825000", "101800.828000", "101800.831000", "101800.833000", "101800.836000", "101800.839000", "101800.842000", "101800.845000", "101800.847000", "101800.850000", "101800.853000", "101800.856000", "101800.859000", "101800.878000", "101800.881000", "101840.791000", "101840.794000", "101840.797000", "101840.800000", "101840.802000", "101840.805000", "101840.808000", "101840.811000", "101840.813000", "101840.816000", "101840.820000", "101840.823000", "101840.826000", "101840.829000", "101840.831000", "101840.834000", "101840.837000", "101840.840000", "101840.842000", "101840.845000", "101840.848000", "101840.851000", "101840.854000", "101840.856000", "101840.859000", "101840.862000", "101920.790000", "101920.793000", "101920.796000", "101920.799000", "101920.802000", "101920.804000", "101920.807000", "101920.810000", "101920.813000", "101920.816000", "101920.818000", "101920.821000", "101920.824000", "101920.827000", "101920.830000", "101920.833000", "101920.835000", "101920.838000", "101920.841000", "101920.844000", "101920.847000", "101920.849000", "101920.852000", "101920.855000", "101920.858000", "101920.861000", "101920.864000", "102000.791000", "102000.794000", "102000.797000", "102000.800000", "102000.802000", "102000.805000", "102000.808000", "102000.811000", "102000.814000", "102000.816000", "102000.819000", "102000.822000", "102000.825000", "102000.828000", "102000.830000", "102000.833000", "102000.836000", "102000.839000", "102000.842000", "102000.845000", "102000.848000", "102000.851000", "102000.853000", "102000.856000", "102000.859000", "102000.862000", "102000.865000", "102040.791000", "102040.794000", "102040.797000", "102040.800000", "102040.802000", "102040.805000", "102040.808000", "102040.811000", "102040.814000", "102040.816000", "102040.819000", "102040.822000", "102040.825000", "102040.828000", "102040.831000", "102040.834000", "102040.836000", "102040.839000", "102040.842000", "102040.845000", "102040.848000", "102040.850000", "102040.853000", "102040.856000", "102040.859000", "102040.862000", "102040.864000", "102052.124000", "102052.127000", "102052.130000", "102052.132000", "102052.135000", "102052.138000", "102052.141000", "102052.144000"],
