{
  "AcquisitionMatrixPE": 104,
  "AcquisitionNumber": 1,
  "AcquisitionTime": "16:37:8.802500",
  "BandwidthPerPixelPhaseEncode": 17.17,
  "BaseResolution": 104,
  "BodyPartExamined": "BRAIN",
  "CoilString": "HC1-7;NC1_2",
  "ConsistencyInfo": "N4_VE11C_LATEST_20160120",
  "ConversionSoftware": "dcm2niix",
  "ConversionSoftwareVersion": "v1.0.20190902",
  "DerivedVendorReportedEchoSpacing": 0.000560011,
  "DeviceSerialNumber": "167006",
  "DwellTime": 2.1e-06,
  "EchoTime": 0.037,
  "EchoTrainLength": 104,
  "EffectiveEchoSpacing": 0.000560011,
  "FlipAngle": 52,
  "ImageComments": "Unaliased_MB4_PE3_LB",
  "ImageOrientationPatientDICOM": [0.999308, -0.0370051, -0.0038749, 0.0331504, 0.932793, -0.358885],
  "ImageType": [
    "ORIGINAL",
    "PRIMARY",
    "M",
    "MB",
    "ND",
    "MOSAIC"
],
  "ImagingFrequency": 123.259,
  "InPlanePhaseEncodingDirectionDICOM": "COL",
  "InstitutionAddress": "Chemin_Queen-Mary_4565_Montreal_District_CA_H3W_1W5",
  "InstitutionName": "IUGM",
  "InstitutionalDepartmentName": "Department",
  "MRAcquisitionType": "2D",
  "MagneticFieldStrength": 3,
  "Manufacturer": "Siemens",
  "ManufacturersModelName": "Prisma_fit",
  "Modality": "MR",
  "MultibandAccelerationFactor": 4,
  "PartialFourier": 1,
  "PatientPosition": "HFS",
  "PercentPhaseFOV": 100,
  "PhaseEncodingDirection": "j",
  "PhaseEncodingSteps": 104,
  "PhaseResolution": 1,
  "PixelBandwidth": 2290,
  "ProcedureStepDescription": "video_friends",
  "ProtocolName": "func_task-friends-s03e06b",
  "PulseSequenceDetails": "%CustomerSeq%_cmrr_mbep2d_bold",
  "ReceiveCoilActiveElements": "HC1-7;NC1,2",
  "ReceiveCoilName": "HeadNeck_64",
  "ReconMatrixPE": 104,
  "RepetitionTime": 1.49,
  "SAR": 0.0350476,
  "ScanOptions": "FS",
  "ScanningSequence": "EP",
  "SequenceName": "epfid2d1_104",
  "SequenceVariant": "SK_SS",
  "SeriesDescription": "func_task-friends-s03e06b",
  "SeriesNumber": 11,
  "ShimSetting": [621, -7280, -8826, 459, 7, -437, 62, 39],
  "SliceThickness": 2,
  "SliceTiming": [0, 0.785, 0.0975, 0.8825, 0.195, 0.98, 0.295, 1.0775, 0.3925, 1.175, 0.49, 1.275, 0.5875, 1.3725, 0.685, 0, 0.785, 0.0975, 0.8825, 0.195, 0.98, 0.295, 1.0775, 0.3925, 1.175, 0.49, 1.275, 0.5875, 1.3725, 0.685, 0, 0.785, 0.0975, 0.8825, 0.195, 0.98, 0.295, 1.0775, 0.3925, 1.175, 0.49, 1.275, 0.5875, 1.3725, 0.685, 0, 0.785, 0.0975, 0.8825, 0.195, 0.98, 0.295, 1.0775, 0.3925, 1.175, 0.49, 1.275, 0.5875, 1.3725, 0.685],
  "SoftwareVersions": "syngo_MR_E11",
  "SpacingBetweenSlices": 2,
  "StationName": "MRC35049",
  "TaskName": "s03e06b",
  "TotalReadoutTime": 0.0576811,
  "TxRefAmp": 234.263,
  "WipMemBlock": "8e809c7b-1404-4c00-a1c3-9875b8d10d9a||Sequence: R016 ve11c/master r/e634e98; Dec 19 2017 11:00:25 by eja",
  "dcmmeta_affine": [
    [-1.9986151456832886, 0.0663008764386177, -0.03379014879465103, 97.12187957763672],
    [0.07401027530431747, 1.8655856847763062, -0.7170165181159973, -74.05978393554688],
    [-0.007749796845018864, 0.7177704572677612, 1.8667473793029785, -66.0636215209961],
    [0.0, 0.0, 0.0, 1.0]
],
  "dcmmeta_reorient_transform": [
    [0.0, -1.0, 0.0, 103.0],
    [1.0, 0.0, 0.0, 0.0],
    [0.0, 0.0, 1.0, 0.0],
    [0.0, 0.0, 0.0, 1.0]
],
  "dcmmeta_shape": [104, 104, 60, 470],
  "dcmmeta_slice_dim": 2,
  "dcmmeta_version": 0.6,
  "global": {
    "const": {
      "AcquisitionMatrix": [104, 0, 0, 104],
      "AngioFlag": "N",
      "BitsAllocated": 16,
      "BitsStored": 16,
      "BodyPartExamined": "BRAIN",
      "Columns": 832,
      "EchoNumbers": 1,
      "EchoTime": 37.0,
      "EchoTrainLength": 104,
      "FlipAngle": 52.0,
      "HighBit": 15,
      "ImageOrientationPatient": [0.99930756277312, -0.0370051367657, -0.0038748983732, 0.03315043684927, 0.93279282302503, -0.3588852154237],
      "ImagePositionPatient": [-855.58029439051, -770.22897351328, 271.95609363405],
      "ImageType": [
        "ORIGINAL",
        "PRIMARY",
        "M",
        "MB",
        "ND",
        "MOSAIC"
],
      "ImagedNucleus": "1H",
      "ImagingFrequency": 123.258961,
      "InPlanePhaseEncodingDirection": "COL",
      "MRAcquisitionType": "2D",
      "MagneticFieldStrength": 3.0,
      "Manufacturer": "SIEMENS",
      "ManufacturerModelName": "Prisma_fit",
      "Modality": "MR",
      "NumberOfAverages": 1.0,
      "NumberOfPhaseEncodingSteps": 104,
      "PercentPhaseFieldOfView": 100.0,
      "PercentSampling": 100.0,
      "PerformedProcedureStepStartTime": "160424.957000",
      "PhotometricInterpretation": "MONOCHROME2",
      "PixelBandwidth": 2290.0,
      "PixelRepresentation": 0,
      "PixelSpacing": [2.0, 2.0],
      "ProtocolName": "func_task-friends-s03e06b",
      "RepetitionTime": 1490.0,
      "Rows": 832,
      "SAR": 0.03504756060113,
      "SamplesPerPixel": 1,
      "ScanOptions": "FS",
      "ScanningSequence": "EP",
      "SequenceName": "epfid2d1_104",
      "SequenceVariant": [
        "SK",
        "SS"
],
      "SeriesDescription": "func_task-friends-s03e06b",
      "SeriesNumber": 11,
      "SeriesTime": "163817.049000",
      "SliceLocation": -36.751883602232,
      "SliceThickness": 2.0,
      "SmallestImagePixelValue": 0,
      "SoftwareVersions": "syngo MR E11",
      "SpacingBetweenSlices": 2.0000000281881,
      "SpecificCharacterSet": "ISO_IR 100",
      "StudyID": "1",
      "StudyTime": "160424.893000",
      "TransmitCoilName": "Body",
      "VariableFlipAngleFlag": "N",
      "WindowCenterWidthExplanation": "Algo1",
      "dBdt": 0.0},
    "slices": {}
  },
  "time": {
    "samples": {
      "AcquisitionNumber": [1, 2, 3, 4, 5, 6, 7, 8, 9, 10, 11, 12, 13, 14, 15, 16, 17, 18, 19, 20, 21, 22, 23, 24, 25, 26, 27, 28, 29, 30, 31, 32, 33, 34, 35, 36, 37, 38, 39, 40, 41, 42, 43, 44, 45, 46, 47, 48, 49, 50, 51, 52, 53, 54, 55, 56, 57, 58, 59, 60, 61, 62, 63, 64, 65, 66, 67, 68, 69, 70, 71, 72, 73, 74, 75, 76, 77, 78, 79, 80, 81, 82, 83, 84, 85, 86, 87, 88, 89, 90, 91, 92, 93, 94, 95, 96, 97, 98, 99, 100, 101, 102, 103, 104, 105, 106, 107, 108, 109, 110, 111, 112, 113, 114, 115, 116, 117, 118, 119, 120, 121, 122, 123, 124, 125, 126, 127, 128, 129, 130, 131, 132, 133, 134, 135, 136, 137, 138, 139, 140, 141, 142, 143, 144, 145, 146, 147, 148, 149, 150, 151, 152, 153, 154, 155, 156, 157, 158, 159, 160, 161, 162, 163, 164, 165, 166, 167, 168, 169, 170, 171, 172, 173, 174, 175, 176, 177, 178, 179, 180, 181, 182, 183, 184, 185, 186, 187, 188, 189, 190, 191, 192, 193, 194, 195, 196, 197, 198, 199, 200, 201, 202, 203, 204, 205, 206, 207, 208, 209, 210, 211, 212, 213, 214, 215, 216, 217, 218, 219, 220, 221, 222, 223, 224, 225, 226, 227, 228, 229, 230, 231, 232, 233, 234, 235, 236, 237, 238, 239, 240, 241, 242, 243, 244, 245, 246, 247, 248, 249, 250, 251, 252, 253, 254, 255, 256, 257, 258, 259, 260, 261, 262, 263, 264, 265, 266, 267, 268, 269, 270, 271, 272, 273, 274, 275, 276, 277, 278, 279, 280, 281, 282, 283, 284, 285, 286, 287, 288, 289, 290, 291, 292, 293, 294, 295, 296, 297, 298, 299, 300, 301, 302, 303, 304, 305, 306, 307, 308, 309, 310, 311, 312, 313, 314, 315, 316, 317, 318, 319, 320, 321, 322, 323, 324, 325, 326, 327, 328, 329, 330, 331, 332, 333, 334, 335, 336, 337, 338, 339, 340, 341, 342, 343, 344, 345, 346, 347, 348, 349, 350, 351, 352, 353, 354, 355, 356, 357, 358, 359, 360, 361, 362, 363, 364, 365, 366, 367, 368, 369, 370, 371, 372, 373, 374, 375, 376, 377, 378, 379, 380, 381, 382, 383, 384, 385, 386, 387, 388, 389, 390, 391, 392, 393, 394, 395, 396, 397, 398, 399, 400, 401, 402, 403, 404, 405, 406, 407, 408, 409, 410, 411, 412, 413, 414, 415, 416, 417, 418, 419, 420, 421, 422, 423, 424, 425, 426, 427, 428, 429, 430, 431, 432, 433, 434, 435, 436, 437, 438, 439, 440, 441, 442, 443, 444, 445, 446, 447, 448, 449, 450, 451, 452, 453, 454, 455, 456, 457, 458, 459, 460, 461, 462, 463, 464, 465, 466, 467, 468, 469, 470],
      "AcquisitionTime": ["163708.802500", "163710.292500", "163711.782500", "163713.272500", "163714.762500", "163716.252500", "163717.742500", "163719.232500", "163720.722500", "163722.212500", "163723.702500", "163725.192500", "163726.682500", "163728.172500", "163729.662500", "163731.152500", "163732.642500", "163734.132500", "163735.622500", "163737.112500", "163738.602500", "163740.092500", "163741.582500", "163743.072500", "163744.562500", "163746.052500", "163747.542500", "163749.032500", "163750.522500", "163752.012500", "163753.502500", "163754.992500", "163756.482500", "163757.972500", "163759.462500", "163800.952500", "163802.442500", "163803.932500", "163805.422500", "163806.912500", "163808.402500", "163809.892500", "163811.382500", "163812.872500", "163814.362500", "163815.852500", "163817.342500", "163818.832500", "163820.322500", "163821.812500", "163823.302500", "163824.792500", "163826.282500", "163827.772500", "163829.262500", "163830.752500", "163832.242500", "163833.732500", "163835.222500", "163836.712500", "163838.202500", "163839.692500", "163841.182500", "163842.672500", "163844.162500", "163845.652500", "163847.142500", "163848.632500", "163850.122500", "163851.612500", "163853.102500", "163854.592500", "163856.082500", "163857.572500", "163859.062500", "163900.552500", "163902.042500", "163903.532500", "163905.022500", "163906.512500", "163908.002500", "163909.492500", "163910.982500", "163912.472500", "163913.962500", "163915.452500", "163916.942500", "163918.432500", "163919.922500", "163921.412500", "163922.902500", "163924.392500", "163925.882500", "163927.372500", "163928.862500", "163930.352500", "163931.842500", "163933.332500", "163934.822500", "163936.312500", "163937.802500", "163939.292500", "163940.782500", "163942.272500", "163943.762500", "163945.252500", "163946.742500", "163948.232500", "163949.722500", "163951.212500", "163952.702500", "163954.192500", "163955.682500", "163957.172500", "163958.662500", "164000.152500", "164001.642500", "164003.132500", "164004.622500", "164006.112500", "164007.602500", "164009.092500", "164010.582500", "164012.072500", "164013.562500", "164015.052500", "164016.542500", "164018.032500", "164019.522500", "164021.012500", "164022.502500", "164023.992500", "164025.482500", "164026.972500", "164028.462500", "164029.952500", "164031.442500", "164032.932500", "164034.422500", "164035.912500", "164037.402500", "164038.892500", "164040.382500", "164041.872500", "164043.362500", "164044.852500", "164046.342500", "164047.832500", "164049.322500", "164050.812500", "164052.302500", "164053.792500", "164055.282500", "164056.772500", "164058.262500", "164059.752500", "164101.242500", "164102.732500", "164104.222500", "164105.712500", "164107.202500", "164108.692500", "164110.182500", "164111.672500", "164113.162500", "164114.652500", "164116.142500", "164117.632500", "164119.122500", "164120.612500", "164122.102500", "164123.592500", "164125.082500", "164126.572500", "164128.062500", "164129.552500", "164131.042500", "164132.532500", "164134.022500", "164135.512500", "164137.002500", "164138.492500", "164139.982500", "164141.472500", "164142.962500", "164144.452500", "164145.942500", "164147.432500", "164148.922500", "164150.412500", "164151.902500", "164153.392500", "164154.882500", "164156.372500", "164157.862500", "164159.352500", "164200.842500", "164202.332500", "164203.822500", "164205.312500", "164206.802500", "164208.292500", "164209.782500", "164211.272500", "164212.762500", "164214.252500", "164215.742500", "164217.232500", "164218.722500", "164220.212500", "164221.702500", "164223.192500", "164224.682500", "164226.172500", "164227.662500", "164229.152500", "164230.642500", "164232.132500", "164233.622500", "164235.112500", "164236.602500", "164238.092500", "164239.582500", "164241.072500", "164242.562500", "164244.052500", "164245.542500", "164247.032500", "164248.522500", "164250.012500", "164251.502500", "164252.992500", "164254.482500", "164255.972500", "164257.462500", "164258.952500", "164300.442500", "164301.932500", "164303.422500", "164304.912500", "164306.402500", "164307.892500", "164309.382500", "164310.872500", "164312.362500", "164313.852500", "164315.342500", "164316.832500", "164318.322500", "164319.812500", "164321.302500", "164322.792500", "164324.282500", "164325.772500", "164327.262500", "164328.752500", "164330.242500", "164331.732500", "164333.222500", "164334.712500", "164336.202500", "164337.692500", "164339.182500", "164340.672500", "164342.162500", "164343.652500", "164345.142500", "164346.632500", "164348.122500", "164349.612500", "164351.102500", "164352.592500", "164354.082500", "164355.572500", "164357.062500", "164358.552500", "164400.042500", "164401.532500", "164403.022500", "164404.512500", "164406.002500", "164407.492500", "164408.982500", "164410.472500", "164411.962500", "164413.452500", "164414.942500", "164416.432500", "164417.922500", "164419.412500", "164420.902500", "164422.392500", "164423.882500", "164425.372500", "164426.862500", "164428.352500", "164429.842500", "164431.332500", "164432.822500", "164434.312500", "164435.802500", "164437.292500", "164438.782500", "164440.272500", "164441.762500", "164443.252500", "164444.742500", "164446.232500", "164447.722500", "164449.212500", "164450.702500", "164452.192500", "164453.682500", "164455.172500", "164456.662500", "164458.152500", "164459.642500", "164501.132500", "164502.622500", "164504.112500", "164505.602500", "164507.092500", "164508.582500", "164510.072500", "164511.562500", "164513.052500", "164514.542500", "164516.032500", "164517.522500", "164519.012500", "164520.502500", "164521.992500", "164523.482500", "164524.972500", "164526.462500", "164527.952500", "164529.442500", "164530.932500", "164532.422500", "164533.912500", "164535.402500", "164536.892500", "164538.382500", "164539.872500", "164541.362500", "164542.852500", "164544.342500", "164545.832500", "164547.322500", "164548.812500", "164550.302500", "164551.792500", "164553.282500", "164554.772500", "164556.262500", "164557.752500", "164559.242500", "164600.732500", "164602.222500", "164603.712500", "164605.202500", "164606.692500", "164608.182500", "164609.672500", "164611.162500", "164612.652500", "164614.142500", "164615.632500", "164617.122500", "164618.612500", "164620.102500", "164621.592500", "164623.082500", "164624.572500", "164626.062500", "164627.552500", "164629.042500", "164630.532500", "164632.022500", "164633.512500", "164635.002500", "164636.492500", "164637.982500", "164639.472500", "164640.962500", "164642.452500", "164643.942500", "164645.432500", "164646.922500", "164648.412500", "164649.902500", "164651.392500", "164652.882500", "164654.372500", "164655.862500", "164657.352500", "164658.842500", "164700.332500", "164701.822500", "164703.312500", "164704.802500", "164706.292500", "164707.782500", "164709.272500", "164710.762500", "164712.252500", "164713.742500", "164715.232500", "164716.722500", "164718.212500", "164719.702500", "164721.192500", "164722.682500", "164724.172500", "164725.662500", "164727.152500", "164728.642500", "164730.132500", "164731.622500", "164733.112500", "164734.602500", "164736.092500", "164737.582500", "164739.072500", "164740.562500", "164742.052500", "164743.542500", "164745.032500", "164746.522500", "164748.012500", "164749.502500", "164750.992500", "164752.482500", "164753.972500", "164755.462500", "164756.952500", "164758.442500", "164759.932500", "164801.422500", "164802.912500", "164804.402500", "164805.892500", "164807.382500", "164808.872500", "164810.362500", "164811.852500", "164813.342500", "164814.832500", "164816.322500", "164817.812500", "164819.302500", "164820.792500", "164822.282500", "164823.772500", "164825.262500", "164826.752500", "164828.242500", "164829.732500", "164831.222500", "164832.712500", "164834.202500", "164835.692500", "164837.182500", "164838.672500", "164840.162500", "164841.652500", "164843.142500", "164844.632500", "164846.122500", "164847.612500"],
      "ContentTime": ["163817.051000", "163817.055000", "163817.058000", "163817.061000", "163817.063000", "163817.066000", "163817.069000", "163817.072000", "163817.075000", "163817.078000", "163817.080000", "163817.083000", "163817.086000", "163837.016000", "163837.019000", "163837.022000", "163837.024000", "163837.027000", "163837.030000", "163837.033000", "163837.036000", "163837.038000", "163837.041000", "163837.044000", "163837.047000", "163837.050000", "163837.052000", "163837.055000", "163837.058000", "163837.061000", "163837.064000", "163837.066000", "163837.069000", "163857.016000", "163857.019000", "163857.022000", "163857.025000", "163857.027000", "163857.030000", "163857.033000", "163857.036000", "163857.039000", "163857.042000", "163857.045000", "163857.048000", "163857.051000", "163857.053000", "163857.056000", "163857.059000", "163857.062000", "163857.065000", "163857.068000", "163857.071000", "163917.016000", "163917.019000", "163917.022000", "163917.025000", "163917.028000", "163917.031000", "163917.033000", "163917.036000", "163917.039000", "163917.042000", "163917.045000", "163917.048000", "163917.051000", "163917.053000", "163917.056000", "163917.059000", "163917.062000", "163917.065000", "163917.068000", "163917.071000", "163917.073000", "163937.015000", "163937.018000", "163937.021000", "163937.023000", "163937.026000", "163937.041000", "163937.044000", "163937.046000", "163937.049000", "163937.052000", "163937.055000", "163937.058000", "163937.065000", "163937.068000", "163937.071000", "163937.074000", "163937.077000", "163937.079000", "163937.082000", "163937.085000", "164017.016000", "164017.019000", "164017.022000", "164017.025000", "164017.027000", "164017.030000", "164017.033000", "164017.036000", "164017.039000", "164017.042000", "164017.045000", "164017.048000", "164017.051000", "164017.054000", "164017.057000", "164017.059000", "164017.062000", "164017.065000", "164017.068000", "164017.071000", "164017.074000", "164017.077000", "164017.081000", "164017.085000", "164017.088000", "164017.091000", "164017.094000", "164017.097000", "164017.100000", "164017.103000", "164017.105000", "164057.016000", "164057.019000", "164057.022000", "164057.025000", "164057.027000", "164057.030000", "164057.033000", "164057.036000", "164057.039000", "164057.042000", "164057.045000", "164057.048000", "164057.051000", "164057.054000", "164057.057000", "164057.059000", "164057.062000", "164057.065000", "164057.068000", "164057.071000", "164057.074000", "164057.077000", "164057.080000", "164057.083000", "164057.086000", "164057.089000", "164057.091000", "164137.016000", "164137.019000", "164137.022000", "164137.025000", "164137.028000", "164137.031000", "164137.033000", "164137.036000", "164137.039000", "164137.042000", "164137.045000", "164137.048000", "164137.051000", "164137.054000", "164137.057000", "164137.059000", "164137.063000", "164137.065000", "164137.068000", "164137.071000", "164137.074000", "164137.077000", "164137.080000", "164137.083000", "164137.086000", "164137.089000", "164137.091000", "164217.016000", "164217.019000", "164217.022000", "164217.025000", "164217.027000", "164217.030000", "164217.033000", "164217.036000", "164217.039000", "164217.042000", "164217.045000", "164217.047000", "164217.050000", "164217.053000", "164217.056000", "164217.059000", "164217.062000", "164217.065000", "164217.067000", "164217.078000", "164217.080000", "164217.083000", "164217.086000", "164217.089000", "164217.092000", "164217.095000", "164217.098000", "164257.016000", "164257.019000", "164257.022000", "164257.025000", "164257.027000", "164257.030000", "164257.033000", "164257.036000", "164257.039000", "164257.042000", "164257.045000", "164257.047000", "164257.050000", "164257.053000", "164257.056000", "164257.059000", "164257.062000", "164257.064000", "164257.067000", "164257.070000", "164257.073000", "164257.076000", "164257.079000", "164257.081000", "164257.084000", "164257.087000", "164257.090000", "164337.016000", "164337.019000", "164337.022000", "164337.025000", "164337.028000", "164337.031000", "164337.033000", "164337.036000", "164337.039000", "164337.042000", "164337.045000", "164337.048000", "164337.050000", "164337.053000", "164337.056000", "164337.059000", "164337.062000", "164337.065000", "164337.067000", "164337.070000", "164337.073000", "164337.076000", "164337.079000", "164337.082000", "164337.084000", "164337.087000", "164337.090000", "164417.015000", "164417.018000", "164417.021000", "164417.024000", "164417.027000", "164417.029000", "164417.032000", "164417.035000", "164417.038000", "164417.041000", "164417.044000", "164417.047000", "164417.049000", "164417.052000", "164417.055000", "164417.058000", "164417.061000", "164417.064000", "164417.067000", "164417.069000", "164417.072000", "164417.095000", "164417.098000", "164417.101000", "164417.104000", "164417.107000", "164417.110000", "164457.016000", "164457.019000", "164457.022000", "164457.025000", "164457.028000", "164457.030000", "164457.033000", "164457.036000", "164457.039000", "164457.042000", "164457.045000", "164457.048000", "164457.050000", "164457.053000", "164457.056000", "164457.059000", "164457.062000", "164457.065000", "164457.068000", "164457.071000", "164457.074000", "164457.077000", "164457.080000", "164457.083000", "164457.086000", "164457.089000", "164537.016000", "164537.019000", "164537.022000", "164537.025000", "164537.028000", "164537.030000", "164537.033000", "164537.036000", "164537.039000", "164537.042000", "164537.045000", "164537.048000", "164537.051000", "164537.054000", "164537.056000", "164537.059000", "164537.062000", "164537.065000", "164537.068000", "164537.071000", "164537.073000", "164537.076000", "164537.094000", "164537.097000", "164537.100000", "164537.106000", "164537.109000", "164617.015000", "164617.018000", "164617.021000", "164617.024000", "164617.027000", "164617.033000", "164617.036000", "164617.039000", "164617.042000", "164617.045000", "164617.048000", "164617.051000", "164617.054000", "164617.057000", "164617.060000", "164617.062000", "164617.065000", "164617.068000", "164617.071000", "164617.074000", "164617.077000", "164617.080000", "164617.083000", "164617.086000", "164617.089000", "164617.091000", "164617.095000", "164657.016000", "164657.019000", "164657.022000", "164657.025000", "164657.028000", "164657.031000", "164657.033000", "164657.036000", "164657.039000", "164657.042000", "164657.045000", "164657.048000", "164657.051000", "164657.053000", "164657.056000", "164657.059000", "164657.062000", "164657.065000", "164657.068000", "164657.071000", "164657.073000", "164657.076000", "164657.079000", "164657.082000", "164657.085000", "164657.088000", "164657.090000", "164737.016000", "164737.019000", "164737.022000", "164737.025000", "164737.028000", "164737.031000", "164737.033000", "164737.036000", "164737.039000", "164737.042000", "164737.045000", "164737.048000", "164737.050000", "164737.053000", "164737.056000", "164737.059000", "164737.062000", "164737.065000", "164737.067000", "164737.070000", "164737.073000", "164737.076000", "164737.079000", "164737.082000", "164737.084000", "164737.087000", "164737.090000", "164817.016000", "164817.019000", "164817.022000", "164817.025000", "164817.028000", "164817.030000", "164817.033000", "164817.036000", "164817.039000", "164817.042000", "164817.045000", "164817.048000", "164817.050000", "164817.053000", "164817.056000", "164817.059000", "164817.062000", "164817.065000", "164817.067000", "164817.070000", "164817.073000", "164817.076000", "164817.079000", "164817.082000", "164817.084000", "164817.087000", "164817.090000", "164849.702000", "164849.705000", "164849.708000", "164849.711000", "164849.714000", "164849.717000", "164849.720000", "164849.723000", "164849.735000", "164849.738000", "164849.741000", "164849.744000", "164849.746000", "164849.749000", "164849.752000", "164849.755000", "164849.758000", "164849.761000", "164849.764000", "164849.767000", "164849.769000", "164849.772000"],
