{
  "AcquisitionMatrixPE": 104,
  "AcquisitionNumber": 1,
  "AcquisitionTime": "18:16:35.482500",
  "BandwidthPerPixelPhaseEncode": 17.17,
  "BaseResolution": 104,
  "BodyPartExamined": "BRAIN",
  "CoilString": "HC1-7;NC1_2",
  "ConsistencyInfo": "N4_VE11C_LATEST_20160120",
  "ConversionSoftware": "dcm2niix",
  "ConversionSoftwareVersion": "v1.0.20190902",
  "DerivedVendorReportedEchoSpacing": 0.000560011,
  "DeviceSerialNumber": "167006",
  "DwellTime": 2.1e-06,
  "EchoTime": 0.037,
  "EchoTrainLength": 104,
  "EffectiveEchoSpacing": 0.000560011,
  "FlipAngle": 52,
  "ImageComments": "Unaliased_MB4_PE3_LB",
  "ImageOrientationPatientDICOM": [0.999308, -0.0370051, -0.0038749, 0.0331504, 0.932793, -0.358885],
  "ImageType": [
    "ORIGINAL",
    "PRIMARY",
    "M",
    "MB",
    "ND",
    "MOSAIC"
],
  "ImagingFrequency": 123.259,
  "InPlanePhaseEncodingDirectionDICOM": "COL",
  "InstitutionAddress": "Chemin_Queen-Mary_4565_Montreal_District_CA_H3W_1W5",
  "InstitutionName": "IUGM",
  "InstitutionalDepartmentName": "Department",
  "MRAcquisitionType": "2D",
  "MagneticFieldStrength": 3,
  "Manufacturer": "Siemens",
  "ManufacturersModelName": "Prisma_fit",
  "Modality": "MR",
  "MultibandAccelerationFactor": 4,
  "PartialFourier": 1,
  "PatientPosition": "HFS",
  "PercentPhaseFOV": 100,
  "PhaseEncodingDirection": "j",
  "PhaseEncodingSteps": 104,
  "PhaseResolution": 1,
  "PixelBandwidth": 2290,
  "ProcedureStepDescription": "video_friends",
  "ProtocolName": "func_task-friends-s03e10b",
  "PulseSequenceDetails": "%CustomerSeq%_cmrr_mbep2d_bold",
  "ReceiveCoilActiveElements": "HC1-7;NC1,2",
  "ReceiveCoilName": "HeadNeck_64",
  "ReconMatrixPE": 104,
  "RepetitionTime": 1.49,
  "SAR": 0.0350414,
  "ScanOptions": "FS",
  "ScanningSequence": "EP",
  "SequenceName": "epfid2d1_104",
  "SequenceVariant": "SK_SS",
  "SeriesDescription": "func_task-friends-s03e10b",
  "SeriesNumber": 27,
  "ShimSetting": [621, -7280, -8826, 459, 7, -437, 62, 39],
  "SliceThickness": 2,
  "SliceTiming": [0, 0.785, 0.0975, 0.8825, 0.195, 0.98, 0.295, 1.0775, 0.3925, 1.175, 0.49, 1.275, 0.5875, 1.3725, 0.685, 0, 0.785, 0.0975, 0.8825, 0.195, 0.98, 0.295, 1.0775, 0.3925, 1.175, 0.49, 1.275, 0.5875, 1.3725, 0.685, 0, 0.785, 0.0975, 0.8825, 0.195, 0.98, 0.295, 1.0775, 0.3925, 1.175, 0.49, 1.275, 0.5875, 1.3725, 0.685, 0, 0.785, 0.0975, 0.8825, 0.195, 0.98, 0.295, 1.0775, 0.3925, 1.175, 0.49, 1.275, 0.5875, 1.3725, 0.685],
  "SoftwareVersions": "syngo_MR_E11",
  "SpacingBetweenSlices": 2,
  "StationName": "MRC35049",
  "TaskName": "s03e10b",
  "TotalReadoutTime": 0.0576811,
  "TxRefAmp": 234.263,
  "WipMemBlock": "6240dc23-26bb-4cd2-900e-b73d4450e21c||Sequence: R016 ve11c/master r/e634e98; Dec 19 2017 11:00:25 by eja",
  "dcmmeta_affine": [
    [-1.9986151456832886, 0.0663008764386177, -0.03379014879465103, 97.12187957763672],
    [0.07401027530431747, 1.8655856847763062, -0.7170165181159973, -74.05978393554688],
    [-0.007749796845018864, 0.7177704572677612, 1.8667473793029785, -66.0636215209961],
    [0.0, 0.0, 0.0, 1.0]
],
  "dcmmeta_reorient_transform": [
    [0.0, -1.0, 0.0, 103.0],
    [1.0, 0.0, 0.0, 0.0],
    [0.0, 0.0, 1.0, 0.0],
    [0.0, 0.0, 0.0, 1.0]
],
  "dcmmeta_shape": [104, 104, 60, 451],
  "dcmmeta_slice_dim": 2,
  "dcmmeta_version": 0.6,
  "global": {
    "const": {
      "AcquisitionMatrix": [104, 0, 0, 104],
      "AngioFlag": "N",
      "BitsAllocated": 16,
      "BitsStored": 16,
      "BodyPartExamined": "BRAIN",
      "Columns": 832,
      "EchoNumbers": 1,
      "EchoTime": 37.0,
      "EchoTrainLength": 104,
      "FlipAngle": 52.0,
      "HighBit": 15,
      "ImageOrientationPatient": [0.99930756277312, -0.0370051367657, -0.0038748983732, 0.03315043684927, 0.93279282302503, -0.3588852154237],
      "ImagePositionPatient": [-855.58029439051, -770.22897351328, 271.95609363405],
      "ImageType": [
        "ORIGINAL",
        "PRIMARY",
        "M",
        "MB",
        "ND",
        "MOSAIC"
],
      "ImagedNucleus": "1H",
      "ImagingFrequency": 123.258983,
      "InPlanePhaseEncodingDirection": "COL",
      "MRAcquisitionType": "2D",
      "MagneticFieldStrength": 3.0,
      "Manufacturer": "SIEMENS",
      "ManufacturerModelName": "Prisma_fit",
      "Modality": "MR",
      "NumberOfAverages": 1.0,
      "NumberOfPhaseEncodingSteps": 104,
      "PercentPhaseFieldOfView": 100.0,
      "PercentSampling": 100.0,
      "PerformedProcedureStepStartTime": "160424.957000",
      "PhotometricInterpretation": "MONOCHROME2",
      "PixelBandwidth": 2290.0,
      "PixelRepresentation": 0,
      "PixelSpacing": [2.0, 2.0],
      "ProtocolName": "func_task-friends-s03e10b",
      "RepetitionTime": 1490.0,
      "Rows": 832,
      "SAR": 0.03504136052747,
      "SamplesPerPixel": 1,
      "ScanOptions": "FS",
      "ScanningSequence": "EP",
      "SequenceName": "epfid2d1_104",
      "SequenceVariant": [
        "SK",
        "SS"
],
      "SeriesDescription": "func_task-friends-s03e10b",
      "SeriesNumber": 27,
      "SeriesTime": "181737.080000",
      "SliceLocation": -36.751883602232,
      "SliceThickness": 2.0,
      "SmallestImagePixelValue": 0,
      "SoftwareVersions": "syngo MR E11",
      "SpacingBetweenSlices": 2.0000000281881,
      "SpecificCharacterSet": "ISO_IR 100",
      "StudyID": "1",
      "StudyTime": "160424.893000",
      "TransmitCoilName": "Body",
      "VariableFlipAngleFlag": "N",
      "WindowCenterWidthExplanation": "Algo1",
      "dBdt": 0.0},
    "slices": {}
  },
  "time": {
    "samples": {
      "AcquisitionNumber": [1, 2, 3, 4, 5, 6, 7, 8, 9, 10, 11, 12, 13, 14, 15, 16, 17, 18, 19, 20, 21, 22, 23, 24, 25, 26, 27, 28, 29, 30, 31, 32, 33, 34, 35, 36, 37, 38, 39, 40, 41, 42, 43, 44, 45, 46, 47, 48, 49, 50, 51, 52, 53, 54, 55, 56, 57, 58, 59, 60, 61, 62, 63, 64, 65, 66, 67, 68, 69, 70, 71, 72, 73, 74, 75, 76, 77, 78, 79, 80, 81, 82, 83, 84, 85, 86, 87, 88, 89, 90, 91, 92, 93, 94, 95, 96, 97, 98, 99, 100, 101, 102, 103, 104, 105, 106, 107, 108, 109, 110, 111, 112, 113, 114, 115, 116, 117, 118, 119, 120, 121, 122, 123, 124, 125, 126, 127, 128, 129, 130, 131, 132, 133, 134, 135, 136, 137, 138, 139, 140, 141, 142, 143, 144, 145, 146, 147, 148, 149, 150, 151, 152, 153, 154, 155, 156, 157, 158, 159, 160, 161, 162, 163, 164, 165, 166, 167, 168, 169, 170, 171, 172, 173, 174, 175, 176, 177, 178, 179, 180, 181, 182, 183, 184, 185, 186, 187, 188, 189, 190, 191, 192, 193, 194, 195, 196, 197, 198, 199, 200, 201, 202, 203, 204, 205, 206, 207, 208, 209, 210, 211, 212, 213, 214, 215, 216, 217, 218, 219, 220, 221, 222, 223, 224, 225, 226, 227, 228, 229, 230, 231, 232, 233, 234, 235, 236, 237, 238, 239, 240, 241, 242, 243, 244, 245, 246, 247, 248, 249, 250, 251, 252, 253, 254, 255, 256, 257, 258, 259, 260, 261, 262, 263, 264, 265, 266, 267, 268, 269, 270, 271, 272, 273, 274, 275, 276, 277, 278, 279, 280, 281, 282, 283, 284, 285, 286, 287, 288, 289, 290, 291, 292, 293, 294, 295, 296, 297, 298, 299, 300, 301, 302, 303, 304, 305, 306, 307, 308, 309, 310, 311, 312, 313, 314, 315, 316, 317, 318, 319, 320, 321, 322, 323, 324, 325, 326, 327, 328, 329, 330, 331, 332, 333, 334, 335, 336, 337, 338, 339, 340, 341, 342, 343, 344, 345, 346, 347, 348, 349, 350, 351, 352, 353, 354, 355, 356, 357, 358, 359, 360, 361, 362, 363, 364, 365, 366, 367, 368, 369, 370, 371, 372, 373, 374, 375, 376, 377, 378, 379, 380, 381, 382, 383, 384, 385, 386, 387, 388, 389, 390, 391, 392, 393, 394, 395, 396, 397, 398, 399, 400, 401, 402, 403, 404, 405, 406, 407, 408, 409, 410, 411, 412, 413, 414, 415, 416, 417, 418, 419, 420, 421, 422, 423, 424, 425, 426, 427, 428, 429, 430, 431, 432, 433, 434, 435, 436, 437, 438, 439, 440, 441, 442, 443, 444, 445, 446, 447, 448, 449, 450, 451],
      "AcquisitionTime": ["181635.482500", "181636.972500", "181638.462500", "181639.952500", "181641.442500", "181642.932500", "181644.422500", "181645.912500", "181647.402500", "181648.892500", "181650.382500", "181651.872500", "181653.362500", "181654.852500", "181656.342500", "181657.832500", "181659.322500", "181700.812500", "181702.302500", "181703.792500", "181705.282500", "181706.772500", "181708.262500", "181709.752500", "181711.242500", "181712.732500", "181714.222500", "181715.712500", "181717.202500", "181718.692500", "181720.182500", "181721.672500", "181723.162500", "181724.652500", "181726.142500", "181727.632500", "181729.122500", "181730.612500", "181732.102500", "181733.592500", "181735.082500", "181736.572500", "181738.062500", "181739.552500", "181741.042500", "181742.532500", "181744.022500", "181745.512500", "181747.002500", "181748.492500", "181749.982500", "181751.472500", "181752.962500", "181754.452500", "181755.942500", "181757.432500", "181758.922500", "181800.412500", "181801.902500", "181803.392500", "181804.882500", "181806.372500", "181807.862500", "181809.352500", "181810.842500", "181812.332500", "181813.822500", "181815.312500", "181816.802500", "181818.292500", "181819.782500", "181821.272500", "181822.762500", "181824.252500", "181825.742500", "181827.232500", "181828.722500", "181830.212500", "181831.702500", "181833.192500", "181834.682500", "181836.172500", "181837.662500", "181839.152500", "181840.642500", "181842.132500", "181843.622500", "181845.112500", "181846.602500", "181848.092500", "181849.582500", "181851.072500", "181852.562500", "181854.052500", "181855.542500", "181857.032500", "181858.522500", "181900.012500", "181901.502500", "181902.992500", "181904.482500", "181905.972500", "181907.462500", "181908.952500", "181910.442500", "181911.932500", "181913.422500", "181914.912500", "181916.402500", "181917.892500", "181919.382500", "181920.872500", "181922.362500", "181923.852500", "181925.342500", "181926.832500", "181928.322500", "181929.812500", "181931.302500", "181932.792500", "181934.282500", "181935.772500", "181937.262500", "181938.752500", "181940.242500", "181941.732500", "181943.222500", "181944.712500", "181946.202500", "181947.692500", "181949.182500", "181950.672500", "181952.162500", "181953.652500", "181955.142500", "181956.632500", "181958.122500", "181959.612500", "182001.102500", "182002.592500", "182004.082500", "182005.572500", "182007.062500", "182008.552500", "182010.042500", "182011.532500", "182013.022500", "182014.512500", "182016.002500", "182017.492500", "182018.982500", "182020.472500", "182021.962500", "182023.452500", "182024.942500", "182026.432500", "182027.922500", "182029.412500", "182030.902500", "182032.392500", "182033.882500", "182035.372500", "182036.862500", "182038.352500", "182039.842500", "182041.332500", "182042.822500", "182044.312500", "182045.802500", "182047.292500", "182048.782500", "182050.272500", "182051.762500", "182053.252500", "182054.742500", "182056.232500", "182057.722500", "182059.212500", "182100.702500", "182102.192500", "182103.682500", "182105.172500", "182106.662500", "182108.152500", "182109.642500", "182111.132500", "182112.622500", "182114.112500", "182115.602500", "182117.092500", "182118.582500", "182120.072500", "182121.562500", "182123.052500", "182124.542500", "182126.032500", "182127.522500", "182129.012500", "182130.502500", "182131.992500", "182133.482500", "182134.972500", "182136.462500", "182137.952500", "182139.442500", "182140.932500", "182142.422500", "182143.912500", "182145.402500", "182146.892500", "182148.382500", "182149.872500", "182151.362500", "182152.852500", "182154.342500", "182155.832500", "182157.322500", "182158.812500", "182200.302500", "182201.792500", "182203.282500", "182204.772500", "182206.262500", "182207.752500", "182209.242500", "182210.732500", "182212.222500", "182213.712500", "182215.202500", "182216.692500", "182218.182500", "182219.672500", "182221.162500", "182222.652500", "182224.142500", "182225.632500", "182227.122500", "182228.612500", "182230.102500", "182231.592500", "182233.082500", "182234.572500", "182236.062500", "182237.552500", "182239.042500", "182240.532500", "182242.022500", "182243.512500", "182245.002500", "182246.492500", "182247.982500", "182249.472500", "182250.962500", "182252.452500", "182253.942500", "182255.432500", "182256.922500", "182258.412500", "182259.902500", "182301.392500", "182302.882500", "182304.372500", "182305.862500", "182307.352500", "182308.842500", "182310.332500", "182311.822500", "182313.312500", "182314.802500", "182316.292500", "182317.782500", "182319.272500", "182320.762500", "182322.252500", "182323.742500", "182325.232500", "182326.722500", "182328.212500", "182329.702500", "182331.192500", "182332.682500", "182334.172500", "182335.662500", "182337.152500", "182338.642500", "182340.132500", "182341.622500", "182343.112500", "182344.602500", "182346.092500", "182347.582500", "182349.072500", "182350.562500", "182352.052500", "182353.542500", "182355.032500", "182356.522500", "182358.012500", "182359.502500", "182400.992500", "182402.482500", "182403.972500", "182405.462500", "182406.952500", "182408.442500", "182409.932500", "182411.422500", "182412.912500", "182414.402500", "182415.892500", "182417.382500", "182418.872500", "182420.362500", "182421.852500", "182423.342500", "182424.832500", "182426.322500", "182427.812500", "182429.302500", "182430.792500", "182432.282500", "182433.772500", "182435.262500", "182436.752500", "182438.242500", "182439.732500", "182441.222500", "182442.712500", "182444.202500", "182445.692500", "182447.182500", "182448.672500", "182450.162500", "182451.652500", "182453.142500", "182454.632500", "182456.122500", "182457.612500", "182459.102500", "182500.592500", "182502.082500", "182503.572500", "182505.062500", "182506.552500", "182508.042500", "182509.532500", "182511.022500", "182512.512500", "182514.002500", "182515.492500", "182516.982500", "182518.472500", "182519.962500", "182521.452500", "182522.942500", "182524.432500", "182525.922500", "182527.412500", "182528.902500", "182530.392500", "182531.882500", "182533.372500", "182534.862500", "182536.352500", "182537.842500", "182539.332500", "182540.822500", "182542.312500", "182543.802500", "182545.292500", "182546.782500", "182548.272500", "182549.762500", "182551.252500", "182552.742500", "182554.232500", "182555.722500", "182557.212500", "182558.702500", "182600.192500", "182601.682500", "182603.172500", "182604.662500", "182606.152500", "182607.642500", "182609.132500", "182610.622500", "182612.112500", "182613.602500", "182615.092500", "182616.582500", "182618.072500", "182619.562500", "182621.052500", "182622.542500", "182624.032500", "182625.522500", "182627.012500", "182628.502500", "182629.992500", "182631.482500", "182632.972500", "182634.462500", "182635.952500", "182637.442500", "182638.932500", "182640.422500", "182641.912500", "182643.402500", "182644.892500", "182646.382500", "182647.872500", "182649.362500", "182650.852500", "182652.342500", "182653.832500", "182655.322500", "182656.812500", "182658.302500", "182659.792500", "182701.282500", "182702.772500", "182704.262500", "182705.752500", "182707.242500", "182708.732500", "182710.222500", "182711.712500", "182713.202500", "182714.692500", "182716.182500", "182717.672500", "182719.162500", "182720.652500", "182722.142500", "182723.632500", "182725.122500", "182726.612500", "182728.102500", "182729.592500", "182731.082500", "182732.572500", "182734.062500", "182735.552500", "182737.042500", "182738.532500", "182740.022500", "182741.512500", "182743.002500", "182744.492500", "182745.982500"],
      "ContentTime": ["181737.082000", "181737.085000", "181737.088000", "181737.091000", "181737.094000", "181737.096000", "181737.110000", "181737.113000", "181757.052000", "181757.055000", "181757.058000", "181757.061000", "181757.063000", "181757.066000", "181757.069000", "181757.075000", "181757.078000", "181757.081000", "181757.084000", "181757.086000", "181757.089000", "181757.092000", "181757.095000", "181757.098000", "181757.100000", "181757.103000", "181757.106000", "181757.109000", "181817.052000", "181817.055000", "181817.064000", "181817.067000", "181817.070000", "181817.073000", "181817.075000", "181817.078000", "181817.081000", "181817.084000", "181817.087000", "181817.090000", "181817.092000", "181817.095000", "181817.098000", "181817.101000", "181817.104000", "181817.106000", "181817.109000", "181817.112000", "181837.052000", "181837.055000", "181837.058000", "181837.060000", "181837.063000", "181837.066000", "181837.069000", "181837.072000", "181837.075000", "181837.077000", "181837.080000", "181837.083000", "181837.086000", "181837.089000", "181837.092000", "181837.102000", "181837.105000", "181837.108000", "181837.111000", "181837.114000", "181857.052000", "181857.055000", "181857.058000", "181857.060000", "181857.063000", "181857.066000", "181857.069000", "181857.072000", "181857.074000", "181857.077000", "181857.080000", "181857.083000", "181857.096000", "181857.099000", "181857.102000", "181857.105000", "181857.108000", "181857.111000", "181857.113000", "181857.116000", "181857.119000", "181937.052000", "181937.055000", "181937.058000", "181937.062000", "181937.065000", "181937.068000", "181937.071000", "181937.074000", "181937.076000", "181937.079000", "181937.082000", "181937.085000", "181937.088000", "181937.091000", "181937.094000", "181937.097000", "181937.100000", "181937.103000", "181937.106000", "181937.109000", "181937.111000", "181937.114000", "181937.117000", "181937.120000", "181937.123000", "181937.126000", "181937.128000", "181937.131000", "181937.134000", "181937.137000", "181937.161000", "181937.164000", "182017.052000", "182017.055000", "182017.058000", "182017.061000", "182017.063000", "182017.066000", "182017.069000", "182017.072000", "182017.075000", "182017.078000", "182017.080000", "182017.083000", "182017.086000", "182017.089000", "182017.092000", "182017.095000", "182017.098000", "182017.100000", "182017.103000", "182017.106000", "182017.109000", "182017.112000", "182017.115000", "182017.118000", "182017.120000", "182017.123000", "182017.126000", "182057.052000", "182057.055000", "182057.058000", "182057.061000", "182057.063000", "182057.066000", "182057.069000", "182057.072000", "182057.075000", "182057.078000", "182057.081000", "182057.084000", "182057.087000", "182057.096000", "182057.099000", "182057.102000", "182057.105000", "182057.107000", "182057.110000", "182057.113000", "182057.116000", "182057.119000", "182057.122000", "182057.124000", "182057.127000", "182057.130000", "182137.052000", "182137.055000", "182137.058000", "182137.060000", "182137.063000", "182137.066000", "182137.069000", "182137.072000", "182137.075000", "182137.077000", "182137.080000", "182137.083000", "182137.086000", "182137.089000", "182137.092000", "182137.094000", "182137.097000", "182137.100000", "182137.103000", "182137.106000", "182137.109000", "182137.118000", "182137.121000", "182137.124000", "182137.127000", "182137.130000", "182137.133000", "182217.052000", "182217.055000", "182217.058000", "182217.061000", "182217.069000", "182217.072000", "182217.075000", "182217.078000", "182217.081000", "182217.083000", "182217.086000", "182217.089000", "182217.092000", "182217.095000", "182217.098000", "182217.101000", "182217.104000", "182217.107000", "182217.110000", "182217.112000", "182217.115000", "182217.118000", "182217.121000", "182217.124000", "182217.127000", "182217.130000", "182217.133000", "182257.052000", "182257.055000", "182257.058000", "182257.061000", "182257.064000", "182257.067000", "182257.070000", "182257.073000", "182257.075000", "182257.078000", "182257.081000", "182257.084000", "182257.087000", "182257.090000", "182257.093000", "182257.096000", "182257.099000", "182257.101000", "182257.104000", "182257.107000", "182257.110000", "182257.113000", "182257.116000", "182257.119000", "182257.122000", "182257.124000", "182257.127000", "182337.052000", "182337.055000", "182337.058000", "182337.061000", "182337.064000", "182337.067000", "182337.070000", "182337.073000", "182337.075000", "182337.078000", "182337.081000", "182337.084000", "182337.087000", "182337.090000", "182337.093000", "182337.096000", "182337.099000", "182337.102000", "182337.105000", "182337.107000", "182337.110000", "182337.113000", "182337.116000", "182337.119000", "182337.122000", "182337.125000", "182337.128000", "182417.052000", "182417.055000", "182417.058000", "182417.061000", "182417.064000", "182417.067000", "182417.070000", "182417.073000", "182417.076000", "182417.079000", "182417.081000", "182417.084000", "182417.087000", "182417.090000", "182417.093000", "182417.096000", "182417.099000", "182417.102000", "182417.105000", "182417.108000", "182417.111000", "182417.114000", "182417.117000", "182417.119000", "182417.122000", "182417.125000", "182417.139000", "182457.052000", "182457.055000", "182457.058000", "182457.061000", "182457.064000", "182457.067000", "182457.070000", "182457.082000", "182457.085000", "182457.087000", "182457.090000", "182457.093000", "182457.096000", "182457.099000", "182457.102000", "182457.105000", "182457.108000", "182457.111000", "182457.114000", "182457.116000", "182457.119000", "182457.122000", "182457.125000", "182457.128000", "182457.131000", "182457.134000", "182537.052000", "182537.055000", "182537.058000", "182537.061000", "182537.064000", "182537.066000", "182537.069000", "182537.072000", "182537.075000", "182537.078000", "182537.081000", "182537.083000", "182537.086000", "182537.089000", "182537.092000", "182537.095000", "182537.098000", "182537.101000", "182537.103000", "182537.106000", "182537.109000", "182537.112000", "182537.115000", "182537.118000", "182537.121000", "182537.124000", "182537.126000", "182617.052000", "182617.055000", "182617.058000", "182617.061000", "182617.064000", "182617.066000", "182617.069000", "182617.072000", "182617.075000", "182617.079000", "182617.082000", "182617.085000", "182617.088000", "182617.090000", "182617.093000", "182617.096000", "182617.099000", "182617.102000", "182617.105000", "182617.108000", "182617.111000", "182617.113000", "182617.116000", "182617.119000", "182617.122000", "182617.125000", "182617.128000", "182657.052000", "182657.055000", "182657.058000", "182657.061000", "182657.064000", "182657.067000", "182657.069000", "182657.072000", "182657.075000", "182657.078000", "182657.081000", "182657.084000", "182657.086000", "182657.089000", "182657.092000", "182657.095000", "182657.098000", "182657.101000", "182657.104000", "182657.106000", "182657.109000", "182657.112000", "182657.115000", "182657.118000", "182657.121000", "182657.124000", "182657.127000", "182737.052000", "182737.055000", "182737.058000", "182737.061000", "182737.070000", "182737.073000", "182737.076000", "182737.079000", "182737.082000", "182737.084000", "182737.087000", "182737.090000", "182737.093000", "182737.096000", "182737.099000", "182737.101000", "182737.104000", "182737.107000", "182737.110000", "182737.113000", "182737.116000", "182737.119000", "182737.121000", "182737.124000", "182737.127000", "182737.130000", "182737.133000", "182748.447000", "182748.450000", "182748.453000", "182748.456000", "182748.459000", "182748.462000", "182748.464000", "182748.467000"],
