{
  "AcquisitionMatrixPE": 104,
  "AcquisitionNumber": 1,
  "AcquisitionTime": "16:50:22.012500",
  "BandwidthPerPixelPhaseEncode": 17.17,
  "BaseResolution": 104,
  "BodyPartExamined": "BRAIN",
  "CoilString": "HC1-7;NC1_2",
  "ConsistencyInfo": "N4_VE11C_LATEST_20160120",
  "ConversionSoftware": "dcm2niix",
  "ConversionSoftwareVersion": "v1.0.20190902",
  "DerivedVendorReportedEchoSpacing": 0.000560011,
  "DeviceSerialNumber": "167006",
  "DwellTime": 2.1e-06,
  "EchoTime": 0.037,
  "EchoTrainLength": 104,
  "EffectiveEchoSpacing": 0.000560011,
  "FlipAngle": 52,
  "ImageComments": "Unaliased_MB4_PE3_LB",
  "ImageOrientationPatientDICOM": [0.999308, -0.0370051, -0.0038749, 0.0331504, 0.932793, -0.358885],
  "ImageType": [
    "ORIGINAL",
    "PRIMARY",
    "M",
    "MB",
    "ND",
    "MOSAIC"
],
  "ImagingFrequency": 123.259,
  "InPlanePhaseEncodingDirectionDICOM": "COL",
  "InstitutionAddress": "Chemin_Queen-Mary_4565_Montreal_District_CA_H3W_1W5",
  "InstitutionName": "IUGM",
  "InstitutionalDepartmentName": "Department",
  "MRAcquisitionType": "2D",
  "MagneticFieldStrength": 3,
  "Manufacturer": "Siemens",
  "ManufacturersModelName": "Prisma_fit",
  "Modality": "MR",
  "MultibandAccelerationFactor": 4,
  "PartialFourier": 1,
  "PatientPosition": "HFS",
  "PercentPhaseFOV": 100,
  "PhaseEncodingDirection": "j",
  "PhaseEncodingSteps": 104,
  "PhaseResolution": 1,
  "PixelBandwidth": 2290,
  "ProcedureStepDescription": "video_friends",
  "ProtocolName": "func_task-friends-s03e07a",
  "PulseSequenceDetails": "%CustomerSeq%_cmrr_mbep2d_bold",
  "ReceiveCoilActiveElements": "HC1-7;NC1,2",
  "ReceiveCoilName": "HeadNeck_64",
  "ReconMatrixPE": 104,
  "RepetitionTime": 1.49,
  "SAR": 0.0350466,
  "ScanOptions": "FS",
  "ScanningSequence": "EP",
  "SequenceName": "epfid2d1_104",
  "SequenceVariant": "SK_SS",
  "SeriesDescription": "func_task-friends-s03e07a",
  "SeriesNumber": 13,
  "ShimSetting": [621, -7280, -8826, 459, 7, -437, 62, 39],
  "SliceThickness": 2,
  "SliceTiming": [0, 0.7825, 0.0975, 0.8825, 0.195, 0.98, 0.2925, 1.0775, 0.3925, 1.175, 0.49, 1.2725, 0.5875, 1.3725, 0.685, 0, 0.7825, 0.0975, 0.8825, 0.195, 0.98, 0.2925, 1.0775, 0.3925, 1.175, 0.49, 1.2725, 0.5875, 1.3725, 0.685, 0, 0.7825, 0.0975, 0.8825, 0.195, 0.98, 0.2925, 1.0775, 0.3925, 1.175, 0.49, 1.2725, 0.5875, 1.3725, 0.685, 0, 0.7825, 0.0975, 0.8825, 0.195, 0.98, 0.2925, 1.0775, 0.3925, 1.175, 0.49, 1.2725, 0.5875, 1.3725, 0.685],
  "SoftwareVersions": "syngo_MR_E11",
  "SpacingBetweenSlices": 2,
  "StationName": "MRC35049",
  "TaskName": "s03e07a",
  "TotalReadoutTime": 0.0576811,
  "TxRefAmp": 234.263,
  "WipMemBlock": "134b0fe2-f5d0-4aa8-a72f-21d0ad6f69e7||Sequence: R016 ve11c/master r/e634e98; Dec 19 2017 11:00:25 by eja",
  "dcmmeta_affine": [
    [-1.9986151456832886, 0.0663008764386177, -0.03379014879465103, 97.12187957763672],
    [0.07401027530431747, 1.8655856847763062, -0.7170165181159973, -74.05978393554688],
    [-0.007749796845018864, 0.7177704572677612, 1.8667473793029785, -66.0636215209961],
    [0.0, 0.0, 0.0, 1.0]
],
  "dcmmeta_reorient_transform": [
    [0.0, -1.0, 0.0, 103.0],
    [1.0, 0.0, 0.0, 0.0],
    [0.0, 0.0, 1.0, 0.0],
    [0.0, 0.0, 0.0, 1.0]
],
  "dcmmeta_shape": [104, 104, 60, 467],
  "dcmmeta_slice_dim": 2,
  "dcmmeta_version": 0.6,
  "global": {
    "const": {
      "AcquisitionMatrix": [104, 0, 0, 104],
      "AngioFlag": "N",
      "BitsAllocated": 16,
      "BitsStored": 16,
      "BodyPartExamined": "BRAIN",
      "Columns": 832,
      "EchoNumbers": 1,
      "EchoTime": 37.0,
      "EchoTrainLength": 104,
      "FlipAngle": 52.0,
      "HighBit": 15,
      "ImageOrientationPatient": [0.99930756277312, -0.0370051367657, -0.0038748983732, 0.03315043684927, 0.93279282302503, -0.3588852154237],
      "ImagePositionPatient": [-855.58029439051, -770.22897351328, 271.95609363405],
      "ImageType": [
        "ORIGINAL",
        "PRIMARY",
        "M",
        "MB",
        "ND",
        "MOSAIC"
],
      "ImagedNucleus": "1H",
      "ImagingFrequency": 123.25897,
      "InPlanePhaseEncodingDirection": "COL",
      "MRAcquisitionType": "2D",
      "MagneticFieldStrength": 3.0,
      "Manufacturer": "SIEMENS",
      "ManufacturerModelName": "Prisma_fit",
      "Modality": "MR",
      "NumberOfAverages": 1.0,
      "NumberOfPhaseEncodingSteps": 104,
      "PercentPhaseFieldOfView": 100.0,
      "PercentSampling": 100.0,
      "PerformedProcedureStepStartTime": "160424.957000",
      "PhotometricInterpretation": "MONOCHROME2",
      "PixelBandwidth": 2290.0,
      "PixelRepresentation": 0,
      "PixelSpacing": [2.0, 2.0],
      "ProtocolName": "func_task-friends-s03e07a",
      "RepetitionTime": 1490.0,
      "Rows": 832,
      "SAR": 0.03504661612539,
      "SamplesPerPixel": 1,
      "ScanOptions": "FS",
      "ScanningSequence": "EP",
      "SequenceName": "epfid2d1_104",
      "SequenceVariant": [
        "SK",
        "SS"
],
      "SeriesDescription": "func_task-friends-s03e07a",
      "SeriesNumber": 13,
      "SeriesTime": "165147.820000",
      "SliceLocation": -36.751883602232,
      "SliceThickness": 2.0,
      "SmallestImagePixelValue": 0,
      "SoftwareVersions": "syngo MR E11",
      "SpacingBetweenSlices": 2.0000000281881,
      "SpecificCharacterSet": "ISO_IR 100",
      "StudyID": "1",
      "StudyTime": "160424.893000",
      "TransmitCoilName": "Body",
      "VariableFlipAngleFlag": "N",
      "WindowCenterWidthExplanation": "Algo1",
      "dBdt": 0.0},
    "slices": {}
  },
  "time": {
    "samples": {
      "AcquisitionNumber": [1, 2, 3, 4, 5, 6, 7, 8, 9, 10, 11, 12, 13, 14, 15, 16, 17, 18, 19, 20, 21, 22, 23, 24, 25, 26, 27, 28, 29, 30, 31, 32, 33, 34, 35, 36, 37, 38, 39, 40, 41, 42, 43, 44, 45, 46, 47, 48, 49, 50, 51, 52, 53, 54, 55, 56, 57, 58, 59, 60, 61, 62, 63, 64, 65, 66, 67, 68, 69, 70, 71, 72, 73, 74, 75, 76, 77, 78, 79, 80, 81, 82, 83, 84, 85, 86, 87, 88, 89, 90, 91, 92, 93, 94, 95, 96, 97, 98, 99, 100, 101, 102, 103, 104, 105, 106, 107, 108, 109, 110, 111, 112, 113, 114, 115, 116, 117, 118, 119, 120, 121, 122, 123, 124, 125, 126, 127, 128, 129, 130, 131, 132, 133, 134, 135, 136, 137, 138, 139, 140, 141, 142, 143, 144, 145, 146, 147, 148, 149, 150, 151, 152, 153, 154, 155, 156, 157, 158, 159, 160, 161, 162, 163, 164, 165, 166, 167, 168, 169, 170, 171, 172, 173, 174, 175, 176, 177, 178, 179, 180, 181, 182, 183, 184, 185, 186, 187, 188, 189, 190, 191, 192, 193, 194, 195, 196, 197, 198, 199, 200, 201, 202, 203, 204, 205, 206, 207, 208, 209, 210, 211, 212, 213, 214, 215, 216, 217, 218, 219, 220, 221, 222, 223, 224, 225, 226, 227, 228, 229, 230, 231, 232, 233, 234, 235, 236, 237, 238, 239, 240, 241, 242, 243, 244, 245, 246, 247, 248, 249, 250, 251, 252, 253, 254, 255, 256, 257, 258, 259, 260, 261, 262, 263, 264, 265, 266, 267, 268, 269, 270, 271, 272, 273, 274, 275, 276, 277, 278, 279, 280, 281, 282, 283, 284, 285, 286, 287, 288, 289, 290, 291, 292, 293, 294, 295, 296, 297, 298, 299, 300, 301, 302, 303, 304, 305, 306, 307, 308, 309, 310, 311, 312, 313, 314, 315, 316, 317, 318, 319, 320, 321, 322, 323, 324, 325, 326, 327, 328, 329, 330, 331, 332, 333, 334, 335, 336, 337, 338, 339, 340, 341, 342, 343, 344, 345, 346, 347, 348, 349, 350, 351, 352, 353, 354, 355, 356, 357, 358, 359, 360, 361, 362, 363, 364, 365, 366, 367, 368, 369, 370, 371, 372, 373, 374, 375, 376, 377, 378, 379, 380, 381, 382, 383, 384, 385, 386, 387, 388, 389, 390, 391, 392, 393, 394, 395, 396, 397, 398, 399, 400, 401, 402, 403, 404, 405, 406, 407, 408, 409, 410, 411, 412, 413, 414, 415, 416, 417, 418, 419, 420, 421, 422, 423, 424, 425, 426, 427, 428, 429, 430, 431, 432, 433, 434, 435, 436, 437, 438, 439, 440, 441, 442, 443, 444, 445, 446, 447, 448, 449, 450, 451, 452, 453, 454, 455, 456, 457, 458, 459, 460, 461, 462, 463, 464, 465, 466, 467],
      "AcquisitionTime": ["165022.012500", "165023.502500", "165024.992500", "165026.482500", "165027.972500", "165029.462500", "165030.952500", "165032.442500", "165033.932500", "165035.422500", "165036.912500", "165038.402500", "165039.892500", "165041.382500", "165042.872500", "165044.362500", "165045.852500", "165047.342500", "165048.832500", "165050.322500", "165051.812500", "165053.302500", "165054.792500", "165056.282500", "165057.772500", "165059.262500", "165100.752500", "165102.242500", "165103.732500", "165105.222500", "165106.712500", "165108.202500", "165109.692500", "165111.182500", "165112.672500", "165114.162500", "165115.652500", "165117.142500", "165118.632500", "165120.122500", "165121.612500", "165123.102500", "165124.592500", "165126.082500", "165127.572500", "165129.062500", "165130.552500", "165132.042500", "165133.532500", "165135.022500", "165136.512500", "165138.002500", "165139.492500", "165140.982500", "165142.472500", "165143.962500", "165145.452500", "165146.942500", "165148.432500", "165149.922500", "165151.412500", "165152.902500", "165154.392500", "165155.882500", "165157.372500", "165158.862500", "165200.352500", "165201.842500", "165203.332500", "165204.822500", "165206.312500", "165207.802500", "165209.292500", "165210.782500", "165212.272500", "165213.762500", "165215.252500", "165216.742500", "165218.232500", "165219.722500", "165221.212500", "165222.702500", "165224.192500", "165225.682500", "165227.172500", "165228.662500", "165230.152500", "165231.642500", "165233.132500", "165234.622500", "165236.112500", "165237.602500", "165239.092500", "165240.582500", "165242.072500", "165243.562500", "165245.052500", "165246.542500", "165248.032500", "165249.522500", "165251.012500", "165252.502500", "165253.992500", "165255.482500", "165256.972500", "165258.462500", "165259.952500", "165301.442500", "165302.932500", "165304.422500", "165305.912500", "165307.402500", "165308.892500", "165310.382500", "165311.872500", "165313.362500", "165314.852500", "165316.342500", "165317.832500", "165319.322500", "165320.812500", "165322.302500", "165323.792500", "165325.282500", "165326.772500", "165328.262500", "165329.752500", "165331.242500", "165332.732500", "165334.222500", "165335.712500", "165337.202500", "165338.692500", "165340.182500", "165341.672500", "165343.162500", "165344.652500", "165346.142500", "165347.632500", "165349.122500", "165350.612500", "165352.102500", "165353.592500", "165355.082500", "165356.572500", "165358.062500", "165359.552500", "165401.042500", "165402.532500", "165404.022500", "165405.512500", "165407.002500", "165408.492500", "165409.982500", "165411.472500", "165412.962500", "165414.452500", "165415.942500", "165417.432500", "165418.922500", "165420.412500", "165421.902500", "165423.392500", "165424.882500", "165426.372500", "165427.862500", "165429.352500", "165430.842500", "165432.332500", "165433.822500", "165435.312500", "165436.802500", "165438.292500", "165439.782500", "165441.272500", "165442.762500", "165444.252500", "165445.742500", "165447.232500", "165448.722500", "165450.212500", "165451.702500", "165453.192500", "165454.682500", "165456.172500", "165457.662500", "165459.152500", "165500.642500", "165502.132500", "165503.622500", "165505.112500", "165506.602500", "165508.092500", "165509.582500", "165511.072500", "165512.562500", "165514.052500", "165515.542500", "165517.032500", "165518.522500", "165520.012500", "165521.502500", "165522.992500", "165524.482500", "165525.972500", "165527.462500", "165528.952500", "165530.442500", "165531.932500", "165533.422500", "165534.912500", "165536.402500", "165537.892500", "165539.382500", "165540.872500", "165542.362500", "165543.852500", "165545.342500", "165546.832500", "165548.322500", "165549.812500", "165551.302500", "165552.792500", "165554.282500", "165555.772500", "165557.262500", "165558.752500", "165600.242500", "165601.732500", "165603.222500", "165604.712500", "165606.202500", "165607.692500", "165609.182500", "165610.672500", "165612.162500", "165613.652500", "165615.142500", "165616.632500", "165618.122500", "165619.612500", "165621.102500", "165622.592500", "165624.082500", "165625.572500", "165627.062500", "165628.552500", "165630.042500", "165631.532500", "165633.022500", "165634.512500", "165636.002500", "165637.492500", "165638.982500", "165640.472500", "165641.962500", "165643.452500", "165644.942500", "165646.432500", "165647.922500", "165649.412500", "165650.902500", "165652.392500", "165653.882500", "165655.372500", "165656.862500", "165658.352500", "165659.842500", "165701.332500", "165702.822500", "165704.312500", "165705.802500", "165707.292500", "165708.782500", "165710.272500", "165711.762500", "165713.252500", "165714.742500", "165716.232500", "165717.722500", "165719.212500", "165720.702500", "165722.192500", "165723.682500", "165725.172500", "165726.662500", "165728.152500", "165729.642500", "165731.132500", "165732.622500", "165734.112500", "165735.602500", "165737.092500", "165738.582500", "165740.072500", "165741.562500", "165743.052500", "165744.542500", "165746.032500", "165747.522500", "165749.012500", "165750.502500", "165751.992500", "165753.482500", "165754.972500", "165756.462500", "165757.952500", "165759.442500", "165800.932500", "165802.422500", "165803.912500", "165805.402500", "165806.892500", "165808.382500", "165809.872500", "165811.362500", "165812.852500", "165814.342500", "165815.832500", "165817.322500", "165818.812500", "165820.302500", "165821.792500", "165823.282500", "165824.772500", "165826.262500", "165827.752500", "165829.242500", "165830.732500", "165832.222500", "165833.712500", "165835.202500", "165836.692500", "165838.182500", "165839.672500", "165841.162500", "165842.652500", "165844.142500", "165845.632500", "165847.122500", "165848.612500", "165850.102500", "165851.592500", "165853.082500", "165854.572500", "165856.062500", "165857.552500", "165859.042500", "165900.532500", "165902.022500", "165903.512500", "165905.002500", "165906.492500", "165907.982500", "165909.472500", "165910.962500", "165912.452500", "165913.942500", "165915.432500", "165916.922500", "165918.412500", "165919.902500", "165921.392500", "165922.882500", "165924.372500", "165925.862500", "165927.352500", "165928.842500", "165930.332500", "165931.822500", "165933.312500", "165934.802500", "165936.292500", "165937.782500", "165939.272500", "165940.762500", "165942.252500", "165943.742500", "165945.232500", "165946.722500", "165948.212500", "165949.702500", "165951.192500", "165952.682500", "165954.172500", "165955.662500", "165957.152500", "165958.642500", "170000.132500", "170001.622500", "170003.112500", "170004.602500", "170006.092500", "170007.582500", "170009.072500", "170010.562500", "170012.052500", "170013.542500", "170015.032500", "170016.522500", "170018.012500", "170019.502500", "170020.992500", "170022.482500", "170023.972500", "170025.462500", "170026.952500", "170028.442500", "170029.932500", "170031.422500", "170032.912500", "170034.402500", "170035.892500", "170037.382500", "170038.872500", "170040.362500", "170041.852500", "170043.342500", "170044.832500", "170046.322500", "170047.812500", "170049.302500", "170050.792500", "170052.282500", "170053.772500", "170055.262500", "170056.752500", "170058.242500", "170059.732500", "170101.222500", "170102.712500", "170104.202500", "170105.692500", "170107.182500", "170108.672500", "170110.162500", "170111.652500", "170113.142500", "170114.632500", "170116.122500", "170117.612500", "170119.102500", "170120.592500", "170122.082500", "170123.572500", "170125.062500", "170126.552500", "170128.042500", "170129.532500", "170131.022500", "170132.512500", "170134.002500", "170135.492500", "170136.982500", "170138.472500", "170139.962500", "170141.452500", "170142.942500", "170144.432500", "170145.922500", "170147.412500", "170148.902500", "170150.392500", "170151.882500", "170153.372500", "170154.862500", "170156.352500"],
      "ContentTime": ["165147.823000", "165147.826000", "165147.829000", "165147.832000", "165147.835000", "165147.838000", "165147.841000", "165147.844000", "165147.852000", "165147.855000", "165147.858000", "165147.861000", "165147.864000", "165147.867000", "165147.870000", "165147.873000", "165147.875000", "165147.878000", "165147.881000", "165147.884000", "165147.887000", "165147.889000", "165147.892000", "165147.895000", "165147.898000", "165147.901000", "165147.904000", "165147.907000", "165147.910000", "165147.912000", "165147.915000", "165147.918000", "165147.922000", "165147.926000", "165207.783000", "165207.786000", "165207.789000", "165207.791000", "165207.794000", "165207.797000", "165207.800000", "165207.803000", "165207.806000", "165207.810000", "165207.813000", "165207.821000", "165207.823000", "165207.826000", "165207.829000", "165207.832000", "165207.835000", "165207.838000", "165207.840000", "165207.843000", "165207.846000", "165227.784000", "165227.787000", "165227.790000", "165227.792000", "165227.802000", "165227.805000", "165227.808000", "165227.811000", "165227.814000", "165227.816000", "165227.819000", "165227.822000", "165227.825000", "165227.828000", "165227.831000", "165227.833000", "165227.836000", "165227.839000", "165227.842000", "165227.845000", "165247.784000", "165247.787000", "165247.790000", "165247.797000", "165247.800000", "165247.803000", "165247.806000", "165247.809000", "165247.812000", "165247.815000", "165247.818000", "165247.820000", "165247.823000", "165247.826000", "165247.829000", "165247.832000", "165247.835000", "165247.838000", "165247.841000", "165247.844000", "165327.784000", "165327.787000", "165327.790000", "165327.793000", "165327.795000", "165327.798000", "165327.801000", "165327.804000", "165327.807000", "165327.810000", "165327.813000", "165327.816000", "165327.819000", "165327.821000", "165327.824000", "165327.827000", "165327.830000", "165327.833000", "165327.836000", "165327.839000", "165327.842000", "165327.845000", "165327.848000", "165327.850000", "165327.853000", "165327.856000", "165327.859000", "165327.862000", "165327.865000", "165407.783000", "165407.786000", "165407.789000", "165407.792000", "165407.795000", "165407.797000", "165407.800000", "165407.803000", "165407.806000", "165407.809000", "165407.812000", "165407.815000", "165407.818000", "165407.820000", "165407.823000", "165407.826000", "165407.829000", "165407.832000", "165407.834000", "165407.837000", "165407.840000", "165407.843000", "165407.846000", "165407.849000", "165407.852000", "165407.855000", "165407.857000", "165447.784000", "165447.787000", "165447.790000", "165447.793000", "165447.795000", "165447.798000", "165447.801000", "165447.804000", "165447.807000", "165447.810000", "165447.813000", "165447.816000", "165447.819000", "165447.821000", "165447.824000", "165447.827000", "165447.830000", "165447.833000", "165447.836000", "165447.839000", "165447.842000", "165447.845000", "165447.862000", "165447.865000", "165447.867000", "165447.870000", "165447.873000", "165527.784000", "165527.787000", "165527.790000", "165527.793000", "165527.795000", "165527.798000", "165527.801000", "165527.804000", "165527.807000", "165527.810000", "165527.813000", "165527.816000", "165527.818000", "165527.822000", "165527.824000", "165527.827000", "165527.830000", "165527.833000", "165527.836000", "165527.839000", "165527.842000", "165527.845000", "165527.847000", "165527.850000", "165527.853000", "165527.856000", "165527.859000", "165607.784000", "165607.787000", "165607.790000", "165607.793000", "165607.796000", "165607.798000", "165607.801000", "165607.804000", "165607.807000", "165607.810000", "165607.813000", "165607.816000", "165607.819000", "165607.822000", "165607.825000", "165607.828000", "165607.832000", "165607.835000", "165607.838000", "165607.858000", "165607.861000", "165607.864000", "165607.867000", "165607.870000", "165607.873000", "165607.875000", "165647.783000", "165647.786000", "165647.789000", "165647.792000", "165647.794000", "165647.797000", "165647.800000", "165647.803000", "165647.806000", "165647.809000", "165647.812000", "165647.815000", "165647.818000", "165647.829000", "165647.832000", "165647.835000", "165647.838000", "165647.840000", "165647.843000", "165647.846000", "165647.849000", "165647.852000", "165647.855000", "165647.858000", "165647.860000", "165647.863000", "165647.866000", "165707.784000", "165707.787000", "165707.790000", "165707.793000", "165707.796000", "165707.799000", "165707.801000", "165707.804000", "165707.807000", "165707.810000", "165707.813000", "165707.816000", "165707.819000", "165707.822000", "165747.784000", "165747.787000", "165747.790000", "165747.792000", "165747.795000", "165747.798000", "165747.801000", "165747.804000", "165747.807000", "165747.810000", "165747.812000", "165747.815000", "165747.818000", "165747.821000", "165747.824000", "165747.826000", "165747.829000", "165747.832000", "165747.835000", "165747.838000", "165747.840000", "165747.843000", "165747.846000", "165747.849000", "165747.852000", "165747.855000", "165747.857000", "165827.784000", "165827.787000", "165827.790000", "165827.792000", "165827.803000", "165827.806000", "165827.809000", "165827.812000", "165827.815000", "165827.818000", "165827.820000", "165827.823000", "165827.826000", "165827.829000", "165827.832000", "165827.835000", "165827.838000", "165827.841000", "165827.843000", "165827.846000", "165827.849000", "165827.852000", "165827.855000", "165827.858000", "165827.861000", "165827.863000", "165907.783000", "165907.786000", "165907.789000", "165907.791000", "165907.794000", "165907.797000", "165907.800000", "165907.803000", "165907.806000", "165907.808000", "165907.811000", "165907.814000", "165907.817000", "165907.820000", "165907.823000", "165907.826000", "165907.829000", "165907.831000", "165907.834000", "165907.837000", "165907.840000", "165907.843000", "165907.846000", "165907.848000", "165907.851000", "165907.854000", "165907.857000", "165947.784000", "165947.787000", "165947.790000", "165947.793000", "165947.795000", "165947.798000", "165947.801000", "165947.804000", "165947.807000", "165947.824000", "165947.827000", "165947.835000", "165947.838000", "165947.841000", "165947.844000", "165947.847000", "165947.850000", "165947.852000", "165947.855000", "165947.858000", "165947.861000", "165947.864000", "165947.867000", "165947.870000", "165947.873000", "165947.875000", "165947.878000", "170027.784000", "170027.787000", "170027.790000", "170027.793000", "170027.796000", "170027.798000", "170027.801000", "170027.804000", "170027.807000", "170027.810000", "170027.813000", "170027.816000", "170027.819000", "170027.822000", "170027.824000", "170027.827000", "170027.830000", "170027.833000", "170027.836000", "170027.839000", "170027.842000", "170027.844000", "170027.847000", "170027.850000", "170027.853000", "170027.856000", "170027.859000", "170107.783000", "170107.786000", "170107.789000", "170107.792000", "170107.794000", "170107.797000", "170107.800000", "170107.803000", "170107.806000", "170107.809000", "170107.811000", "170107.814000", "170107.817000", "170107.820000", "170107.823000", "170107.826000", "170107.829000", "170107.831000", "170107.834000", "170107.837000", "170107.840000", "170107.843000", "170107.846000", "170107.848000", "170107.851000", "170107.854000", "170107.857000", "170147.784000", "170147.787000", "170147.790000", "170147.793000", "170147.795000", "170147.798000", "170147.801000", "170147.804000", "170147.807000", "170147.810000", "170147.812000", "170147.815000", "170147.818000", "170147.821000", "170147.824000", "170147.827000", "170147.830000", "170147.833000", "170147.835000", "170147.838000", "170147.841000", "170147.844000", "170147.847000", "170147.850000", "170147.861000", "170147.863000", "170147.866000", "170158.021000", "170158.025000", "170158.028000", "170158.031000", "170158.034000", "170158.036000", "170158.039000"],
