{
  "AcquisitionMatrixPE": 104,
  "AcquisitionNumber": 1,
  "AcquisitionTime": "17:14:21.785000",
  "BandwidthPerPixelPhaseEncode": 17.17,
  "BaseResolution": 104,
  "BodyPartExamined": "BRAIN",
  "CoilString": "HC1-7;NC1_2",
  "ConsistencyInfo": "N4_VE11C_LATEST_20160120",
  "ConversionSoftware": "dcm2niix",
  "ConversionSoftwareVersion": "v1.0.20190902",
  "DerivedVendorReportedEchoSpacing": 0.000560011,
  "DeviceSerialNumber": "167006",
  "DwellTime": 2.1e-06,
  "EchoTime": 0.037,
  "EchoTrainLength": 104,
  "EffectiveEchoSpacing": 0.000560011,
  "FlipAngle": 52,
  "ImageComments": "Unaliased_MB4_PE3_LB",
  "ImageOrientationPatientDICOM": [0.999308, -0.0370051, -0.0038749, 0.0331504, 0.932793, -0.358885],
  "ImageType": [
    "ORIGINAL",
    "PRIMARY",
    "M",
    "MB",
    "ND",
    "MOSAIC"
],
  "ImagingFrequency": 123.259,
  "InPlanePhaseEncodingDirectionDICOM": "COL",
  "InstitutionAddress": "Chemin_Queen-Mary_4565_Montreal_District_CA_H3W_1W5",
  "InstitutionName": "IUGM",
  "InstitutionalDepartmentName": "Department",
  "MRAcquisitionType": "2D",
  "MagneticFieldStrength": 3,
  "Manufacturer": "Siemens",
  "ManufacturersModelName": "Prisma_fit",
  "Modality": "MR",
  "MultibandAccelerationFactor": 4,
  "PartialFourier": 1,
  "PatientPosition": "HFS",
  "PercentPhaseFOV": 100,
  "PhaseEncodingDirection": "j",
  "PhaseEncodingSteps": 104,
  "PhaseResolution": 1,
  "PixelBandwidth": 2290,
  "ProcedureStepDescription": "video_friends",
  "ProtocolName": "func_task-friends-s03e08a",
  "PulseSequenceDetails": "%CustomerSeq%_cmrr_mbep2d_bold",
  "ReceiveCoilActiveElements": "HC1-7;NC1,2",
  "ReceiveCoilName": "HeadNeck_64",
  "ReconMatrixPE": 104,
  "RepetitionTime": 1.49,
  "SAR": 0.0350444,
  "ScanOptions": "FS",
  "ScanningSequence": "EP",
  "SequenceName": "epfid2d1_104",
  "SequenceVariant": "SK_SS",
  "SeriesDescription": "func_task-friends-s03e08a",
  "SeriesNumber": 17,
  "ShimSetting": [621, -7280, -8826, 459, 7, -437, 62, 39],
  "SliceThickness": 2,
  "SliceTiming": [0, 0.785, 0.0975, 0.8825, 0.195, 0.98, 0.295, 1.0775, 0.3925, 1.175, 0.49, 1.275, 0.5875, 1.3725, 0.685, 0, 0.785, 0.0975, 0.8825, 0.195, 0.98, 0.295, 1.0775, 0.3925, 1.175, 0.49, 1.275, 0.5875, 1.3725, 0.685, 0, 0.785, 0.0975, 0.8825, 0.195, 0.98, 0.295, 1.0775, 0.3925, 1.175, 0.49, 1.275, 0.5875, 1.3725, 0.685, 0, 0.785, 0.0975, 0.8825, 0.195, 0.98, 0.295, 1.0775, 0.3925, 1.175, 0.49, 1.275, 0.5875, 1.3725, 0.685],
  "SoftwareVersions": "syngo_MR_E11",
  "SpacingBetweenSlices": 2,
  "StationName": "MRC35049",
  "TaskName": "s03e08a",
  "TotalReadoutTime": 0.0576811,
  "TxRefAmp": 234.263,
  "WipMemBlock": "4d7afa08-ebac-45f1-a75c-a77275b12227||Sequence: R016 ve11c/master r/e634e98; Dec 19 2017 11:00:25 by eja",
  "dcmmeta_affine": [
    [-1.9986151456832886, 0.0663008764386177, -0.03379014879465103, 97.12187957763672],
    [0.07401027530431747, 1.8655856847763062, -0.7170165181159973, -74.05978393554688],
    [-0.007749796845018864, 0.7177704572677612, 1.8667473793029785, -66.0636215209961],
    [0.0, 0.0, 0.0, 1.0]
],
  "dcmmeta_reorient_transform": [
    [0.0, -1.0, 0.0, 103.0],
    [1.0, 0.0, 0.0, 0.0],
    [0.0, 0.0, 1.0, 0.0],
    [0.0, 0.0, 0.0, 1.0]
],
  "dcmmeta_shape": [104, 104, 60, 460],
  "dcmmeta_slice_dim": 2,
  "dcmmeta_version": 0.6,
  "global": {
    "const": {
      "AcquisitionMatrix": [104, 0, 0, 104],
      "AngioFlag": "N",
      "BitsAllocated": 16,
      "BitsStored": 16,
      "BodyPartExamined": "BRAIN",
      "Columns": 832,
      "EchoNumbers": 1,
      "EchoTime": 37.0,
      "EchoTrainLength": 104,
      "FlipAngle": 52.0,
      "HighBit": 15,
      "ImageOrientationPatient": [0.99930756277312, -0.0370051367657, -0.0038748983732, 0.03315043684927, 0.93279282302503, -0.3588852154237],
      "ImagePositionPatient": [-855.58029439051, -770.22897351328, 271.95609363405],
      "ImageType": [
        "ORIGINAL",
        "PRIMARY",
        "M",
        "MB",
        "ND",
        "MOSAIC"
],
      "ImagedNucleus": "1H",
      "ImagingFrequency": 123.258975,
      "InPlanePhaseEncodingDirection": "COL",
      "MRAcquisitionType": "2D",
      "MagneticFieldStrength": 3.0,
      "Manufacturer": "SIEMENS",
      "ManufacturerModelName": "Prisma_fit",
      "Modality": "MR",
      "NumberOfAverages": 1.0,
      "NumberOfPhaseEncodingSteps": 104,
      "PercentPhaseFieldOfView": 100.0,
      "PercentSampling": 100.0,
      "PerformedProcedureStepStartTime": "160424.957000",
      "PhotometricInterpretation": "MONOCHROME2",
      "PixelBandwidth": 2290.0,
      "PixelRepresentation": 0,
      "PixelSpacing": [2.0, 2.0],
      "ProtocolName": "func_task-friends-s03e08a",
      "RepetitionTime": 1490.0,
      "Rows": 832,
      "SAR": 0.03504435798648,
      "SamplesPerPixel": 1,
      "ScanOptions": "FS",
      "ScanningSequence": "EP",
      "SequenceName": "epfid2d1_104",
      "SequenceVariant": [
        "SK",
        "SS"
],
      "SeriesDescription": "func_task-friends-s03e08a",
      "SeriesNumber": 17,
      "SeriesTime": "171537.047000",
      "SliceLocation": -36.751883602232,
      "SliceThickness": 2.0,
      "SmallestImagePixelValue": 0,
      "SoftwareVersions": "syngo MR E11",
      "SpacingBetweenSlices": 2.0000000281881,
      "SpecificCharacterSet": "ISO_IR 100",
      "StudyID": "1",
      "StudyTime": "160424.893000",
      "TransmitCoilName": "Body",
      "VariableFlipAngleFlag": "N",
      "WindowCenterWidthExplanation": "Algo1",
      "dBdt": 0.0},
    "slices": {}
  },
  "time": {
    "samples": {
      "AcquisitionNumber": [1, 2, 3, 4, 5, 6, 7, 8, 9, 10, 11, 12, 13, 14, 15, 16, 17, 18, 19, 20, 21, 22, 23, 24, 25, 26, 27, 28, 29, 30, 31, 32, 33, 34, 35, 36, 37, 38, 39, 40, 41, 42, 43, 44, 45, 46, 47, 48, 49, 50, 51, 52, 53, 54, 55, 56, 57, 58, 59, 60, 61, 62, 63, 64, 65, 66, 67, 68, 69, 70, 71, 72, 73, 74, 75, 76, 77, 78, 79, 80, 81, 82, 83, 84, 85, 86, 87, 88, 89, 90, 91, 92, 93, 94, 95, 96, 97, 98, 99, 100, 101, 102, 103, 104, 105, 106, 107, 108, 109, 110, 111, 112, 113, 114, 115, 116, 117, 118, 119, 120, 121, 122, 123, 124, 125, 126, 127, 128, 129, 130, 131, 132, 133, 134, 135, 136, 137, 138, 139, 140, 141, 142, 143, 144, 145, 146, 147, 148, 149, 150, 151, 152, 153, 154, 155, 156, 157, 158, 159, 160, 161, 162, 163, 164, 165, 166, 167, 168, 169, 170, 171, 172, 173, 174, 175, 176, 177, 178, 179, 180, 181, 182, 183, 184, 185, 186, 187, 188, 189, 190, 191, 192, 193, 194, 195, 196, 197, 198, 199, 200, 201, 202, 203, 204, 205, 206, 207, 208, 209, 210, 211, 212, 213, 214, 215, 216, 217, 218, 219, 220, 221, 222, 223, 224, 225, 226, 227, 228, 229, 230, 231, 232, 233, 234, 235, 236, 237, 238, 239, 240, 241, 242, 243, 244, 245, 246, 247, 248, 249, 250, 251, 252, 253, 254, 255, 256, 257, 258, 259, 260, 261, 262, 263, 264, 265, 266, 267, 268, 269, 270, 271, 272, 273, 274, 275, 276, 277, 278, 279, 280, 281, 282, 283, 284, 285, 286, 287, 288, 289, 290, 291, 292, 293, 294, 295, 296, 297, 298, 299, 300, 301, 302, 303, 304, 305, 306, 307, 308, 309, 310, 311, 312, 313, 314, 315, 316, 317, 318, 319, 320, 321, 322, 323, 324, 325, 326, 327, 328, 329, 330, 331, 332, 333, 334, 335, 336, 337, 338, 339, 340, 341, 342, 343, 344, 345, 346, 347, 348, 349, 350, 351, 352, 353, 354, 355, 356, 357, 358, 359, 360, 361, 362, 363, 364, 365, 366, 367, 368, 369, 370, 371, 372, 373, 374, 375, 376, 377, 378, 379, 380, 381, 382, 383, 384, 385, 386, 387, 388, 389, 390, 391, 392, 393, 394, 395, 396, 397, 398, 399, 400, 401, 402, 403, 404, 405, 406, 407, 408, 409, 410, 411, 412, 413, 414, 415, 416, 417, 418, 419, 420, 421, 422, 423, 424, 425, 426, 427, 428, 429, 430, 431, 432, 433, 434, 435, 436, 437, 438, 439, 440, 441, 442, 443, 444, 445, 446, 447, 448, 449, 450, 451, 452, 453, 454, 455, 456, 457, 458, 459, 460],
      "AcquisitionTime": ["171421.785000", "171423.275000", "171424.765000", "171426.255000", "171427.745000", "171429.235000", "171430.725000", "171432.215000", "171433.705000", "171435.195000", "171436.685000", "171438.175000", "171439.665000", "171441.155000", "171442.645000", "171444.135000", "171445.625000", "171447.115000", "171448.605000", "171450.095000", "171451.585000", "171453.075000", "171454.565000", "171456.055000", "171457.545000", "171459.035000", "171500.525000", "171502.015000", "171503.505000", "171504.995000", "171506.485000", "171507.975000", "171509.465000", "171510.955000", "171512.445000", "171513.935000", "171515.425000", "171516.915000", "171518.405000", "171519.895000", "171521.385000", "171522.875000", "171524.365000", "171525.855000", "171527.345000", "171528.835000", "171530.325000", "171531.815000", "171533.305000", "171534.795000", "171536.285000", "171537.775000", "171539.265000", "171540.755000", "171542.245000", "171543.735000", "171545.225000", "171546.715000", "171548.205000", "171549.695000", "171551.185000", "171552.675000", "171554.165000", "171555.655000", "171557.145000", "171558.635000", "171600.125000", "171601.615000", "171603.105000", "171604.595000", "171606.085000", "171607.575000", "171609.065000", "171610.555000", "171612.045000", "171613.535000", "171615.025000", "171616.515000", "171618.005000", "171619.495000", "171620.985000", "171622.475000", "171623.965000", "171625.455000", "171626.945000", "171628.435000", "171629.925000", "171631.415000", "171632.905000", "171634.395000", "171635.885000", "171637.375000", "171638.865000", "171640.355000", "171641.845000", "171643.335000", "171644.825000", "171646.315000", "171647.805000", "171649.295000", "171650.785000", "171652.275000", "171653.765000", "171655.255000", "171656.745000", "171658.235000", "171659.725000", "171701.215000", "171702.705000", "171704.195000", "171705.685000", "171707.175000", "171708.665000", "171710.155000", "171711.645000", "171713.135000", "171714.625000", "171716.115000", "171717.605000", "171719.095000", "171720.585000", "171722.075000", "171723.565000", "171725.055000", "171726.545000", "171728.035000", "171729.525000", "171731.015000", "171732.505000", "171733.995000", "171735.485000", "171736.975000", "171738.465000", "171739.955000", "171741.445000", "171742.935000", "171744.425000", "171745.915000", "171747.405000", "171748.895000", "171750.385000", "171751.875000", "171753.365000", "171754.855000", "171756.345000", "171757.835000", "171759.325000", "171800.815000", "171802.305000", "171803.795000", "171805.285000", "171806.775000", "171808.265000", "171809.755000", "171811.245000", "171812.735000", "171814.225000", "171815.715000", "171817.205000", "171818.695000", "171820.185000", "171821.675000", "171823.165000", "171824.655000", "171826.145000", "171827.635000", "171829.125000", "171830.615000", "171832.105000", "171833.595000", "171835.085000", "171836.575000", "171838.065000", "171839.555000", "171841.045000", "171842.535000", "171844.025000", "171845.515000", "171847.005000", "171848.495000", "171849.985000", "171851.475000", "171852.965000", "171854.455000", "171855.945000", "171857.435000", "171858.925000", "171900.415000", "171901.905000", "171903.395000", "171904.885000", "171906.375000", "171907.865000", "171909.355000", "171910.845000", "171912.335000", "171913.825000", "171915.315000", "171916.805000", "171918.295000", "171919.785000", "171921.275000", "171922.765000", "171924.255000", "171925.745000", "171927.235000", "171928.725000", "171930.215000", "171931.705000", "171933.195000", "171934.685000", "171936.175000", "171937.665000", "171939.155000", "171940.645000", "171942.135000", "171943.625000", "171945.115000", "171946.605000", "171948.095000", "171949.585000", "171951.075000", "171952.565000", "171954.055000", "171955.545000", "171957.035000", "171958.525000", "172000.015000", "172001.505000", "172002.995000", "172004.485000", "172005.975000", "172007.465000", "172008.955000", "172010.445000", "172011.935000", "172013.425000", "172014.915000", "172016.405000", "172017.895000", "172019.385000", "172020.875000", "172022.365000", "172023.855000", "172025.345000", "172026.835000", "172028.325000", "172029.815000", "172031.305000", "172032.795000", "172034.285000", "172035.775000", "172037.265000", "172038.755000", "172040.245000", "172041.735000", "172043.225000", "172044.715000", "172046.205000", "172047.695000", "172049.185000", "172050.675000", "172052.165000", "172053.655000", "172055.145000", "172056.635000", "172058.125000", "172059.615000", "172101.105000", "172102.595000", "172104.085000", "172105.575000", "172107.065000", "172108.555000", "172110.045000", "172111.535000", "172113.025000", "172114.515000", "172116.005000", "172117.495000", "172118.985000", "172120.475000", "172121.965000", "172123.455000", "172124.945000", "172126.435000", "172127.925000", "172129.415000", "172130.905000", "172132.395000", "172133.885000", "172135.375000", "172136.865000", "172138.355000", "172139.845000", "172141.335000", "172142.825000", "172144.315000", "172145.805000", "172147.295000", "172148.785000", "172150.275000", "172151.765000", "172153.255000", "172154.745000", "172156.235000", "172157.725000", "172159.215000", "172200.705000", "172202.195000", "172203.685000", "172205.175000", "172206.665000", "172208.155000", "172209.645000", "172211.135000", "172212.625000", "172214.115000", "172215.605000", "172217.095000", "172218.585000", "172220.075000", "172221.565000", "172223.055000", "172224.545000", "172226.035000", "172227.525000", "172229.015000", "172230.505000", "172231.995000", "172233.485000", "172234.975000", "172236.465000", "172237.955000", "172239.445000", "172240.935000", "172242.425000", "172243.915000", "172245.405000", "172246.895000", "172248.385000", "172249.875000", "172251.365000", "172252.855000", "172254.345000", "172255.835000", "172257.325000", "172258.815000", "172300.305000", "172301.795000", "172303.285000", "172304.775000", "172306.265000", "172307.755000", "172309.245000", "172310.735000", "172312.225000", "172313.715000", "172315.205000", "172316.695000", "172318.185000", "172319.675000", "172321.165000", "172322.655000", "172324.145000", "172325.635000", "172327.125000", "172328.615000", "172330.105000", "172331.595000", "172333.085000", "172334.575000", "172336.065000", "172337.555000", "172339.045000", "172340.535000", "172342.025000", "172343.515000", "172345.005000", "172346.495000", "172347.985000", "172349.475000", "172350.965000", "172352.455000", "172353.945000", "172355.435000", "172356.925000", "172358.415000", "172359.905000", "172401.395000", "172402.885000", "172404.375000", "172405.865000", "172407.355000", "172408.845000", "172410.335000", "172411.825000", "172413.315000", "172414.805000", "172416.295000", "172417.785000", "172419.275000", "172420.765000", "172422.255000", "172423.745000", "172425.235000", "172426.725000", "172428.215000", "172429.705000", "172431.195000", "172432.685000", "172434.175000", "172435.665000", "172437.155000", "172438.645000", "172440.135000", "172441.625000", "172443.115000", "172444.605000", "172446.095000", "172447.585000", "172449.075000", "172450.565000", "172452.055000", "172453.545000", "172455.035000", "172456.525000", "172458.015000", "172459.505000", "172500.995000", "172502.485000", "172503.975000", "172505.465000", "172506.955000", "172508.445000", "172509.935000", "172511.425000", "172512.915000", "172514.405000", "172515.895000", "172517.385000", "172518.875000", "172520.365000", "172521.855000", "172523.345000", "172524.835000", "172526.325000", "172527.815000", "172529.305000", "172530.795000", "172532.285000", "172533.775000", "172535.265000", "172536.755000", "172538.245000", "172539.735000", "172541.225000", "172542.715000", "172544.205000", "172545.695000"],
      "ContentTime": ["171537.050000", "171537.053000", "171537.056000", "171537.059000", "171537.062000", "171537.065000", "171537.068000", "171537.071000", "171537.074000", "171537.076000", "171537.079000", "171537.082000", "171537.085000", "171537.088000", "171537.091000", "171537.094000", "171537.106000", "171537.116000", "171537.119000", "171537.121000", "171537.124000", "171537.127000", "171557.016000", "171557.019000", "171557.022000", "171557.025000", "171557.028000", "171557.030000", "171557.033000", "171557.036000", "171557.039000", "171557.042000", "171557.044000", "171557.047000", "171557.050000", "171557.053000", "171557.059000", "171557.062000", "171557.065000", "171557.068000", "171557.070000", "171557.073000", "171557.076000", "171617.016000", "171617.019000", "171617.022000", "171617.025000", "171617.027000", "171617.030000", "171617.033000", "171617.036000", "171617.039000", "171617.042000", "171617.045000", "171617.048000", "171617.050000", "171617.053000", "171617.056000", "171617.059000", "171617.062000", "171617.065000", "171617.068000", "171617.071000", "171637.015000", "171637.018000", "171637.021000", "171637.024000", "171637.026000", "171637.029000", "171637.032000", "171637.035000", "171637.038000", "171637.040000", "171637.043000", "171637.046000", "171637.049000", "171637.052000", "171637.054000", "171637.057000", "171637.060000", "171637.063000", "171637.066000", "171637.068000", "171657.017000", "171657.020000", "171657.023000", "171657.026000", "171657.029000", "171657.031000", "171657.034000", "171657.037000", "171657.040000", "171657.043000", "171657.045000", "171657.048000", "171657.051000", "171657.054000", "171657.057000", "171657.060000", "171657.062000", "171657.065000", "171657.068000", "171657.071000", "171737.016000", "171737.019000", "171737.022000", "171737.025000", "171737.027000", "171737.030000", "171737.033000", "171737.036000", "171737.039000", "171737.041000", "171737.056000", "171737.059000", "171737.062000", "171737.064000", "171737.067000", "171737.070000", "171737.073000", "171737.076000", "171737.079000", "171737.081000", "171737.084000", "171737.087000", "171737.090000", "171737.093000", "171737.101000", "171737.104000", "171737.107000", "171817.016000", "171817.019000", "171817.022000", "171817.025000", "171817.027000", "171817.030000", "171817.033000", "171817.036000", "171817.040000", "171817.042000", "171817.045000", "171817.048000", "171817.051000", "171817.054000", "171817.057000", "171817.060000", "171817.063000", "171817.066000", "171817.068000", "171817.071000", "171817.074000", "171817.077000", "171817.080000", "171817.083000", "171817.086000", "171817.089000", "171817.091000", "171857.015000", "171857.018000", "171857.021000", "171857.024000", "171857.026000", "171857.029000", "171857.032000", "171857.035000", "171857.038000", "171857.041000", "171857.043000", "171857.046000", "171857.049000", "171857.058000", "171857.061000", "171857.064000", "171857.078000", "171857.081000", "171857.084000", "171857.087000", "171857.090000", "171857.093000", "171857.096000", "171857.098000", "171857.101000", "171857.104000", "171857.107000", "171937.016000", "171937.019000", "171937.022000", "171937.024000", "171937.027000", "171937.030000", "171937.033000", "171937.036000", "171937.039000", "171937.042000", "171937.044000", "171937.047000", "171937.050000", "171937.053000", "171937.056000", "171937.058000", "171937.061000", "171937.064000", "171937.067000", "171937.070000", "171937.073000", "171937.075000", "171937.078000", "171937.081000", "171937.084000", "171937.087000", "171937.090000", "172017.016000", "172017.019000", "172017.022000", "172017.025000", "172017.034000", "172017.037000", "172017.039000", "172017.042000", "172017.045000", "172017.048000", "172017.051000", "172017.054000", "172017.057000", "172017.060000", "172017.062000", "172017.065000", "172017.068000", "172017.071000", "172017.074000", "172017.077000", "172017.080000", "172017.083000", "172017.086000", "172017.089000", "172017.092000", "172017.094000", "172017.097000", "172057.016000", "172057.021000", "172057.024000", "172057.027000", "172057.030000", "172057.033000", "172057.036000", "172057.040000", "172057.042000", "172057.045000", "172057.048000", "172057.051000", "172057.054000", "172057.057000", "172057.060000", "172057.063000", "172057.066000", "172057.068000", "172057.071000", "172057.074000", "172057.077000", "172057.080000", "172057.083000", "172057.086000", "172057.089000", "172057.091000", "172137.016000", "172137.019000", "172137.022000", "172137.025000", "172137.028000", "172137.031000", "172137.034000", "172137.036000", "172137.039000", "172137.042000", "172137.045000", "172137.048000", "172137.051000", "172137.054000", "172137.057000", "172137.060000", "172137.062000", "172137.065000", "172137.068000", "172137.071000", "172137.074000", "172137.077000", "172137.080000", "172137.083000", "172137.085000", "172137.088000", "172137.091000", "172217.016000", "172217.019000", "172217.022000", "172217.025000", "172217.028000", "172217.031000", "172217.034000", "172217.036000", "172217.039000", "172217.042000", "172217.045000", "172217.048000", "172217.051000", "172217.054000", "172217.057000", "172217.059000", "172217.062000", "172217.065000", "172217.068000", "172217.071000", "172217.074000", "172217.077000", "172217.080000", "172217.083000", "172217.086000", "172217.088000", "172217.091000", "172257.016000", "172257.019000", "172257.022000", "172257.025000", "172257.027000", "172257.030000", "172257.033000", "172257.036000", "172257.039000", "172257.042000", "172257.044000", "172257.047000", "172257.050000", "172257.053000", "172257.056000", "172257.058000", "172257.061000", "172257.064000", "172257.067000", "172257.070000", "172257.073000", "172257.076000", "172257.079000", "172257.081000", "172257.084000", "172257.087000", "172257.090000", "172337.015000", "172337.018000", "172337.021000", "172337.024000", "172337.027000", "172337.029000", "172337.032000", "172337.035000", "172337.038000", "172337.041000", "172337.044000", "172337.047000", "172337.049000", "172337.052000", "172337.055000", "172337.058000", "172337.061000", "172337.064000", "172337.067000", "172337.069000", "172337.072000", "172337.075000", "172337.078000", "172337.081000", "172337.083000", "172337.086000", "172337.089000", "172417.016000", "172417.022000", "172417.024000", "172417.039000", "172417.042000", "172417.045000", "172417.048000", "172417.051000", "172417.054000", "172417.057000", "172417.059000", "172417.062000", "172417.065000", "172417.068000", "172417.071000", "172417.074000", "172417.077000", "172417.080000", "172417.083000", "172417.085000", "172417.088000", "172417.091000", "172417.094000", "172417.097000", "172417.100000", "172417.103000", "172417.106000", "172457.016000", "172457.019000", "172457.022000", "172457.025000", "172457.028000", "172457.030000", "172457.033000", "172457.036000", "172457.039000", "172457.042000", "172457.045000", "172457.047000", "172457.050000", "172457.053000", "172457.056000", "172457.059000", "172457.062000", "172457.064000", "172457.067000", "172457.070000", "172457.073000", "172457.076000", "172457.079000", "172457.081000", "172457.084000", "172457.087000", "172457.090000", "172537.017000", "172537.020000", "172537.023000", "172537.026000", "172537.029000", "172537.032000", "172537.035000", "172537.038000", "172537.041000", "172537.044000", "172537.046000", "172537.049000", "172537.052000", "172537.055000", "172537.058000", "172537.061000", "172537.064000", "172537.067000", "172537.070000", "172537.073000", "172537.076000", "172537.079000", "172537.081000", "172537.084000", "172537.087000", "172537.090000", "172547.629000", "172547.632000", "172547.635000", "172547.644000", "172547.647000", "172547.650000", "172547.653000", "172547.656000"],
