{
  "AcquisitionMatrixPE": 104,
  "AcquisitionNumber": 1,
  "AcquisitionTime": "18:04:10.177500",
  "BandwidthPerPixelPhaseEncode": 17.17,
  "BaseResolution": 104,
  "BodyPartExamined": "BRAIN",
  "CoilString": "HC1-7;NC1_2",
  "ConsistencyInfo": "N4_VE11C_LATEST_20160120",
  "ConversionSoftware": "dcm2niix",
  "ConversionSoftwareVersion": "v1.0.20190902",
  "DerivedVendorReportedEchoSpacing": 0.000560011,
  "DeviceSerialNumber": "167006",
  "DwellTime": 2.1e-06,
  "EchoTime": 0.037,
  "EchoTrainLength": 104,
  "EffectiveEchoSpacing": 0.000560011,
  "FlipAngle": 52,
  "ImageComments": "Unaliased_MB4_PE3_LB",
  "ImageOrientationPatientDICOM": [0.999308, -0.0370051, -0.0038749, 0.0331504, 0.932793, -0.358885],
  "ImageType": [
    "ORIGINAL",
    "PRIMARY",
    "M",
    "MB",
    "ND",
    "MOSAIC"
],
  "ImagingFrequency": 123.259,
  "InPlanePhaseEncodingDirectionDICOM": "COL",
  "InstitutionAddress": "Chemin_Queen-Mary_4565_Montreal_District_CA_H3W_1W5",
  "InstitutionName": "IUGM",
  "InstitutionalDepartmentName": "Department",
  "MRAcquisitionType": "2D",
  "MagneticFieldStrength": 3,
  "Manufacturer": "Siemens",
  "ManufacturersModelName": "Prisma_fit",
  "Modality": "MR",
  "MultibandAccelerationFactor": 4,
  "PartialFourier": 1,
  "PatientPosition": "HFS",
  "PercentPhaseFOV": 100,
  "PhaseEncodingDirection": "j",
  "PhaseEncodingSteps": 104,
  "PhaseResolution": 1,
  "PixelBandwidth": 2290,
  "ProcedureStepDescription": "video_friends",
  "ProtocolName": "func_task-friends-s03e10a",
  "PulseSequenceDetails": "%CustomerSeq%_cmrr_mbep2d_bold",
  "ReceiveCoilActiveElements": "HC1-7;NC1,2",
  "ReceiveCoilName": "HeadNeck_64",
  "ReconMatrixPE": 104,
  "RepetitionTime": 1.49,
  "SAR": 0.0350414,
  "ScanOptions": "FS",
  "ScanningSequence": "EP",
  "SequenceName": "epfid2d1_104",
  "SequenceVariant": "SK_SS",
  "SeriesDescription": "func_task-friends-s03e10a",
  "SeriesNumber": 25,
  "ShimSetting": [621, -7280, -8826, 459, 7, -437, 62, 39],
  "SliceThickness": 2,
  "SliceTiming": [0, 0.785, 0.0975, 0.8825, 0.1975, 0.98, 0.295, 1.0775, 0.3925, 1.1775, 0.49, 1.275, 0.5875, 1.3725, 0.6875, 0, 0.785, 0.0975, 0.8825, 0.1975, 0.98, 0.295, 1.0775, 0.3925, 1.1775, 0.49, 1.275, 0.5875, 1.3725, 0.6875, 0, 0.785, 0.0975, 0.8825, 0.1975, 0.98, 0.295, 1.0775, 0.3925, 1.1775, 0.49, 1.275, 0.5875, 1.3725, 0.6875, 0, 0.785, 0.0975, 0.8825, 0.1975, 0.98, 0.295, 1.0775, 0.3925, 1.1775, 0.49, 1.275, 0.5875, 1.3725, 0.6875],
  "SoftwareVersions": "syngo_MR_E11",
  "SpacingBetweenSlices": 2,
  "StationName": "MRC35049",
  "TaskName": "s03e10a",
  "TotalReadoutTime": 0.0576811,
  "TxRefAmp": 234.263,
  "WipMemBlock": "419ccb5b-972e-43dc-af64-ba9e2657944a||Sequence: R016 ve11c/master r/e634e98; Dec 19 2017 11:00:25 by eja",
  "dcmmeta_affine": [
    [-1.9986151456832886, 0.0663008764386177, -0.03379014879465103, 97.12187957763672],
    [0.07401027530431747, 1.8655856847763062, -0.7170165181159973, -74.05978393554688],
    [-0.007749796845018864, 0.7177704572677612, 1.8667473793029785, -66.0636215209961],
    [0.0, 0.0, 0.0, 1.0]
],
  "dcmmeta_reorient_transform": [
    [0.0, -1.0, 0.0, 103.0],
    [1.0, 0.0, 0.0, 0.0],
    [0.0, 0.0, 1.0, 0.0],
    [0.0, 0.0, 0.0, 1.0]
],
  "dcmmeta_shape": [104, 104, 60, 451],
  "dcmmeta_slice_dim": 2,
  "dcmmeta_version": 0.6,
  "global": {
    "const": {
      "AcquisitionMatrix": [104, 0, 0, 104],
      "AngioFlag": "N",
      "BitsAllocated": 16,
      "BitsStored": 16,
      "BodyPartExamined": "BRAIN",
      "Columns": 832,
      "EchoNumbers": 1,
      "EchoTime": 37.0,
      "EchoTrainLength": 104,
      "FlipAngle": 52.0,
      "HighBit": 15,
      "ImageOrientationPatient": [0.99930756277312, -0.0370051367657, -0.0038748983732, 0.03315043684927, 0.93279282302503, -0.3588852154237],
      "ImagePositionPatient": [-855.58029439051, -770.22897351328, 271.95609363405],
      "ImageType": [
        "ORIGINAL",
        "PRIMARY",
        "M",
        "MB",
        "ND",
        "MOSAIC"
],
      "ImagedNucleus": "1H",
      "ImagingFrequency": 123.258983,
      "InPlanePhaseEncodingDirection": "COL",
      "MRAcquisitionType": "2D",
      "MagneticFieldStrength": 3.0,
      "Manufacturer": "SIEMENS",
      "ManufacturerModelName": "Prisma_fit",
      "Modality": "MR",
      "NumberOfAverages": 1.0,
      "NumberOfPhaseEncodingSteps": 104,
      "PercentPhaseFieldOfView": 100.0,
      "PercentSampling": 100.0,
      "PerformedProcedureStepStartTime": "160424.957000",
      "PhotometricInterpretation": "MONOCHROME2",
      "PixelBandwidth": 2290.0,
      "PixelRepresentation": 0,
      "PixelSpacing": [2.0, 2.0],
      "ProtocolName": "func_task-friends-s03e10a",
      "RepetitionTime": 1490.0,
      "Rows": 832,
      "SAR": 0.03504136052747,
      "SamplesPerPixel": 1,
      "ScanOptions": "FS",
      "ScanningSequence": "EP",
      "SequenceName": "epfid2d1_104",
      "SequenceVariant": [
        "SK",
        "SS"
],
      "SeriesDescription": "func_task-friends-s03e10a",
      "SeriesNumber": 25,
      "SeriesTime": "180527.810000",
      "SliceLocation": -36.751883602232,
      "SliceThickness": 2.0,
      "SmallestImagePixelValue": 0,
      "SoftwareVersions": "syngo MR E11",
      "SpacingBetweenSlices": 2.0000000281881,
      "SpecificCharacterSet": "ISO_IR 100",
      "StudyID": "1",
      "StudyTime": "160424.893000",
      "TransmitCoilName": "Body",
      "VariableFlipAngleFlag": "N",
      "WindowCenterWidthExplanation": "Algo1",
      "dBdt": 0.0},
    "slices": {}
  },
  "time": {
    "samples": {
      "AcquisitionNumber": [1, 2, 3, 4, 5, 6, 7, 8, 9, 10, 11, 12, 13, 14, 15, 16, 17, 18, 19, 20, 21, 22, 23, 24, 25, 26, 27, 28, 29, 30, 31, 32, 33, 34, 35, 36, 37, 38, 39, 40, 41, 42, 43, 44, 45, 46, 47, 48, 49, 50, 51, 52, 53, 54, 55, 56, 57, 58, 59, 60, 61, 62, 63, 64, 65, 66, 67, 68, 69, 70, 71, 72, 73, 74, 75, 76, 77, 78, 79, 80, 81, 82, 83, 84, 85, 86, 87, 88, 89, 90, 91, 92, 93, 94, 95, 96, 97, 98, 99, 100, 101, 102, 103, 104, 105, 106, 107, 108, 109, 110, 111, 112, 113, 114, 115, 116, 117, 118, 119, 120, 121, 122, 123, 124, 125, 126, 127, 128, 129, 130, 131, 132, 133, 134, 135, 136, 137, 138, 139, 140, 141, 142, 143, 144, 145, 146, 147, 148, 149, 150, 151, 152, 153, 154, 155, 156, 157, 158, 159, 160, 161, 162, 163, 164, 165, 166, 167, 168, 169, 170, 171, 172, 173, 174, 175, 176, 177, 178, 179, 180, 181, 182, 183, 184, 185, 186, 187, 188, 189, 190, 191, 192, 193, 194, 195, 196, 197, 198, 199, 200, 201, 202, 203, 204, 205, 206, 207, 208, 209, 210, 211, 212, 213, 214, 215, 216, 217, 218, 219, 220, 221, 222, 223, 224, 225, 226, 227, 228, 229, 230, 231, 232, 233, 234, 235, 236, 237, 238, 239, 240, 241, 242, 243, 244, 245, 246, 247, 248, 249, 250, 251, 252, 253, 254, 255, 256, 257, 258, 259, 260, 261, 262, 263, 264, 265, 266, 267, 268, 269, 270, 271, 272, 273, 274, 275, 276, 277, 278, 279, 280, 281, 282, 283, 284, 285, 286, 287, 288, 289, 290, 291, 292, 293, 294, 295, 296, 297, 298, 299, 300, 301, 302, 303, 304, 305, 306, 307, 308, 309, 310, 311, 312, 313, 314, 315, 316, 317, 318, 319, 320, 321, 322, 323, 324, 325, 326, 327, 328, 329, 330, 331, 332, 333, 334, 335, 336, 337, 338, 339, 340, 341, 342, 343, 344, 345, 346, 347, 348, 349, 350, 351, 352, 353, 354, 355, 356, 357, 358, 359, 360, 361, 362, 363, 364, 365, 366, 367, 368, 369, 370, 371, 372, 373, 374, 375, 376, 377, 378, 379, 380, 381, 382, 383, 384, 385, 386, 387, 388, 389, 390, 391, 392, 393, 394, 395, 396, 397, 398, 399, 400, 401, 402, 403, 404, 405, 406, 407, 408, 409, 410, 411, 412, 413, 414, 415, 416, 417, 418, 419, 420, 421, 422, 423, 424, 425, 426, 427, 428, 429, 430, 431, 432, 433, 434, 435, 436, 437, 438, 439, 440, 441, 442, 443, 444, 445, 446, 447, 448, 449, 450, 451],
      "AcquisitionTime": ["180410.177500", "180411.667500", "180413.157500", "180414.647500", "180416.137500", "180417.627500", "180419.117500", "180420.607500", "180422.097500", "180423.587500", "180425.077500", "180426.567500", "180428.057500", "180429.547500", "180431.037500", "180432.527500", "180434.017500", "180435.507500", "180436.997500", "180438.487500", "180439.977500", "180441.467500", "180442.957500", "180444.447500", "180445.937500", "180447.427500", "180448.917500", "180450.407500", "180451.897500", "180453.387500", "180454.877500", "180456.367500", "180457.857500", "180459.347500", "180500.837500", "180502.327500", "180503.817500", "180505.307500", "180506.797500", "180508.287500", "180509.777500", "180511.267500", "180512.757500", "180514.247500", "180515.737500", "180517.227500", "180518.717500", "180520.207500", "180521.697500", "180523.187500", "180524.677500", "180526.167500", "180527.657500", "180529.147500", "180530.637500", "180532.127500", "180533.617500", "180535.107500", "180536.597500", "180538.087500", "180539.577500", "180541.067500", "180542.557500", "180544.047500", "180545.537500", "180547.027500", "180548.517500", "180550.007500", "180551.497500", "180552.987500", "180554.477500", "180555.967500", "180557.457500", "180558.947500", "180600.437500", "180601.927500", "180603.417500", "180604.907500", "180606.397500", "180607.887500", "180609.377500", "180610.867500", "180612.357500", "180613.847500", "180615.337500", "180616.827500", "180618.317500", "180619.807500", "180621.297500", "180622.787500", "180624.277500", "180625.767500", "180627.257500", "180628.747500", "180630.237500", "180631.727500", "180633.217500", "180634.707500", "180636.197500", "180637.687500", "180639.177500", "180640.667500", "180642.157500", "180643.647500", "180645.137500", "180646.627500", "180648.117500", "180649.607500", "180651.097500", "180652.587500", "180654.077500", "180655.567500", "180657.057500", "180658.547500", "180700.037500", "180701.527500", "180703.017500", "180704.507500", "180705.997500", "180707.487500", "180708.977500", "180710.467500", "180711.957500", "180713.447500", "180714.937500", "180716.427500", "180717.917500", "180719.407500", "180720.897500", "180722.387500", "180723.877500", "180725.367500", "180726.857500", "180728.347500", "180729.837500", "180731.327500", "180732.817500", "180734.307500", "180735.797500", "180737.287500", "180738.777500", "180740.267500", "180741.757500", "180743.247500", "180744.737500", "180746.227500", "180747.717500", "180749.207500", "180750.697500", "180752.187500", "180753.677500", "180755.167500", "180756.657500", "180758.147500", "180759.637500", "180801.127500", "180802.617500", "180804.107500", "180805.597500", "180807.087500", "180808.577500", "180810.067500", "180811.557500", "180813.047500", "180814.537500", "180816.027500", "180817.517500", "180819.007500", "180820.497500", "180821.987500", "180823.477500", "180824.967500", "180826.457500", "180827.947500", "180829.437500", "180830.927500", "180832.417500", "180833.907500", "180835.397500", "180836.887500", "180838.377500", "180839.867500", "180841.357500", "180842.847500", "180844.337500", "180845.827500", "180847.317500", "180848.807500", "180850.297500", "180851.787500", "180853.277500", "180854.767500", "180856.257500", "180857.747500", "180859.237500", "180900.727500", "180902.217500", "180903.707500", "180905.197500", "180906.687500", "180908.177500", "180909.667500", "180911.157500", "180912.647500", "180914.137500", "180915.627500", "180917.117500", "180918.607500", "180920.097500", "180921.587500", "180923.077500", "180924.567500", "180926.057500", "180927.547500", "180929.037500", "180930.527500", "180932.017500", "180933.507500", "180934.997500", "180936.487500", "180937.977500", "180939.467500", "180940.957500", "180942.447500", "180943.937500", "180945.427500", "180946.917500", "180948.407500", "180949.897500", "180951.387500", "180952.877500", "180954.367500", "180955.857500", "180957.347500", "180958.837500", "181000.327500", "181001.817500", "181003.307500", "181004.797500", "181006.287500", "181007.777500", "181009.267500", "181010.757500", "181012.247500", "181013.737500", "181015.227500", "181016.717500", "181018.207500", "181019.697500", "181021.187500", "181022.677500", "181024.167500", "181025.657500", "181027.147500", "181028.637500", "181030.127500", "181031.617500", "181033.107500", "181034.597500", "181036.087500", "181037.577500", "181039.067500", "181040.557500", "181042.047500", "181043.537500", "181045.027500", "181046.517500", "181048.007500", "181049.497500", "181050.987500", "181052.477500", "181053.967500", "181055.457500", "181056.947500", "181058.437500", "181059.927500", "181101.417500", "181102.907500", "181104.397500", "181105.887500", "181107.377500", "181108.867500", "181110.357500", "181111.847500", "181113.337500", "181114.827500", "181116.317500", "181117.807500", "181119.297500", "181120.787500", "181122.277500", "181123.767500", "181125.257500", "181126.747500", "181128.237500", "181129.727500", "181131.217500", "181132.707500", "181134.197500", "181135.687500", "181137.177500", "181138.667500", "181140.157500", "181141.647500", "181143.137500", "181144.627500", "181146.117500", "181147.607500", "181149.097500", "181150.587500", "181152.077500", "181153.567500", "181155.057500", "181156.547500", "181158.037500", "181159.527500", "181201.017500", "181202.507500", "181203.997500", "181205.487500", "181206.977500", "181208.467500", "181209.957500", "181211.447500", "181212.937500", "181214.427500", "181215.917500", "181217.407500", "181218.897500", "181220.387500", "181221.877500", "181223.367500", "181224.857500", "181226.347500", "181227.837500", "181229.327500", "181230.817500", "181232.307500", "181233.797500", "181235.287500", "181236.777500", "181238.267500", "181239.757500", "181241.247500", "181242.737500", "181244.227500", "181245.717500", "181247.207500", "181248.697500", "181250.187500", "181251.677500", "181253.167500", "181254.657500", "181256.147500", "181257.637500", "181259.127500", "181300.617500", "181302.107500", "181303.597500", "181305.087500", "181306.577500", "181308.067500", "181309.557500", "181311.047500", "181312.537500", "181314.027500", "181315.517500", "181317.007500", "181318.497500", "181319.987500", "181321.477500", "181322.967500", "181324.457500", "181325.947500", "181327.437500", "181328.927500", "181330.417500", "181331.907500", "181333.397500", "181334.887500", "181336.377500", "181337.867500", "181339.357500", "181340.847500", "181342.337500", "181343.827500", "181345.317500", "181346.807500", "181348.297500", "181349.787500", "181351.277500", "181352.767500", "181354.257500", "181355.747500", "181357.237500", "181358.727500", "181400.217500", "181401.707500", "181403.197500", "181404.687500", "181406.177500", "181407.667500", "181409.157500", "181410.647500", "181412.137500", "181413.627500", "181415.117500", "181416.607500", "181418.097500", "181419.587500", "181421.077500", "181422.567500", "181424.057500", "181425.547500", "181427.037500", "181428.527500", "181430.017500", "181431.507500", "181432.997500", "181434.487500", "181435.977500", "181437.467500", "181438.957500", "181440.447500", "181441.937500", "181443.427500", "181444.917500", "181446.407500", "181447.897500", "181449.387500", "181450.877500", "181452.367500", "181453.857500", "181455.347500", "181456.837500", "181458.327500", "181459.817500", "181501.307500", "181502.797500", "181504.287500", "181505.777500", "181507.267500", "181508.757500", "181510.247500", "181511.737500", "181513.227500", "181514.717500", "181516.207500", "181517.697500", "181519.187500", "181520.677500"],
      "ContentTime": ["180527.813000", "180527.816000", "180527.819000", "180527.822000", "180527.825000", "180527.828000", "180527.830000", "180527.838000", "180527.841000", "180527.844000", "180527.847000", "180527.849000", "180527.852000", "180527.855000", "180527.863000", "180527.866000", "180527.874000", "180527.877000", "180527.880000", "180527.882000", "180527.904000", "180527.907000", "180527.910000", "180527.912000", "180547.784000", "180547.793000", "180547.796000", "180547.799000", "180547.802000", "180547.804000", "180547.807000", "180547.810000", "180547.813000", "180547.816000", "180547.819000", "180547.822000", "180547.835000", "180547.838000", "180547.841000", "180547.844000", "180547.846000", "180547.849000", "180547.852000", "180547.855000", "180607.783000", "180607.786000", "180607.799000", "180607.802000", "180607.805000", "180607.808000", "180607.811000", "180607.814000", "180607.817000", "180607.819000", "180607.822000", "180607.825000", "180607.828000", "180607.831000", "180607.833000", "180607.841000", "180607.844000", "180607.846000", "180607.849000", "180607.852000", "180627.783000", "180627.786000", "180627.789000", "180627.792000", "180627.794000", "180627.797000", "180627.800000", "180627.803000", "180627.806000", "180627.809000", "180627.812000", "180627.815000", "180627.817000", "180627.820000", "180627.823000", "180627.826000", "180627.829000", "180627.832000", "180627.835000", "180627.838000", "180627.840000", "180647.784000", "180647.787000", "180647.790000", "180647.792000", "180647.795000", "180647.798000", "180647.801000", "180647.804000", "180647.807000", "180647.809000", "180647.812000", "180647.815000", "180647.818000", "180647.821000", "180647.823000", "180647.826000", "180647.829000", "180647.839000", "180647.842000", "180647.844000", "180707.784000", "180707.787000", "180707.790000", "180707.793000", "180707.795000", "180707.798000", "180707.801000", "180707.804000", "180707.807000", "180707.810000", "180707.812000", "180707.815000", "180707.818000", "180747.784000", "180747.787000", "180747.790000", "180747.793000", "180747.795000", "180747.798000", "180747.801000", "180747.804000", "180747.807000", "180747.809000", "180747.812000", "180747.815000", "180747.818000", "180747.821000", "180747.823000", "180747.826000", "180747.829000", "180747.832000", "180747.835000", "180747.838000", "180747.840000", "180747.843000", "180747.846000", "180747.849000", "180747.852000", "180747.855000", "180747.857000", "180827.783000", "180827.786000", "180827.789000", "180827.792000", "180827.794000", "180827.797000", "180827.800000", "180827.803000", "180827.806000", "180827.809000", "180827.811000", "180827.814000", "180827.817000", "180827.820000", "180827.823000", "180827.826000", "180827.828000", "180827.831000", "180827.834000", "180827.837000", "180827.840000", "180827.842000", "180827.845000", "180827.848000", "180827.851000", "180827.854000", "180827.857000", "180907.784000", "180907.787000", "180907.790000", "180907.793000", "180907.795000", "180907.798000", "180907.801000", "180907.804000", "180907.807000", "180907.810000", "180907.812000", "180907.815000", "180907.818000", "180907.821000", "180907.824000", "180907.827000", "180907.830000", "180907.832000", "180907.835000", "180907.838000", "180907.841000", "180907.844000", "180907.847000", "180907.849000", "180907.852000", "180907.855000", "180907.858000", "180947.784000", "180947.787000", "180947.790000", "180947.793000", "180947.795000", "180947.798000", "180947.801000", "180947.804000", "180947.807000", "180947.809000", "180947.812000", "180947.815000", "180947.818000", "180947.821000", "180947.824000", "180947.827000", "180947.829000", "180947.832000", "180947.835000", "180947.838000", "180947.841000", "180947.843000", "180947.846000", "180947.849000", "180947.852000", "180947.855000", "180947.858000", "181027.783000", "181027.793000", "181027.796000", "181027.798000", "181027.801000", "181027.804000", "181027.807000", "181027.810000", "181027.813000", "181027.815000", "181027.818000", "181027.821000", "181027.824000", "181027.827000", "181027.830000", "181027.832000", "181027.835000", "181027.838000", "181027.841000", "181027.844000", "181027.847000", "181027.849000", "181027.852000", "181027.855000", "181027.858000", "181027.861000", "181027.864000", "181107.783000", "181107.786000", "181107.789000", "181107.792000", "181107.795000", "181107.797000", "181107.800000", "181107.803000", "181107.806000", "181107.817000", "181107.820000", "181107.823000", "181107.825000", "181107.828000", "181107.831000", "181107.834000", "181107.837000", "181107.840000", "181107.843000", "181107.846000", "181107.849000", "181107.852000", "181107.855000", "181107.858000", "181107.861000", "181107.864000", "181147.784000", "181147.787000", "181147.790000", "181147.792000", "181147.795000", "181147.798000", "181147.801000", "181147.804000", "181147.807000", "181147.809000", "181147.812000", "181147.815000", "181147.818000", "181147.821000", "181147.824000", "181147.827000", "181147.829000", "181147.832000", "181147.835000", "181147.838000", "181147.841000", "181147.843000", "181147.846000", "181147.849000", "181147.852000", "181147.855000", "181147.857000", "181227.784000", "181227.787000", "181227.790000", "181227.793000", "181227.796000", "181227.798000", "181227.801000", "181227.804000", "181227.821000", "181227.824000", "181227.827000", "181227.829000", "181227.833000", "181227.835000", "181227.838000", "181227.841000", "181227.844000", "181227.847000", "181227.850000", "181227.852000", "181227.855000", "181227.858000", "181227.861000", "181227.864000", "181227.867000", "181227.870000", "181227.872000", "181307.783000", "181307.786000", "181307.789000", "181307.792000", "181307.795000", "181307.797000", "181307.800000", "181307.803000", "181307.806000", "181307.809000", "181307.812000", "181307.815000", "181307.818000", "181307.820000", "181307.823000", "181307.826000", "181307.829000", "181307.832000", "181307.835000", "181307.838000", "181307.841000", "181307.843000", "181307.846000", "181307.849000", "181307.852000", "181307.855000", "181307.858000", "181347.784000", "181347.787000", "181347.790000", "181347.793000", "181347.795000", "181347.798000", "181347.801000", "181347.804000", "181347.807000", "181347.810000", "181347.813000", "181347.816000", "181347.819000", "181347.821000", "181347.824000", "181347.827000", "181347.830000", "181347.833000", "181347.836000", "181347.839000", "181347.842000", "181347.845000", "181347.848000", "181347.850000", "181347.853000", "181347.856000", "181347.859000", "181427.784000", "181427.787000", "181427.790000", "181427.793000", "181427.796000", "181427.799000", "181427.802000", "181427.804000", "181427.807000", "181427.810000", "181427.813000", "181427.816000", "181427.819000", "181427.822000", "181427.825000", "181427.838000", "181427.840000", "181427.844000", "181427.846000", "181427.849000", "181427.852000", "181427.855000", "181427.858000", "181427.861000", "181427.864000", "181427.867000", "181427.869000", "181507.783000", "181507.786000", "181507.789000", "181507.792000", "181507.794000", "181507.797000", "181507.800000", "181507.803000", "181507.806000", "181507.809000", "181507.812000", "181507.814000", "181507.817000", "181507.820000", "181507.823000", "181507.826000", "181507.829000", "181507.832000", "181507.834000", "181507.837000", "181507.840000", "181507.843000", "181507.846000", "181507.849000", "181507.851000", "181507.854000", "181507.857000", "181522.671000", "181522.674000", "181522.677000", "181522.680000", "181522.683000", "181522.686000", "181522.689000", "181522.692000", "181522.694000", "181522.697000"],
