{
  "AcquisitionMatrixPE": 104,
  "AcquisitionNumber": 1,
  "AcquisitionTime": "17:51:31.000000",
  "BandwidthPerPixelPhaseEncode": 17.17,
  "BaseResolution": 104,
  "BodyPartExamined": "BRAIN",
  "CoilString": "HC1-7;NC1_2",
  "ConsistencyInfo": "N4_VE11C_LATEST_20160120",
  "ConversionSoftware": "dcm2niix",
  "ConversionSoftwareVersion": "v1.0.20190902",
  "DerivedVendorReportedEchoSpacing": 0.000560011,
  "DeviceSerialNumber": "167006",
  "DwellTime": 2.1e-06,
  "EchoTime": 0.037,
  "EchoTrainLength": 104,
  "EffectiveEchoSpacing": 0.000560011,
  "FlipAngle": 52,
  "ImageComments": "Unaliased_MB4_PE3_LB",
  "ImageOrientationPatientDICOM": [0.999308, -0.0370051, -0.0038749, 0.0331504, 0.932793, -0.358885],
  "ImageType": [
    "ORIGINAL",
    "PRIMARY",
    "M",
    "MB",
    "ND",
    "MOSAIC"
],
  "ImagingFrequency": 123.259,
  "InPlanePhaseEncodingDirectionDICOM": "COL",
  "InstitutionAddress": "Chemin_Queen-Mary_4565_Montreal_District_CA_H3W_1W5",
  "InstitutionName": "IUGM",
  "InstitutionalDepartmentName": "Department",
  "MRAcquisitionType": "2D",
  "MagneticFieldStrength": 3,
  "Manufacturer": "Siemens",
  "ManufacturersModelName": "Prisma_fit",
  "Modality": "MR",
  "MultibandAccelerationFactor": 4,
  "PartialFourier": 1,
  "PatientPosition": "HFS",
  "PercentPhaseFOV": 100,
  "PhaseEncodingDirection": "j",
  "PhaseEncodingSteps": 104,
  "PhaseResolution": 1,
  "PixelBandwidth": 2290,
  "ProcedureStepDescription": "video_friends",
  "ProtocolName": "func_task-friends-s03e09b",
  "PulseSequenceDetails": "%CustomerSeq%_cmrr_mbep2d_bold",
  "ReceiveCoilActiveElements": "HC1-7;NC1,2",
  "ReceiveCoilName": "HeadNeck_64",
  "ReconMatrixPE": 104,
  "RepetitionTime": 1.49,
  "SAR": 0.0350544,
  "ScanOptions": "FS",
  "ScanningSequence": "EP",
  "SequenceName": "epfid2d1_104",
  "SequenceVariant": "SK_SS",
  "SeriesDescription": "func_task-friends-s03e09b",
  "SeriesNumber": 23,
  "ShimSetting": [621, -7280, -8826, 459, 7, -437, 62, 39],
  "SliceThickness": 2,
  "SliceTiming": [0, 0.7825, 0.0975, 0.88, 0.195, 0.98, 0.2925, 1.0775, 0.39, 1.175, 0.49, 1.2725, 0.5875, 1.37, 0.685, 0, 0.7825, 0.0975, 0.88, 0.195, 0.98, 0.2925, 1.0775, 0.39, 1.175, 0.49, 1.2725, 0.5875, 1.37, 0.685, 0, 0.7825, 0.0975, 0.88, 0.195, 0.98, 0.2925, 1.0775, 0.39, 1.175, 0.49, 1.2725, 0.5875, 1.37, 0.685, 0, 0.7825, 0.0975, 0.88, 0.195, 0.98, 0.2925, 1.0775, 0.39, 1.175, 0.49, 1.2725, 0.5875, 1.37, 0.685],
  "SoftwareVersions": "syngo_MR_E11",
  "SpacingBetweenSlices": 2,
  "StationName": "MRC35049",
  "TaskName": "s03e09b",
  "TotalReadoutTime": 0.0576811,
  "TxRefAmp": 234.263,
  "WipMemBlock": "ea07c71b-8ad5-42d8-ae2e-f5f85806239b||Sequence: R016 ve11c/master r/e634e98; Dec 19 2017 11:00:25 by eja",
  "dcmmeta_affine": [
    [-1.9986151456832886, 0.0663008764386177, -0.03379014879465103, 97.12187957763672],
    [0.07401027530431747, 1.8655856847763062, -0.7170165181159973, -74.05978393554688],
    [-0.007749796845018864, 0.7177704572677612, 1.8667473793029785, -66.0636215209961],
    [0.0, 0.0, 0.0, 1.0]
],
  "dcmmeta_reorient_transform": [
    [0.0, -1.0, 0.0, 103.0],
    [1.0, 0.0, 0.0, 0.0],
    [0.0, 0.0, 1.0, 0.0],
    [0.0, 0.0, 0.0, 1.0]
],
  "dcmmeta_shape": [104, 104, 60, 493],
  "dcmmeta_slice_dim": 2,
  "dcmmeta_version": 0.6,
  "global": {
    "const": {
      "AcquisitionMatrix": [104, 0, 0, 104],
      "AngioFlag": "N",
      "BitsAllocated": 16,
      "BitsStored": 16,
      "BodyPartExamined": "BRAIN",
      "Columns": 832,
      "EchoNumbers": 1,
      "EchoTime": 37.0,
      "EchoTrainLength": 104,
      "FlipAngle": 52.0,
      "HighBit": 15,
      "ImageOrientationPatient": [0.99930756277312, -0.0370051367657, -0.0038748983732, 0.03315043684927, 0.93279282302503, -0.3588852154237],
      "ImagePositionPatient": [-855.58029439051, -770.22897351328, 271.95609363405],
      "ImageType": [
        "ORIGINAL",
        "PRIMARY",
        "M",
        "MB",
        "ND",
        "MOSAIC"
],
      "ImagedNucleus": "1H",
      "ImagingFrequency": 123.25898,
      "InPlanePhaseEncodingDirection": "COL",
      "MRAcquisitionType": "2D",
      "MagneticFieldStrength": 3.0,
      "Manufacturer": "SIEMENS",
      "ManufacturerModelName": "Prisma_fit",
      "Modality": "MR",
      "NumberOfAverages": 1.0,
      "NumberOfPhaseEncodingSteps": 104,
      "PercentPhaseFieldOfView": 100.0,
      "PercentSampling": 100.0,
      "PerformedProcedureStepStartTime": "160424.957000",
      "PhotometricInterpretation": "MONOCHROME2",
      "PixelBandwidth": 2290.0,
      "PixelRepresentation": 0,
      "PixelSpacing": [2.0, 2.0],
      "ProtocolName": "func_task-friends-s03e09b",
      "RepetitionTime": 1490.0,
      "Rows": 832,
      "SAR": 0.03505443558349,
      "SamplesPerPixel": 1,
      "ScanOptions": "FS",
      "ScanningSequence": "EP",
      "SequenceName": "epfid2d1_104",
      "SequenceVariant": [
        "SK",
        "SS"
],
      "SeriesDescription": "func_task-friends-s03e09b",
      "SeriesNumber": 23,
      "SeriesTime": "175257.047000",
      "SliceLocation": -36.751883602232,
      "SliceThickness": 2.0,
      "SmallestImagePixelValue": 0,
      "SoftwareVersions": "syngo MR E11",
      "SpacingBetweenSlices": 2.0000000281881,
      "SpecificCharacterSet": "ISO_IR 100",
      "StudyID": "1",
      "StudyTime": "160424.893000",
      "TransmitCoilName": "Body",
      "VariableFlipAngleFlag": "N",
      "WindowCenterWidthExplanation": "Algo1",
      "dBdt": 0.0},
    "slices": {}
  },
  "time": {
    "samples": {
      "AcquisitionNumber": [1, 2, 3, 4, 5, 6, 7, 8, 9, 10, 11, 12, 13, 14, 15, 16, 17, 18, 19, 20, 21, 22, 23, 24, 25, 26, 27, 28, 29, 30, 31, 32, 33, 34, 35, 36, 37, 38, 39, 40, 41, 42, 43, 44, 45, 46, 47, 48, 49, 50, 51, 52, 53, 54, 55, 56, 57, 58, 59, 60, 61, 62, 63, 64, 65, 66, 67, 68, 69, 70, 71, 72, 73, 74, 75, 76, 77, 78, 79, 80, 81, 82, 83, 84, 85, 86, 87, 88, 89, 90, 91, 92, 93, 94, 95, 96, 97, 98, 99, 100, 101, 102, 103, 104, 105, 106, 107, 108, 109, 110, 111, 112, 113, 114, 115, 116, 117, 118, 119, 120, 121, 122, 123, 124, 125, 126, 127, 128, 129, 130, 131, 132, 133, 134, 135, 136, 137, 138, 139, 140, 141, 142, 143, 144, 145, 146, 147, 148, 149, 150, 151, 152, 153, 154, 155, 156, 157, 158, 159, 160, 161, 162, 163, 164, 165, 166, 167, 168, 169, 170, 171, 172, 173, 174, 175, 176, 177, 178, 179, 180, 181, 182, 183, 184, 185, 186, 187, 188, 189, 190, 191, 192, 193, 194, 195, 196, 197, 198, 199, 200, 201, 202, 203, 204, 205, 206, 207, 208, 209, 210, 211, 212, 213, 214, 215, 216, 217, 218, 219, 220, 221, 222, 223, 224, 225, 226, 227, 228, 229, 230, 231, 232, 233, 234, 235, 236, 237, 238, 239, 240, 241, 242, 243, 244, 245, 246, 247, 248, 249, 250, 251, 252, 253, 254, 255, 256, 257, 258, 259, 260, 261, 262, 263, 264, 265, 266, 267, 268, 269, 270, 271, 272, 273, 274, 275, 276, 277, 278, 279, 280, 281, 282, 283, 284, 285, 286, 287, 288, 289, 290, 291, 292, 293, 294, 295, 296, 297, 298, 299, 300, 301, 302, 303, 304, 305, 306, 307, 308, 309, 310, 311, 312, 313, 314, 315, 316, 317, 318, 319, 320, 321, 322, 323, 324, 325, 326, 327, 328, 329, 330, 331, 332, 333, 334, 335, 336, 337, 338, 339, 340, 341, 342, 343, 344, 345, 346, 347, 348, 349, 350, 351, 352, 353, 354, 355, 356, 357, 358, 359, 360, 361, 362, 363, 364, 365, 366, 367, 368, 369, 370, 371, 372, 373, 374, 375, 376, 377, 378, 379, 380, 381, 382, 383, 384, 385, 386, 387, 388, 389, 390, 391, 392, 393, 394, 395, 396, 397, 398, 399, 400, 401, 402, 403, 404, 405, 406, 407, 408, 409, 410, 411, 412, 413, 414, 415, 416, 417, 418, 419, 420, 421, 422, 423, 424, 425, 426, 427, 428, 429, 430, 431, 432, 433, 434, 435, 436, 437, 438, 439, 440, 441, 442, 443, 444, 445, 446, 447, 448, 449, 450, 451, 452, 453, 454, 455, 456, 457, 458, 459, 460, 461, 462, 463, 464, 465, 466, 467, 468, 469, 470, 471, 472, 473, 474, 475, 476, 477, 478, 479, 480, 481, 482, 483, 484, 485, 486, 487, 488, 489, 490, 491, 492, 493],
      "AcquisitionTime": ["175131.000000", "175132.490000", "175133.980000", "175135.470000", "175136.960000", "175138.450000", "175139.940000", "175141.430000", "175142.920000", "175144.410000", "175145.900000", "175147.390000", "175148.880000", "175150.370000", "175151.860000", "175153.350000", "175154.840000", "175156.330000", "175157.820000", "175159.310000", "175200.800000", "175202.290000", "175203.780000", "175205.270000", "175206.760000", "175208.250000", "175209.740000", "175211.230000", "175212.720000", "175214.210000", "175215.700000", "175217.190000", "175218.680000", "175220.170000", "175221.660000", "175223.150000", "175224.640000", "175226.130000", "175227.620000", "175229.110000", "175230.600000", "175232.090000", "175233.580000", "175235.070000", "175236.560000", "175238.050000", "175239.540000", "175241.030000", "175242.520000", "175244.010000", "175245.500000", "175246.990000", "175248.480000", "175249.970000", "175251.460000", "175252.950000", "175254.440000", "175255.930000", "175257.420000", "175258.910000", "175300.400000", "175301.890000", "175303.380000", "175304.870000", "175306.360000", "175307.850000", "175309.340000", "175310.830000", "175312.320000", "175313.810000", "175315.300000", "175316.790000", "175318.280000", "175319.770000", "175321.260000", "175322.750000", "175324.240000", "175325.730000", "175327.220000", "175328.710000", "175330.200000", "175331.690000", "175333.180000", "175334.670000", "175336.160000", "175337.650000", "175339.140000", "175340.630000", "175342.120000", "175343.610000", "175345.100000", "175346.590000", "175348.080000", "175349.570000", "175351.060000", "175352.550000", "175354.040000", "175355.530000", "175357.020000", "175358.510000", "175400.000000", "175401.490000", "175402.980000", "175404.470000", "175405.960000", "175407.450000", "175408.940000", "175410.430000", "175411.920000", "175413.410000", "175414.900000", "175416.390000", "175417.880000", "175419.370000", "175420.860000", "175422.350000", "175423.840000", "175425.330000", "175426.820000", "175428.310000", "175429.800000", "175431.290000", "175432.780000", "175434.270000", "175435.760000", "175437.250000", "175438.740000", "175440.230000", "175441.720000", "175443.210000", "175444.700000", "175446.190000", "175447.680000", "175449.170000", "175450.660000", "175452.150000", "175453.640000", "175455.130000", "175456.620000", "175458.110000", "175459.600000", "175501.090000", "175502.580000", "175504.070000", "175505.560000", "175507.050000", "175508.540000", "175510.030000", "175511.520000", "175513.010000", "175514.500000", "175515.990000", "175517.480000", "175518.970000", "175520.460000", "175521.950000", "175523.440000", "175524.930000", "175526.420000", "175527.910000", "175529.400000", "175530.890000", "175532.380000", "175533.870000", "175535.360000", "175536.850000", "175538.340000", "175539.830000", "175541.320000", "175542.810000", "175544.300000", "175545.790000", "175547.280000", "175548.770000", "175550.260000", "175551.750000", "175553.240000", "175554.730000", "175556.220000", "175557.710000", "175559.200000", "175600.690000", "175602.180000", "175603.670000", "175605.160000", "175606.650000", "175608.140000", "175609.630000", "175611.120000", "175612.610000", "175614.100000", "175615.590000", "175617.080000", "175618.570000", "175620.060000", "175621.550000", "175623.040000", "175624.530000", "175626.020000", "175627.510000", "175629.000000", "175630.490000", "175631.980000", "175633.470000", "175634.960000", "175636.450000", "175637.940000", "175639.430000", "175640.920000", "175642.410000", "175643.900000", "175645.390000", "175646.880000", "175648.370000", "175649.860000", "175651.350000", "175652.840000", "175654.330000", "175655.820000", "175657.310000", "175658.800000", "175700.290000", "175701.780000", "175703.270000", "175704.760000", "175706.250000", "175707.740000", "175709.230000", "175710.720000", "175712.210000", "175713.700000", "175715.190000", "175716.680000", "175718.170000", "175719.660000", "175721.150000", "175722.640000", "175724.130000", "175725.620000", "175727.110000", "175728.600000", "175730.090000", "175731.580000", "175733.070000", "175734.560000", "175736.050000", "175737.540000", "175739.030000", "175740.520000", "175742.010000", "175743.500000", "175744.990000", "175746.480000", "175747.970000", "175749.460000", "175750.950000", "175752.440000", "175753.930000", "175755.420000", "175756.910000", "175758.400000", "175759.890000", "175801.380000", "175802.870000", "175804.360000", "175805.850000", "175807.340000", "175808.830000", "175810.320000", "175811.810000", "175813.300000", "175814.790000", "175816.280000", "175817.770000", "175819.260000", "175820.750000", "175822.240000", "175823.730000", "175825.220000", "175826.710000", "175828.200000", "175829.690000", "175831.180000", "175832.670000", "175834.160000", "175835.650000", "175837.140000", "175838.630000", "175840.120000", "175841.610000", "175843.100000", "175844.590000", "175846.080000", "175847.570000", "175849.060000", "175850.550000", "175852.040000", "175853.530000", "175855.020000", "175856.510000", "175858.000000", "175859.490000", "175900.980000", "175902.470000", "175903.960000", "175905.450000", "175906.940000", "175908.430000", "175909.920000", "175911.410000", "175912.900000", "175914.390000", "175915.880000", "175917.370000", "175918.860000", "175920.350000", "175921.840000", "175923.330000", "175924.820000", "175926.310000", "175927.800000", "175929.290000", "175930.780000", "175932.270000", "175933.760000", "175935.250000", "175936.740000", "175938.230000", "175939.720000", "175941.210000", "175942.700000", "175944.190000", "175945.680000", "175947.170000", "175948.660000", "175950.150000", "175951.640000", "175953.130000", "175954.620000", "175956.110000", "175957.600000", "175959.090000", "180000.580000", "180002.070000", "180003.560000", "180005.050000", "180006.540000", "180008.030000", "180009.520000", "180011.010000", "180012.500000", "180013.990000", "180015.480000", "180016.970000", "180018.460000", "180019.950000", "180021.440000", "180022.930000", "180024.420000", "180025.910000", "180027.400000", "180028.890000", "180030.380000", "180031.870000", "180033.360000", "180034.850000", "180036.340000", "180037.830000", "180039.320000", "180040.810000", "180042.300000", "180043.790000", "180045.280000", "180046.770000", "180048.260000", "180049.750000", "180051.240000", "180052.730000", "180054.220000", "180055.710000", "180057.200000", "180058.690000", "180100.180000", "180101.670000", "180103.160000", "180104.650000", "180106.140000", "180107.630000", "180109.120000", "180110.610000", "180112.100000", "180113.590000", "180115.080000", "180116.570000", "180118.060000", "180119.550000", "180121.040000", "180122.530000", "180124.020000", "180125.510000", "180127.000000", "180128.490000", "180129.980000", "180131.470000", "180132.960000", "180134.450000", "180135.940000", "180137.430000", "180138.920000", "180140.410000", "180141.900000", "180143.390000", "180144.880000", "180146.370000", "180147.860000", "180149.350000", "180150.840000", "180152.330000", "180153.820000", "180155.310000", "180156.800000", "180158.290000", "180159.780000", "180201.270000", "180202.760000", "180204.250000", "180205.740000", "180207.230000", "180208.720000", "180210.210000", "180211.700000", "180213.190000", "180214.680000", "180216.170000", "180217.660000", "180219.150000", "180220.640000", "180222.130000", "180223.620000", "180225.110000", "180226.600000", "180228.090000", "180229.580000", "180231.070000", "180232.560000", "180234.050000", "180235.540000", "180237.030000", "180238.520000", "180240.010000", "180241.500000", "180242.990000", "180244.480000", "180245.970000", "180247.460000", "180248.950000", "180250.440000", "180251.930000", "180253.420000", "180254.910000", "180256.400000", "180257.890000", "180259.380000", "180300.870000", "180302.360000", "180303.850000", "180305.340000", "180306.830000", "180308.320000", "180309.810000", "180311.300000", "180312.790000", "180314.280000", "180315.770000", "180317.260000", "180318.750000", "180320.240000", "180321.730000", "180323.220000", "180324.710000", "180326.200000", "180327.690000", "180329.180000", "180330.670000", "180332.160000", "180333.650000", "180335.140000", "180336.630000", "180338.120000", "180339.610000", "180341.100000", "180342.590000", "180344.080000"],
      "ContentTime": ["175257.051000", "175257.055000", "175257.058000", "175257.060000", "175257.063000", "175257.066000", "175257.069000", "175257.072000", "175257.075000", "175257.078000", "175257.081000", "175257.083000", "175257.086000", "175257.089000", "175257.092000", "175257.095000", "175257.103000", "175257.106000", "175257.109000", "175257.111000", "175257.114000", "175257.117000", "175257.120000", "175257.123000", "175257.125000", "175257.128000", "175257.131000", "175257.134000", "175257.137000", "175257.139000", "175257.142000", "175257.145000", "175257.148000", "175257.151000", "175317.016000", "175317.019000", "175317.022000", "175317.030000", "175317.033000", "175317.035000", "175317.038000", "175317.041000", "175317.044000", "175317.047000", "175317.053000", "175317.056000", "175317.059000", "175317.062000", "175317.065000", "175317.068000", "175317.071000", "175317.074000", "175317.086000", "175317.088000", "175337.015000", "175337.018000", "175337.021000", "175337.024000", "175337.027000", "175337.030000", "175337.033000", "175337.036000", "175337.039000", "175337.042000", "175337.045000", "175337.048000", "175337.050000", "175337.053000", "175337.056000", "175337.059000", "175337.062000", "175337.065000", "175337.068000", "175337.070000", "175357.016000", "175357.019000", "175357.026000", "175357.029000", "175357.032000", "175357.035000", "175357.038000", "175357.041000", "175357.043000", "175357.046000", "175357.049000", "175357.052000", "175357.055000", "175357.058000", "175357.060000", "175357.063000", "175357.066000", "175357.069000", "175357.072000", "175357.075000", "175437.016000", "175437.019000", "175437.022000", "175437.025000", "175437.027000", "175437.030000", "175437.033000", "175437.036000", "175437.039000", "175437.042000", "175437.044000", "175437.047000", "175437.051000", "175437.053000", "175437.056000", "175437.059000", "175437.062000", "175437.065000", "175437.068000", "175437.071000", "175437.074000", "175437.077000", "175437.080000", "175437.083000", "175437.086000", "175437.089000", "175437.092000", "175437.097000", "175437.100000", "175437.103000", "175517.016000", "175517.019000", "175517.022000", "175517.025000", "175517.028000", "175517.030000", "175517.033000", "175517.036000", "175517.039000", "175517.042000", "175517.045000", "175517.048000", "175517.051000", "175517.053000", "175517.056000", "175517.059000", "175517.062000", "175517.065000", "175517.068000", "175517.071000", "175517.074000", "175517.077000", "175517.080000", "175517.083000", "175517.086000", "175517.088000", "175517.091000", "175557.015000", "175557.018000", "175557.021000", "175557.024000", "175557.027000", "175557.029000", "175557.032000", "175557.035000", "175557.038000", "175557.041000", "175557.044000", "175557.047000", "175557.049000", "175557.052000", "175557.055000", "175557.058000", "175557.061000", "175557.063000", "175557.066000", "175557.075000", "175557.078000", "175557.081000", "175557.083000", "175557.087000", "175557.090000", "175557.092000", "175557.095000", "175637.016000", "175637.019000", "175637.022000", "175637.025000", "175637.028000", "175637.031000", "175637.034000", "175637.037000", "175637.040000", "175637.043000", "175637.046000", "175637.048000", "175637.051000", "175637.054000", "175637.057000", "175637.060000", "175637.063000", "175637.065000", "175637.068000", "175637.071000", "175637.074000", "175637.083000", "175637.085000", "175637.088000", "175637.091000", "175637.094000", "175657.016000", "175657.019000", "175657.022000", "175657.025000", "175657.029000", "175657.032000", "175657.035000", "175657.037000", "175657.040000", "175657.052000", "175657.055000", "175657.058000", "175657.061000", "175657.064000", "175737.016000", "175737.020000", "175737.023000", "175737.027000", "175737.030000", "175737.034000", "175737.037000", "175737.041000", "175737.044000", "175737.047000", "175737.051000", "175737.054000", "175737.057000", "175737.060000", "175737.063000", "175737.066000", "175737.069000", "175737.072000", "175737.075000", "175737.078000", "175737.080000", "175737.083000", "175737.086000", "175737.089000", "175737.092000", "175737.095000", "175737.098000", "175817.015000", "175817.019000", "175817.022000", "175817.025000", "175817.029000", "175817.032000", "175817.036000", "175817.039000", "175817.042000", "175817.045000", "175817.049000", "175817.052000", "175817.054000", "175817.057000", "175817.060000", "175817.063000", "175817.066000", "175817.069000", "175817.071000", "175817.074000", "175817.077000", "175817.080000", "175817.083000", "175817.086000", "175817.089000", "175817.091000", "175817.094000", "175857.016000", "175857.019000", "175857.022000", "175857.025000", "175857.028000", "175857.030000", "175857.033000", "175857.036000", "175857.039000", "175857.042000", "175857.045000", "175857.048000", "175857.051000", "175857.055000", "175857.058000", "175857.061000", "175857.064000", "175857.068000", "175857.071000", "175857.075000", "175857.078000", "175857.080000", "175857.083000", "175857.086000", "175857.089000", "175857.092000", "175937.016000", "175937.019000", "175937.022000", "175937.025000", "175937.027000", "175937.030000", "175937.033000", "175937.036000", "175937.039000", "175937.042000", "175937.045000", "175937.048000", "175937.051000", "175937.053000", "175937.056000", "175937.060000", "175937.062000", "175937.065000", "175937.068000", "175937.071000", "175937.074000", "175937.077000", "175937.080000", "175937.083000", "175937.086000", "175937.088000", "175937.091000", "180017.016000", "180017.019000", "180017.022000", "180017.025000", "180017.028000", "180017.030000", "180017.033000", "180017.036000", "180017.039000", "180017.042000", "180017.045000", "180017.048000", "180017.051000", "180017.054000", "180017.057000", "180017.060000", "180017.062000", "180017.065000", "180017.068000", "180017.071000", "180017.074000", "180017.077000", "180017.080000", "180017.083000", "180017.086000", "180017.089000", "180017.092000", "180057.016000", "180057.019000", "180057.022000", "180057.025000", "180057.028000", "180057.030000", "180057.033000", "180057.036000", "180057.039000", "180057.042000", "180057.045000", "180057.052000", "180057.055000", "180057.058000", "180057.061000", "180057.064000", "180057.067000", "180057.070000", "180057.073000", "180057.076000", "180057.079000", "180057.082000", "180057.085000", "180057.099000", "180057.101000", "180057.104000", "180057.107000", "180137.016000", "180137.019000", "180137.022000", "180137.025000", "180137.027000", "180137.030000", "180137.033000", "180137.036000", "180137.039000", "180137.042000", "180137.051000", "180137.054000", "180137.057000", "180137.059000", "180137.063000", "180137.066000", "180137.068000", "180137.071000", "180137.074000", "180137.077000", "180137.080000", "180137.083000", "180137.086000", "180137.089000", "180137.092000", "180137.095000", "180137.098000", "180217.016000", "180217.019000", "180217.022000", "180217.025000", "180217.028000", "180217.031000", "180217.034000", "180217.037000", "180217.040000", "180217.043000", "180217.046000", "180217.048000", "180217.051000", "180217.054000", "180217.057000", "180217.060000", "180217.063000", "180217.066000", "180217.069000", "180217.072000", "180217.074000", "180217.077000", "180217.080000", "180217.083000", "180217.086000", "180217.089000", "180217.092000", "180257.015000", "180257.018000", "180257.021000", "180257.024000", "180257.027000", "180257.029000", "180257.032000", "180257.035000", "180257.038000", "180257.041000", "180257.044000", "180257.047000", "180257.050000", "180257.052000", "180257.055000", "180257.058000", "180257.061000", "180257.064000", "180257.067000", "180257.069000", "180257.072000", "180257.076000", "180257.079000", "180257.082000", "180257.084000", "180257.087000", "180257.090000", "180337.016000", "180337.019000", "180337.022000", "180337.025000", "180337.028000", "180337.030000", "180337.033000", "180337.036000", "180337.039000", "180337.042000", "180337.045000", "180337.049000", "180337.052000", "180337.055000", "180337.058000", "180337.061000", "180337.063000", "180337.066000", "180337.069000", "180337.072000", "180337.075000", "180337.078000", "180337.081000", "180337.085000", "180337.088000", "180337.091000", "180346.174000", "180346.177000", "180346.180000", "180346.183000", "180346.186000", "180346.189000", "180346.192000"],
