{
  "AcquisitionMatrixPE": 104,
  "AcquisitionNumber": 1,
  "AcquisitionTime": "15:47:20.122500",
  "BandwidthPerPixelPhaseEncode": 17.17,
  "BaseResolution": 104,
  "BodyPartExamined": "BRAIN",
  "CoilString": "HC1-7;NC1_2",
  "ConsistencyInfo": "N4_VE11C_LATEST_20160120",
  "ConversionSoftware": "dcm2niix",
  "ConversionSoftwareVersion": "v1.0.20190902",
  "DerivedVendorReportedEchoSpacing": 0.000560011,
  "DeviceSerialNumber": "167006",
  "DwellTime": 2.1e-06,
  "EchoTime": 0.037,
  "EchoTrainLength": 104,
  "EffectiveEchoSpacing": 0.000560011,
  "FlipAngle": 52,
  "ImageComments": "Unaliased_MB4_PE3_LB",
  "ImageOrientationPatientDICOM": [0.997426, -0.0710793, 0.00945926, 0.0690471, 0.916458, -0.394129],
  "ImageType": [
    "ORIGINAL",
    "PRIMARY",
    "M",
    "MB",
    "ND",
    "MOSAIC"
],
  "ImagingFrequency": 123.259,
  "InPlanePhaseEncodingDirectionDICOM": "COL",
  "InstitutionAddress": "Chemin_Queen-Mary_4565_Montreal_District_CA_H3W_1W5",
  "InstitutionName": "IUGM",
  "InstitutionalDepartmentName": "Department",
  "MRAcquisitionType": "2D",
  "MagneticFieldStrength": 3,
  "Manufacturer": "Siemens",
  "ManufacturersModelName": "Prisma_fit",
  "Modality": "MR",
  "MultibandAccelerationFactor": 4,
  "PartialFourier": 1,
  "PatientPosition": "HFS",
  "PercentPhaseFOV": 100,
  "PhaseEncodingDirection": "j",
  "PhaseEncodingSteps": 104,
  "PhaseResolution": 1,
  "PixelBandwidth": 2290,
  "ProcedureStepDescription": "video_friends",
  "ProtocolName": "func_task-friends-s04e19a",
  "PulseSequenceDetails": "%CustomerSeq%_cmrr_mbep2d_bold",
  "ReceiveCoilActiveElements": "HC1-7;NC1,2",
  "ReceiveCoilName": "HeadNeck_64",
  "ReconMatrixPE": 104,
  "RepetitionTime": 1.49,
  "SAR": 0.0285746,
  "ScanOptions": "FS",
  "ScanningSequence": "EP",
  "SequenceName": "epfid2d1_104",
  "SequenceVariant": "SK_SS",
  "SeriesDescription": "func_task-friends-s04e19a",
  "SeriesNumber": 19,
  "ShimSetting": [635, -7240, -8850, 606, 4, -212, -94, -7],
  "SliceThickness": 2,
  "SliceTiming": [0, 0.7825, 0.0975, 0.88, 0.195, 0.98, 0.2925, 1.0775, 0.39, 1.175, 0.49, 1.2725, 0.5875, 1.37, 0.685, 0, 0.7825, 0.0975, 0.88, 0.195, 0.98, 0.2925, 1.0775, 0.39, 1.175, 0.49, 1.2725, 0.5875, 1.37, 0.685, 0, 0.7825, 0.0975, 0.88, 0.195, 0.98, 0.2925, 1.0775, 0.39, 1.175, 0.49, 1.2725, 0.5875, 1.37, 0.685, 0, 0.7825, 0.0975, 0.88, 0.195, 0.98, 0.2925, 1.0775, 0.39, 1.175, 0.49, 1.2725, 0.5875, 1.37, 0.685],
  "SoftwareVersions": "syngo_MR_E11",
  "SpacingBetweenSlices": 2,
  "StationName": "MRC35049",
  "TaskName": "s04e19a",
  "TotalReadoutTime": 0.0576811,
  "TxRefAmp": 216.508,
  "WipMemBlock": "6356c6c1-5abc-401b-aa30-00d7e502a2c3||Sequence: R016 ve11c/master r/e634e98; Dec 19 2017 11:00:25 by eja",
  "dcmmeta_affine": [
    [-1.9948515892028809, 0.1380942463874817, -0.03869088366627693, 95.98367309570312],
    [0.14215868711471558, 1.8329153060913086, -0.7875357866287231, -75.92866516113281],
    [0.01891852170228958, 0.7882586121559143, 1.8380125761032104, -76.75933074951172],
    [0.0, 0.0, 0.0, 1.0]
],
  "dcmmeta_reorient_transform": [
    [0.0, -1.0, 0.0, 103.0],
    [1.0, 0.0, 0.0, 0.0],
    [0.0, 0.0, 1.0, 0.0],
    [0.0, 0.0, 0.0, 1.0]
],
  "dcmmeta_shape": [104, 104, 60, 437],
  "dcmmeta_slice_dim": 2,
  "dcmmeta_version": 0.6,
  "global": {
    "const": {
      "AcquisitionMatrix": [104, 0, 0, 104],
      "AngioFlag": "N",
      "BitsAllocated": 16,
      "BitsStored": 16,
      "BodyPartExamined": "BRAIN",
      "Columns": 832,
      "EchoNumbers": 1,
      "EchoTime": 37.0,
      "EchoTrainLength": 104,
      "FlipAngle": 52.0,
      "HighBit": 15,
      "ImageOrientationPatient": [0.99742581124479, -0.0710793461388, 0.00945926081372, 0.06904712100621, 0.9164576240478, -0.3941293168561],
      "ImagePositionPatient": [-886.59967272184, -728.29699368449, 284.47111147463],
      "ImageType": [
        "ORIGINAL",
        "PRIMARY",
        "M",
        "MB",
        "ND",
        "MOSAIC"
],
      "ImagedNucleus": "1H",
      "ImagingFrequency": 123.259079,
      "InPlanePhaseEncodingDirection": "COL",
      "MRAcquisitionType": "2D",
      "MagneticFieldStrength": 3.0,
      "Manufacturer": "SIEMENS",
      "ManufacturerModelName": "Prisma_fit",
      "Modality": "MR",
      "NumberOfAverages": 1.0,
      "NumberOfPhaseEncodingSteps": 104,
      "PercentPhaseFieldOfView": 100.0,
      "PercentSampling": 100.0,
      "PerformedProcedureStepStartTime": "145119.592000",
      "PhotometricInterpretation": "MONOCHROME2",
      "PixelBandwidth": 2290.0,
      "PixelRepresentation": 0,
      "PixelSpacing": [2.0, 2.0],
      "ProtocolName": "func_task-friends-s04e19a",
      "RepetitionTime": 1490.0,
      "Rows": 832,
      "SAR": 0.02857456755559,
      "SamplesPerPixel": 1,
      "ScanOptions": "FS",
      "ScanningSequence": "EP",
      "SequenceName": "epfid2d1_104",
      "SequenceVariant": [
        "SK",
        "SS"
],
      "SeriesDescription": "func_task-friends-s04e19a",
      "SeriesNumber": 19,
      "SeriesTime": "154843.343000",
      "SliceLocation": -42.500884807478,
      "SliceThickness": 2.0,
      "SmallestImagePixelValue": 0,
      "SoftwareVersions": "syngo MR E11",
      "SpacingBetweenSlices": 1.9999999921787,
      "SpecificCharacterSet": "ISO_IR 100",
      "StudyID": "1",
      "StudyTime": "145119.416000",
      "TransmitCoilName": "Body",
      "VariableFlipAngleFlag": "N",
      "WindowCenterWidthExplanation": "Algo1",
      "dBdt": 0.0},
    "slices": {}
  },
  "time": {
    "samples": {
      "AcquisitionNumber": [1, 2, 3, 4, 5, 6, 7, 8, 9, 10, 11, 12, 13, 14, 15, 16, 17, 18, 19, 20, 21, 22, 23, 24, 25, 26, 27, 28, 29, 30, 31, 32, 33, 34, 35, 36, 37, 38, 39, 40, 41, 42, 43, 44, 45, 46, 47, 48, 49, 50, 51, 52, 53, 54, 55, 56, 57, 58, 59, 60, 61, 62, 63, 64, 65, 66, 67, 68, 69, 70, 71, 72, 73, 74, 75, 76, 77, 78, 79, 80, 81, 82, 83, 84, 85, 86, 87, 88, 89, 90, 91, 92, 93, 94, 95, 96, 97, 98, 99, 100, 101, 102, 103, 104, 105, 106, 107, 108, 109, 110, 111, 112, 113, 114, 115, 116, 117, 118, 119, 120, 121, 122, 123, 124, 125, 126, 127, 128, 129, 130, 131, 132, 133, 134, 135, 136, 137, 138, 139, 140, 141, 142, 143, 144, 145, 146, 147, 148, 149, 150, 151, 152, 153, 154, 155, 156, 157, 158, 159, 160, 161, 162, 163, 164, 165, 166, 167, 168, 169, 170, 171, 172, 173, 174, 175, 176, 177, 178, 179, 180, 181, 182, 183, 184, 185, 186, 187, 188, 189, 190, 191, 192, 193, 194, 195, 196, 197, 198, 199, 200, 201, 202, 203, 204, 205, 206, 207, 208, 209, 210, 211, 212, 213, 214, 215, 216, 217, 218, 219, 220, 221, 222, 223, 224, 225, 226, 227, 228, 229, 230, 231, 232, 233, 234, 235, 236, 237, 238, 239, 240, 241, 242, 243, 244, 245, 246, 247, 248, 249, 250, 251, 252, 253, 254, 255, 256, 257, 258, 259, 260, 261, 262, 263, 264, 265, 266, 267, 268, 269, 270, 271, 272, 273, 274, 275, 276, 277, 278, 279, 280, 281, 282, 283, 284, 285, 286, 287, 288, 289, 290, 291, 292, 293, 294, 295, 296, 297, 298, 299, 300, 301, 302, 303, 304, 305, 306, 307, 308, 309, 310, 311, 312, 313, 314, 315, 316, 317, 318, 319, 320, 321, 322, 323, 324, 325, 326, 327, 328, 329, 330, 331, 332, 333, 334, 335, 336, 337, 338, 339, 340, 341, 342, 343, 344, 345, 346, 347, 348, 349, 350, 351, 352, 353, 354, 355, 356, 357, 358, 359, 360, 361, 362, 363, 364, 365, 366, 367, 368, 369, 370, 371, 372, 373, 374, 375, 376, 377, 378, 379, 380, 381, 382, 383, 384, 385, 386, 387, 388, 389, 390, 391, 392, 393, 394, 395, 396, 397, 398, 399, 400, 401, 402, 403, 404, 405, 406, 407, 408, 409, 410, 411, 412, 413, 414, 415, 416, 417, 418, 419, 420, 421, 422, 423, 424, 425, 426, 427, 428, 429, 430, 431, 432, 433, 434, 435, 436, 437],
      "AcquisitionTime": ["154720.122500", "154721.612500", "154723.102500", "154724.592500", "154726.082500", "154727.572500", "154729.062500", "154730.552500", "154732.042500", "154733.532500", "154735.022500", "154736.512500", "154738.002500", "154739.492500", "154740.982500", "154742.472500", "154743.962500", "154745.452500", "154746.942500", "154748.432500", "154749.922500", "154751.412500", "154752.902500", "154754.392500", "154755.882500", "154757.372500", "154758.862500", "154800.352500", "154801.842500", "154803.332500", "154804.822500", "154806.312500", "154807.802500", "154809.292500", "154810.782500", "154812.272500", "154813.762500", "154815.252500", "154816.742500", "154818.232500", "154819.722500", "154821.212500", "154822.702500", "154824.192500", "154825.682500", "154827.172500", "154828.662500", "154830.152500", "154831.642500", "154833.132500", "154834.622500", "154836.112500", "154837.602500", "154839.092500", "154840.582500", "154842.072500", "154843.562500", "154845.052500", "154846.542500", "154848.032500", "154849.522500", "154851.012500", "154852.502500", "154853.992500", "154855.482500", "154856.972500", "154858.462500", "154859.952500", "154901.442500", "154902.932500", "154904.422500", "154905.912500", "154907.402500", "154908.892500", "154910.382500", "154911.872500", "154913.362500", "154914.852500", "154916.342500", "154917.832500", "154919.322500", "154920.812500", "154922.302500", "154923.792500", "154925.282500", "154926.772500", "154928.262500", "154929.752500", "154931.242500", "154932.732500", "154934.222500", "154935.712500", "154937.202500", "154938.692500", "154940.182500", "154941.672500", "154943.162500", "154944.652500", "154946.142500", "154947.632500", "154949.122500", "154950.612500", "154952.102500", "154953.592500", "154955.082500", "154956.572500", "154958.062500", "154959.552500", "155001.042500", "155002.532500", "155004.022500", "155005.512500", "155007.002500", "155008.492500", "155009.982500", "155011.472500", "155012.962500", "155014.452500", "155015.942500", "155017.432500", "155018.922500", "155020.412500", "155021.902500", "155023.392500", "155024.882500", "155026.372500", "155027.862500", "155029.352500", "155030.842500", "155032.332500", "155033.822500", "155035.312500", "155036.802500", "155038.292500", "155039.782500", "155041.272500", "155042.762500", "155044.252500", "155045.742500", "155047.232500", "155048.722500", "155050.212500", "155051.702500", "155053.192500", "155054.682500", "155056.172500", "155057.662500", "155059.152500", "155100.642500", "155102.132500", "155103.622500", "155105.112500", "155106.602500", "155108.092500", "155109.582500", "155111.072500", "155112.562500", "155114.052500", "155115.542500", "155117.032500", "155118.522500", "155120.012500", "155121.502500", "155122.992500", "155124.482500", "155125.972500", "155127.462500", "155128.952500", "155130.442500", "155131.932500", "155133.422500", "155134.912500", "155136.402500", "155137.892500", "155139.382500", "155140.872500", "155142.362500", "155143.852500", "155145.342500", "155146.832500", "155148.322500", "155149.812500", "155151.302500", "155152.792500", "155154.282500", "155155.772500", "155157.262500", "155158.752500", "155200.242500", "155201.732500", "155203.222500", "155204.712500", "155206.202500", "155207.692500", "155209.182500", "155210.672500", "155212.162500", "155213.652500", "155215.142500", "155216.632500", "155218.122500", "155219.612500", "155221.102500", "155222.592500", "155224.082500", "155225.572500", "155227.062500", "155228.552500", "155230.042500", "155231.532500", "155233.022500", "155234.512500", "155236.002500", "155237.492500", "155238.982500", "155240.472500", "155241.962500", "155243.452500", "155244.942500", "155246.432500", "155247.922500", "155249.412500", "155250.902500", "155252.392500", "155253.882500", "155255.372500", "155256.862500", "155258.352500", "155259.842500", "155301.332500", "155302.822500", "155304.312500", "155305.802500", "155307.292500", "155308.782500", "155310.272500", "155311.762500", "155313.252500", "155314.742500", "155316.232500", "155317.722500", "155319.212500", "155320.702500", "155322.192500", "155323.682500", "155325.172500", "155326.662500", "155328.152500", "155329.642500", "155331.132500", "155332.622500", "155334.112500", "155335.602500", "155337.092500", "155338.582500", "155340.072500", "155341.562500", "155343.052500", "155344.542500", "155346.032500", "155347.522500", "155349.012500", "155350.502500", "155351.992500", "155353.482500", "155354.972500", "155356.462500", "155357.952500", "155359.442500", "155400.932500", "155402.422500", "155403.912500", "155405.402500", "155406.892500", "155408.382500", "155409.872500", "155411.362500", "155412.852500", "155414.342500", "155415.832500", "155417.322500", "155418.812500", "155420.302500", "155421.792500", "155423.282500", "155424.772500", "155426.262500", "155427.752500", "155429.242500", "155430.732500", "155432.222500", "155433.712500", "155435.202500", "155436.692500", "155438.182500", "155439.672500", "155441.162500", "155442.652500", "155444.142500", "155445.632500", "155447.122500", "155448.612500", "155450.102500", "155451.592500", "155453.082500", "155454.572500", "155456.062500", "155457.552500", "155459.042500", "155500.532500", "155502.022500", "155503.512500", "155505.002500", "155506.492500", "155507.982500", "155509.472500", "155510.962500", "155512.452500", "155513.942500", "155515.432500", "155516.922500", "155518.412500", "155519.902500", "155521.392500", "155522.882500", "155524.372500", "155525.862500", "155527.352500", "155528.842500", "155530.332500", "155531.822500", "155533.312500", "155534.802500", "155536.292500", "155537.782500", "155539.272500", "155540.762500", "155542.252500", "155543.742500", "155545.232500", "155546.722500", "155548.212500", "155549.702500", "155551.192500", "155552.682500", "155554.172500", "155555.662500", "155557.152500", "155558.642500", "155600.132500", "155601.622500", "155603.112500", "155604.602500", "155606.092500", "155607.582500", "155609.072500", "155610.562500", "155612.052500", "155613.542500", "155615.032500", "155616.522500", "155618.012500", "155619.502500", "155620.992500", "155622.482500", "155623.972500", "155625.462500", "155626.952500", "155628.442500", "155629.932500", "155631.422500", "155632.912500", "155634.402500", "155635.892500", "155637.382500", "155638.872500", "155640.362500", "155641.852500", "155643.342500", "155644.832500", "155646.322500", "155647.812500", "155649.302500", "155650.792500", "155652.282500", "155653.772500", "155655.262500", "155656.752500", "155658.242500", "155659.732500", "155701.222500", "155702.712500", "155704.202500", "155705.692500", "155707.182500", "155708.672500", "155710.162500", "155711.652500", "155713.142500", "155714.632500", "155716.122500", "155717.612500", "155719.102500", "155720.592500", "155722.082500", "155723.572500", "155725.062500", "155726.552500", "155728.042500", "155729.532500", "155731.022500", "155732.512500", "155734.002500", "155735.492500", "155736.982500", "155738.472500", "155739.962500", "155741.452500", "155742.942500", "155744.432500", "155745.922500", "155747.412500", "155748.902500", "155750.392500", "155751.882500", "155753.372500", "155754.862500", "155756.352500", "155757.842500", "155759.332500", "155800.822500", "155802.312500", "155803.802500", "155805.292500", "155806.782500", "155808.272500", "155809.762500"],
      "ContentTime": ["154843.345000", "154843.352000", "154843.354000", "154843.357000", "154843.360000", "154843.363000", "154843.366000", "154843.369000", "154843.375000", "154843.378000", "154843.380000", "154843.383000", "154843.386000", "154843.389000", "154843.392000", "154843.394000", "154843.397000", "154843.400000", "154843.403000", "154843.406000", "154843.408000", "154843.411000", "154843.414000", "154843.417000", "154843.420000", "154843.422000", "154843.425000", "154843.428000", "154843.431000", "154843.434000", "154903.308000", "154903.311000", "154903.314000", "154903.316000", "154903.319000", "154903.322000", "154903.325000", "154903.328000", "154903.330000", "154903.333000", "154903.336000", "154903.339000", "154903.342000", "154903.344000", "154903.347000", "154903.350000", "154903.353000", "154903.356000", "154903.359000", "154903.361000", "154923.308000", "154923.311000", "154923.314000", "154923.316000", "154923.319000", "154923.322000", "154923.325000", "154923.327000", "154923.330000", "154923.333000", "154923.336000", "154923.344000", "154923.347000", "154923.350000", "154923.353000", "154923.355000", "154923.358000", "154923.361000", "154923.364000", "154923.367000", "154943.308000", "154943.311000", "154943.313000", "154943.316000", "154943.319000", "154943.322000", "154943.325000", "154943.328000", "154943.330000", "154943.333000", "154943.336000", "154943.339000", "154943.342000", "154943.345000", "154943.347000", "154943.350000", "154943.353000", "154943.356000", "154943.359000", "154943.361000", "155023.307000", "155023.310000", "155023.313000", "155023.316000", "155023.318000", "155023.321000", "155023.324000", "155023.327000", "155023.330000", "155023.332000", "155023.335000", "155023.338000", "155023.341000", "155023.344000", "155023.347000", "155023.349000", "155023.352000", "155023.355000", "155023.358000", "155023.361000", "155023.363000", "155023.366000", "155023.369000", "155023.372000", "155023.375000", "155023.378000", "155023.380000", "155023.383000", "155023.386000", "155023.405000", "155023.408000", "155023.411000", "155103.308000", "155103.311000", "155103.314000", "155103.317000", "155103.319000", "155103.322000", "155103.325000", "155103.328000", "155103.331000", "155103.334000", "155103.337000", "155103.339000", "155103.342000", "155103.345000", "155103.348000", "155103.351000", "155103.354000", "155103.356000", "155103.359000", "155103.362000", "155103.365000", "155103.368000", "155103.370000", "155103.373000", "155103.376000", "155103.379000", "155103.382000", "155143.308000", "155143.311000", "155143.314000", "155143.317000", "155143.319000", "155143.322000", "155143.325000", "155143.328000", "155143.331000", "155143.334000", "155143.336000", "155143.339000", "155143.342000", "155143.345000", "155143.348000", "155143.351000", "155143.353000", "155143.356000", "155143.359000", "155143.362000", "155143.365000", "155143.368000", "155143.370000", "155143.373000", "155143.376000", "155143.379000", "155143.382000", "155223.307000", "155223.310000", "155223.313000", "155223.315000", "155223.318000", "155223.321000", "155223.324000", "155223.327000", "155223.330000", "155223.332000", "155223.335000", "155223.338000", "155223.341000", "155223.344000", "155223.347000", "155223.349000", "155223.352000", "155223.355000", "155223.358000", "155223.361000", "155223.363000", "155223.366000", "155223.369000", "155223.372000", "155223.375000", "155223.378000", "155223.380000", "155303.307000", "155303.310000", "155303.313000", "155303.316000", "155303.319000", "155303.322000", "155303.325000", "155303.328000", "155303.330000", "155303.333000", "155303.336000", "155303.339000", "155303.342000", "155303.345000", "155303.347000", "155303.350000", "155303.353000", "155303.356000", "155303.359000", "155303.362000", "155303.365000", "155303.367000", "155303.370000", "155303.373000", "155303.376000", "155303.379000", "155343.308000", "155343.311000", "155343.314000", "155343.317000", "155343.319000", "155343.322000", "155343.325000", "155343.328000", "155343.331000", "155343.333000", "155343.336000", "155343.339000", "155343.342000", "155343.345000", "155343.348000", "155343.350000", "155343.353000", "155343.356000", "155343.359000", "155343.362000", "155343.365000", "155343.367000", "155343.370000", "155343.373000", "155343.376000", "155343.379000", "155343.382000", "155423.308000", "155423.311000", "155423.314000", "155423.317000", "155423.320000", "155423.323000", "155423.325000", "155423.328000", "155423.331000", "155423.334000", "155423.337000", "155423.340000", "155423.343000", "155423.346000", "155423.349000", "155423.352000", "155423.355000", "155423.357000", "155423.360000", "155423.363000", "155423.366000", "155423.369000", "155423.372000", "155423.374000", "155423.377000", "155423.380000", "155423.383000", "155503.307000", "155503.310000", "155503.313000", "155503.316000", "155503.318000", "155503.321000", "155503.324000", "155503.327000", "155503.330000", "155503.333000", "155503.335000", "155503.338000", "155503.341000", "155503.344000", "155503.347000", "155503.350000", "155503.353000", "155503.355000", "155503.358000", "155503.361000", "155503.364000", "155503.367000", "155503.370000", "155503.372000", "155503.375000", "155503.378000", "155503.381000", "155543.308000", "155543.311000", "155543.314000", "155543.316000", "155543.319000", "155543.322000", "155543.325000", "155543.328000", "155543.331000", "155543.333000", "155543.336000", "155543.339000", "155543.342000", "155543.345000", "155543.348000", "155543.351000", "155543.353000", "155543.356000", "155543.359000", "155543.362000", "155543.365000", "155543.367000", "155543.370000", "155543.373000", "155543.376000", "155543.379000", "155543.382000", "155623.308000", "155623.311000", "155623.314000", "155623.317000", "155623.320000", "155623.323000", "155623.325000", "155623.328000", "155623.331000", "155623.334000", "155623.337000", "155623.340000", "155623.342000", "155623.345000", "155623.348000", "155623.351000", "155623.354000", "155623.357000", "155623.360000", "155623.363000", "155623.365000", "155623.368000", "155623.371000", "155623.374000", "155623.377000", "155623.380000", "155623.382000", "155703.307000", "155703.310000", "155703.313000", "155703.315000", "155703.318000", "155703.321000", "155703.324000", "155703.327000", "155703.330000", "155703.333000", "155703.336000", "155703.339000", "155703.342000", "155703.345000", "155703.347000", "155703.350000", "155703.353000", "155703.356000", "155703.359000", "155703.362000", "155703.364000", "155703.367000", "155703.370000", "155703.373000", "155703.376000", "155703.378000", "155743.307000", "155743.310000", "155743.313000", "155743.317000", "155743.320000", "155743.323000", "155743.326000", "155743.329000", "155743.331000", "155743.334000", "155743.337000", "155743.340000", "155743.343000", "155743.346000", "155743.348000", "155743.351000", "155743.354000", "155743.357000", "155743.360000", "155743.363000", "155743.365000", "155743.368000", "155743.371000", "155743.374000", "155743.377000", "155743.380000", "155743.382000", "155811.933000", "155811.936000", "155811.939000", "155811.942000", "155811.945000", "155811.948000", "155811.951000", "155811.954000", "155811.957000", "155811.960000", "155811.962000", "155811.965000", "155811.968000", "155811.971000", "155811.975000", "155811.978000", "155811.980000", "155811.983000", "155811.986000", "155811.989000"],
      "InstanceCreationTime": ["154843.345000", "154843.352000", "154843.354000", "154843.357000", "154843.360000", "154843.363000", "154843.366000", "154843.369000", "154843.375000", "154843.378000", "154843.380000", "154843.383000", "154843.386000", "154843.389000", "154843.392000", "154843.394000", "154843.397000", "154843.400000", "154843.403000", "154843.406000", "154843.408000", "154843.411000", "154843.414000", "154843.417000", "154843.420000", "154843.422000", "154843.425000", "154843.428000", "154843.431000", "154843.434000", "154903.308000", "154903.311000", "154903.314000", "154903.316000", "154903.319000", "154903.322000", "154903.325000", "154903.328000", "154903.330000", "154903.333000", "154903.336000", "154903.339000", "154903.342000", "154903.344000", "154903.347000", "154903.350000", "154903.353000", "154903.356000", "154903.359000", "154903.361000", "154923.308000", "154923.311000", "154923.314000", "154923.316000", "154923.319000", "154923.322000", "154923.325000", "154923.327000", "154923.330000", "154923.333000", "154923.336000", "154923.344000", "154923.347000", "154923.350000", "154923.353000", "154923.355000", "154923.358000", "154923.361000", "154923.364000", "154923.367000", "154943.308000", "154943.311000", "154943.313000", "154943.316000", "154943.319000", "154943.322000", "154943.325000", "154943.328000", "154943.330000", "154943.333000", "154943.336000", "154943.339000", "154943.342000", "154943.345000", "154943.347000", "154943.350000", "154943.353000", "154943.356000", "154943.359000", "154943.361000", "155023.307000", "155023.310000", "155023.313000", "155023.316000", "155023.318000", "155023.321000", "155023.324000", "155023.327000", "155023.330000", "155023.332000", "155023.335000", "155023.338000", "155023.341000", "155023.344000", "155023.347000", "155023.349000", "155023.352000", "155023.355000", "155023.358000", "155023.361000", "155023.363000", "155023.366000", "155023.369000", "155023.372000", "155023.375000", "155023.378000", "155023.380000", "155023.383000", "155023.386000", "155023.405000", "155023.408000", "155023.411000", "155103.308000", "155103.311000", "155103.314000", "155103.317000", "155103.319000", "155103.322000", "155103.325000", "155103.328000", "155103.331000", "155103.334000", "155103.337000", "155103.339000", "155103.342000", "155103.345000", "155103.348000", "155103.351000", "155103.354000", "155103.356000", "155103.359000", "155103.362000", "155103.365000", "155103.368000", "155103.370000", "155103.373000", "155103.376000", "155103.379000", "155103.382000", "155143.308000", "155143.311000", "155143.314000", "155143.317000", "155143.319000", "155143.322000", "155143.325000", "155143.328000", "155143.331000", "155143.334000", "155143.336000", "155143.339000", "155143.342000", "155143.345000", "155143.348000", "155143.351000", "155143.353000", "155143.356000", "155143.359000", "155143.362000", "155143.365000", "155143.368000", "155143.370000", "155143.373000", "155143.376000", "155143.379000", "155143.382000", "155223.307000", "155223.310000", "155223.313000", "155223.315000", "155223.318000", "155223.321000", "155223.324000", "155223.327000", "155223.330000", "155223.332000", "155223.335000", "155223.338000", "155223.341000", "155223.344000", "155223.347000", "155223.349000", "155223.352000", "155223.355000", "155223.358000", "155223.361000", "155223.363000", "155223.366000", "155223.369000", "155223.372000", "155223.375000", "155223.378000", "155223.380000", "155303.307000", "155303.310000", "155303.313000", "155303.316000", "155303.319000", "155303.322000", "155303.325000", "155303.328000", "155303.330000", "155303.333000", "155303.336000", "155303.339000", "155303.342000", "155303.345000", "155303.347000", "155303.350000", "155303.353000", "155303.356000", "155303.359000", "155303.362000", "155303.365000", "155303.367000", "155303.370000", "155303.373000", "155303.376000", "155303.379000", "155343.308000", "155343.311000", "155343.314000", "155343.317000", "155343.319000", "155343.322000", "155343.325000", "155343.328000", "155343.331000", "155343.333000", "155343.336000", "155343.339000", "155343.342000", "155343.345000", "155343.348000", "155343.350000", "155343.353000", "155343.356000", "155343.359000", "155343.362000", "155343.365000", "155343.367000", "155343.370000", "155343.373000", "155343.376000", "155343.379000", "155343.382000", "155423.308000", "155423.311000", "155423.314000", "155423.317000", "155423.320000", "155423.323000", "155423.325000", "155423.328000", "155423.331000", "155423.334000", "155423.337000", "155423.340000", "155423.343000", "155423.346000", "155423.349000", "155423.352000", "155423.355000", "155423.357000", "155423.360000", "155423.363000", "155423.366000", "155423.369000", "155423.372000", "155423.374000", "155423.377000", "155423.380000", "155423.383000", "155503.307000", "155503.310000", "155503.313000", "155503.316000", "155503.318000", "155503.321000", "155503.324000", "155503.327000", "155503.330000", "155503.333000", "155503.335000", "155503.338000", "155503.341000", "155503.344000", "155503.347000", "155503.350000", "155503.353000", "155503.355000", "155503.358000", "155503.361000", "155503.364000", "155503.367000", "155503.370000", "155503.372000", "155503.375000", "155503.378000", "155503.381000", "155543.308000", "155543.311000", "155543.314000", "155543.316000", "155543.319000", "155543.322000", "155543.325000", "155543.328000", "155543.331000", "155543.333000", "155543.336000", "155543.339000", "155543.342000", "155543.345000", "155543.348000", "155543.351000", "155543.353000", "155543.356000", "155543.359000", "155543.362000", "155543.365000", "155543.367000", "155543.370000", "155543.373000", "155543.376000", "155543.379000", "155543.382000", "155623.308000", "155623.311000", "155623.314000", "155623.317000", "155623.320000", "155623.323000", "155623.325000", "155623.328000", "155623.331000", "155623.334000", "155623.337000", "155623.340000", "155623.342000", "155623.345000", "155623.348000", "155623.351000", "155623.354000", "155623.357000", "155623.360000", "155623.363000", "155623.365000", "155623.368000", "155623.371000", "155623.374000", "155623.377000", "155623.380000", "155623.382000", "155703.307000", "155703.310000", "155703.313000", "155703.315000", "155703.318000", "155703.321000", "155703.324000", "155703.327000", "155703.330000", "155703.333000", "155703.336000", "155703.339000", "155703.342000", "155703.345000", "155703.347000", "155703.350000", "155703.353000", "155703.356000", "155703.359000", "155703.362000", "155703.364000", "155703.367000", "155703.370000", "155703.373000", "155703.376000", "155703.378000", "155743.307000", "155743.310000", "155743.313000", "155743.317000", "155743.320000", "155743.323000", "155743.326000", "155743.329000", "155743.331000", "155743.334000", "155743.337000", "155743.340000", "155743.343000", "155743.346000", "155743.348000", "155743.351000", "155743.354000", "155743.357000", "155743.360000", "155743.363000", "155743.365000", "155743.368000", "155743.371000", "155743.374000", "155743.377000", "155743.380000", "155743.382000", "155811.933000", "155811.936000", "155811.939000", "155811.942000", "155811.945000", "155811.948000", "155811.951000", "155811.954000", "155811.957000", "155811.960000", "155811.962000", "155811.965000", "155811.968000", "155811.971000", "155811.975000", "155811.978000", "155811.980000", "155811.983000", "155811.986000", "155811.989000"],
