{
  "AcquisitionMatrixPE": 104,
  "AcquisitionNumber": 1,
  "AcquisitionTime": "17:21:42.652500",
  "BandwidthPerPixelPhaseEncode": 17.17,
  "BaseResolution": 104,
  "BodyPartExamined": "BRAIN",
  "CoilString": "HC1-7;NC1_2",
  "ConsistencyInfo": "N4_VE11C_LATEST_20160120",
  "ConversionSoftware": "dcm2niix",
  "ConversionSoftwareVersion": "v1.0.20190902",
  "DerivedVendorReportedEchoSpacing": 0.000560011,
  "DeviceSerialNumber": "167006",
  "DwellTime": 2.1e-06,
  "EchoTime": 0.037,
  "EchoTrainLength": 104,
  "EffectiveEchoSpacing": 0.000560011,
  "FlipAngle": 52,
  "ImageComments": "Unaliased_MB4_PE3_LB",
  "ImageOrientationPatientDICOM": [0.999842, 0.000280037, -0.0177929, -0.00453722, 0.970841, -0.239681],
  "ImageType": [
    "ORIGINAL",
    "PRIMARY",
    "M",
    "MB",
    "ND",
    "MOSAIC"
],
  "ImagingFrequency": 123.259,
  "InPlanePhaseEncodingDirectionDICOM": "COL",
  "InstitutionAddress": "Chemin_Queen-Mary_4565_Montreal_District_CA_H3W_1W5",
  "InstitutionName": "IUGM",
  "InstitutionalDepartmentName": "Department",
  "MRAcquisitionType": "2D",
  "MagneticFieldStrength": 3,
  "Manufacturer": "Siemens",
  "ManufacturersModelName": "Prisma_fit",
  "Modality": "MR",
  "MultibandAccelerationFactor": 4,
  "PartialFourier": 1,
  "PatientPosition": "HFS",
  "PercentPhaseFOV": 100,
  "PhaseEncodingDirection": "j",
  "PhaseEncodingSteps": 104,
  "PhaseResolution": 1,
  "PixelBandwidth": 2290,
  "ProcedureStepDescription": "video_friends",
  "ProtocolName": "func_task-friends-s04e23c",
  "PulseSequenceDetails": "%CustomerSeq%_cmrr_mbep2d_bold",
  "ReceiveCoilActiveElements": "HC1-7;NC1,2",
  "ReceiveCoilName": "HeadNeck_64",
  "ReconMatrixPE": 104,
  "RepetitionTime": 1.49,
  "SAR": 0.0305384,
  "ScanOptions": "FS",
  "ScanningSequence": "EP",
  "SequenceName": "epfid2d1_104",
  "SequenceVariant": "SK_SS",
  "SeriesDescription": "func_task-friends-s04e23c",
  "SeriesNumber": 15,
  "ShimSetting": [625, -7235, -8719, 723, 31, -39, 120, -17],
  "SliceThickness": 2,
  "SliceTiming": [0, 0.785, 0.0975, 0.8825, 0.1975, 0.98, 0.295, 1.0775, 0.3925, 1.1775, 0.49, 1.275, 0.5875, 1.3725, 0.6875, 0, 0.785, 0.0975, 0.8825, 0.1975, 0.98, 0.295, 1.0775, 0.3925, 1.1775, 0.49, 1.275, 0.5875, 1.3725, 0.6875, 0, 0.785, 0.0975, 0.8825, 0.1975, 0.98, 0.295, 1.0775, 0.3925, 1.1775, 0.49, 1.275, 0.5875, 1.3725, 0.6875, 0, 0.785, 0.0975, 0.8825, 0.1975, 0.98, 0.295, 1.0775, 0.3925, 1.1775, 0.49, 1.275, 0.5875, 1.3725, 0.6875],
  "SoftwareVersions": "syngo_MR_E11",
  "SpacingBetweenSlices": 2,
  "StationName": "MRC35049",
  "TaskName": "s04e23c",
  "TotalReadoutTime": 0.0576811,
  "TxRefAmp": 207.659,
  "WipMemBlock": "1f0066ef-7c6b-49f1-8948-b9b71412d715||Sequence: R016 ve11c/master r/e634e98; Dec 19 2017 11:00:25 by eja",
  "dcmmeta_affine": [
    [-1.9996832609176636, -0.009074446745216846, -0.03441395238041878, 106.02894592285156],
    [-0.0005600732984021306, 1.941681981086731, -0.4794485569000244, -85.18588256835938],
    [-0.03558584302663803, 0.47936299443244934, 1.94137704372406, -39.812374114990234],
    [0.0, 0.0, 0.0, 1.0]
],
  "dcmmeta_reorient_transform": [
    [0.0, -1.0, 0.0, 103.0],
    [1.0, 0.0, 0.0, 0.0],
    [0.0, 0.0, 1.0, 0.0],
    [0.0, 0.0, 0.0, 1.0]
],
  "dcmmeta_shape": [104, 104, 60, 504],
  "dcmmeta_slice_dim": 2,
  "dcmmeta_version": 0.6,
  "global": {
    "const": {
      "AcquisitionMatrix": [104, 0, 0, 104],
      "AngioFlag": "N",
      "BitsAllocated": 16,
      "BitsStored": 16,
      "BodyPartExamined": "BRAIN",
      "Columns": 832,
      "EchoNumbers": 1,
      "EchoTime": 37.0,
      "EchoTrainLength": 104,
      "FlipAngle": 52.0,
      "HighBit": 15,
      "ImageOrientationPatient": [0.99984165424106, 0.00028003665141, -0.017792920614, -0.0045372233413, 0.97084097252678, -0.2396814962979],
      "ImagePositionPatient": [-829.67590116883, -821.78344871737, 197.00338856151],
      "ImageType": [
        "ORIGINAL",
        "PRIMARY",
        "M",
        "MB",
        "ND",
        "MOSAIC"
],
      "ImagedNucleus": "1H",
      "ImagingFrequency": 123.258979,
      "InPlanePhaseEncodingDirection": "COL",
      "MRAcquisitionType": "2D",
      "MagneticFieldStrength": 3.0,
      "Manufacturer": "SIEMENS",
      "ManufacturerModelName": "Prisma_fit",
      "Modality": "MR",
      "NumberOfAverages": 1.0,
      "NumberOfPhaseEncodingSteps": 104,
      "PercentPhaseFieldOfView": 100.0,
      "PercentSampling": 100.0,
      "PerformedProcedureStepStartTime": "162956.439000",
      "PhotometricInterpretation": "MONOCHROME2",
      "PixelBandwidth": 2290.0,
      "PixelRepresentation": 0,
      "PixelSpacing": [2.0, 2.0],
      "ProtocolName": "func_task-friends-s04e23c",
      "RepetitionTime": 1490.0,
      "Rows": 832,
      "SAR": 0.03053842266718,
      "SamplesPerPixel": 1,
      "ScanOptions": "FS",
      "ScanningSequence": "EP",
      "SequenceName": "epfid2d1_104",
      "SequenceVariant": [
        "SK",
        "SS"
],
      "SeriesDescription": "func_task-friends-s04e23c",
      "SeriesNumber": 15,
      "SeriesTime": "172238.723000",
      "SliceLocation": -20.048728130668,
      "SliceThickness": 2.0,
      "SmallestImagePixelValue": 0,
      "SoftwareVersions": "syngo MR E11",
      "SpacingBetweenSlices": 2.0000000310205,
      "SpecificCharacterSet": "ISO_IR 100",
      "StudyID": "1",
      "StudyTime": "162956.383000",
      "TransmitCoilName": "Body",
      "VariableFlipAngleFlag": "N",
      "WindowCenterWidthExplanation": "Algo1",
      "dBdt": 0.0},
    "slices": {}
  },
  "time": {
    "samples": {
      "AcquisitionNumber": [1, 2, 3, 4, 5, 6, 7, 8, 9, 10, 11, 12, 13, 14, 15, 16, 17, 18, 19, 20, 21, 22, 23, 24, 25, 26, 27, 28, 29, 30, 31, 32, 33, 34, 35, 36, 37, 38, 39, 40, 41, 42, 43, 44, 45, 46, 47, 48, 49, 50, 51, 52, 53, 54, 55, 56, 57, 58, 59, 60, 61, 62, 63, 64, 65, 66, 67, 68, 69, 70, 71, 72, 73, 74, 75, 76, 77, 78, 79, 80, 81, 82, 83, 84, 85, 86, 87, 88, 89, 90, 91, 92, 93, 94, 95, 96, 97, 98, 99, 100, 101, 102, 103, 104, 105, 106, 107, 108, 109, 110, 111, 112, 113, 114, 115, 116, 117, 118, 119, 120, 121, 122, 123, 124, 125, 126, 127, 128, 129, 130, 131, 132, 133, 134, 135, 136, 137, 138, 139, 140, 141, 142, 143, 144, 145, 146, 147, 148, 149, 150, 151, 152, 153, 154, 155, 156, 157, 158, 159, 160, 161, 162, 163, 164, 165, 166, 167, 168, 169, 170, 171, 172, 173, 174, 175, 176, 177, 178, 179, 180, 181, 182, 183, 184, 185, 186, 187, 188, 189, 190, 191, 192, 193, 194, 195, 196, 197, 198, 199, 200, 201, 202, 203, 204, 205, 206, 207, 208, 209, 210, 211, 212, 213, 214, 215, 216, 217, 218, 219, 220, 221, 222, 223, 224, 225, 226, 227, 228, 229, 230, 231, 232, 233, 234, 235, 236, 237, 238, 239, 240, 241, 242, 243, 244, 245, 246, 247, 248, 249, 250, 251, 252, 253, 254, 255, 256, 257, 258, 259, 260, 261, 262, 263, 264, 265, 266, 267, 268, 269, 270, 271, 272, 273, 274, 275, 276, 277, 278, 279, 280, 281, 282, 283, 284, 285, 286, 287, 288, 289, 290, 291, 292, 293, 294, 295, 296, 297, 298, 299, 300, 301, 302, 303, 304, 305, 306, 307, 308, 309, 310, 311, 312, 313, 314, 315, 316, 317, 318, 319, 320, 321, 322, 323, 324, 325, 326, 327, 328, 329, 330, 331, 332, 333, 334, 335, 336, 337, 338, 339, 340, 341, 342, 343, 344, 345, 346, 347, 348, 349, 350, 351, 352, 353, 354, 355, 356, 357, 358, 359, 360, 361, 362, 363, 364, 365, 366, 367, 368, 369, 370, 371, 372, 373, 374, 375, 376, 377, 378, 379, 380, 381, 382, 383, 384, 385, 386, 387, 388, 389, 390, 391, 392, 393, 394, 395, 396, 397, 398, 399, 400, 401, 402, 403, 404, 405, 406, 407, 408, 409, 410, 411, 412, 413, 414, 415, 416, 417, 418, 419, 420, 421, 422, 423, 424, 425, 426, 427, 428, 429, 430, 431, 432, 433, 434, 435, 436, 437, 438, 439, 440, 441, 442, 443, 444, 445, 446, 447, 448, 449, 450, 451, 452, 453, 454, 455, 456, 457, 458, 459, 460, 461, 462, 463, 464, 465, 466, 467, 468, 469, 470, 471, 472, 473, 474, 475, 476, 477, 478, 479, 480, 481, 482, 483, 484, 485, 486, 487, 488, 489, 490, 491, 492, 493, 494, 495, 496, 497, 498, 499, 500, 501, 502, 503, 504],
      "AcquisitionTime": ["172142.652500", "172144.142500", "172145.632500", "172147.122500", "172148.612500", "172150.102500", "172151.592500", "172153.082500", "172154.572500", "172156.062500", "172157.552500", "172159.042500", "172200.532500", "172202.022500", "172203.512500", "172205.002500", "172206.492500", "172207.982500", "172209.472500", "172210.962500", "172212.452500", "172213.942500", "172215.432500", "172216.922500", "172218.412500", "172219.902500", "172221.392500", "172222.882500", "172224.372500", "172225.862500", "172227.352500", "172228.842500", "172230.332500", "172231.822500", "172233.312500", "172234.802500", "172236.292500", "172237.782500", "172239.272500", "172240.762500", "172242.252500", "172243.742500", "172245.232500", "172246.722500", "172248.212500", "172249.702500", "172251.192500", "172252.682500", "172254.172500", "172255.662500", "172257.152500", "172258.642500", "172300.132500", "172301.622500", "172303.112500", "172304.602500", "172306.092500", "172307.582500", "172309.072500", "172310.562500", "172312.052500", "172313.542500", "172315.032500", "172316.522500", "172318.012500", "172319.502500", "172320.992500", "172322.482500", "172323.972500", "172325.462500", "172326.952500", "172328.442500", "172329.932500", "172331.422500", "172332.912500", "172334.402500", "172335.892500", "172337.382500", "172338.872500", "172340.362500", "172341.852500", "172343.342500", "172344.832500", "172346.322500", "172347.812500", "172349.302500", "172350.792500", "172352.282500", "172353.772500", "172355.262500", "172356.752500", "172358.242500", "172359.732500", "172401.222500", "172402.712500", "172404.202500", "172405.692500", "172407.182500", "172408.672500", "172410.162500", "172411.652500", "172413.142500", "172414.632500", "172416.122500", "172417.612500", "172419.102500", "172420.592500", "172422.082500", "172423.572500", "172425.062500", "172426.552500", "172428.042500", "172429.532500", "172431.022500", "172432.512500", "172434.002500", "172435.492500", "172436.982500", "172438.472500", "172439.962500", "172441.452500", "172442.942500", "172444.432500", "172445.922500", "172447.412500", "172448.902500", "172450.392500", "172451.882500", "172453.372500", "172454.862500", "172456.352500", "172457.842500", "172459.332500", "172500.822500", "172502.312500", "172503.802500", "172505.292500", "172506.782500", "172508.272500", "172509.762500", "172511.252500", "172512.742500", "172514.232500", "172515.722500", "172517.212500", "172518.702500", "172520.192500", "172521.682500", "172523.172500", "172524.662500", "172526.152500", "172527.642500", "172529.132500", "172530.622500", "172532.112500", "172533.602500", "172535.092500", "172536.582500", "172538.072500", "172539.562500", "172541.052500", "172542.542500", "172544.032500", "172545.522500", "172547.012500", "172548.502500", "172549.992500", "172551.482500", "172552.972500", "172554.462500", "172555.952500", "172557.442500", "172558.932500", "172600.422500", "172601.912500", "172603.402500", "172604.892500", "172606.382500", "172607.872500", "172609.362500", "172610.852500", "172612.342500", "172613.832500", "172615.322500", "172616.812500", "172618.302500", "172619.792500", "172621.282500", "172622.772500", "172624.262500", "172625.752500", "172627.242500", "172628.732500", "172630.222500", "172631.712500", "172633.202500", "172634.692500", "172636.182500", "172637.672500", "172639.162500", "172640.652500", "172642.142500", "172643.632500", "172645.122500", "172646.612500", "172648.102500", "172649.592500", "172651.082500", "172652.572500", "172654.062500", "172655.552500", "172657.042500", "172658.532500", "172700.022500", "172701.512500", "172703.002500", "172704.492500", "172705.982500", "172707.472500", "172708.962500", "172710.452500", "172711.942500", "172713.432500", "172714.922500", "172716.412500", "172717.902500", "172719.392500", "172720.882500", "172722.372500", "172723.862500", "172725.352500", "172726.842500", "172728.332500", "172729.822500", "172731.312500", "172732.802500", "172734.292500", "172735.782500", "172737.272500", "172738.762500", "172740.252500", "172741.742500", "172743.232500", "172744.722500", "172746.212500", "172747.702500", "172749.192500", "172750.682500", "172752.172500", "172753.662500", "172755.152500", "172756.642500", "172758.132500", "172759.622500", "172801.112500", "172802.602500", "172804.092500", "172805.582500", "172807.072500", "172808.562500", "172810.052500", "172811.542500", "172813.032500", "172814.522500", "172816.012500", "172817.502500", "172818.992500", "172820.482500", "172821.972500", "172823.462500", "172824.952500", "172826.442500", "172827.932500", "172829.422500", "172830.912500", "172832.402500", "172833.892500", "172835.382500", "172836.872500", "172838.362500", "172839.852500", "172841.342500", "172842.832500", "172844.322500", "172845.812500", "172847.302500", "172848.792500", "172850.282500", "172851.772500", "172853.262500", "172854.752500", "172856.242500", "172857.732500", "172859.222500", "172900.712500", "172902.202500", "172903.692500", "172905.182500", "172906.672500", "172908.162500", "172909.652500", "172911.142500", "172912.632500", "172914.122500", "172915.612500", "172917.102500", "172918.592500", "172920.082500", "172921.572500", "172923.062500", "172924.552500", "172926.042500", "172927.532500", "172929.022500", "172930.512500", "172932.002500", "172933.492500", "172934.982500", "172936.472500", "172937.962500", "172939.452500", "172940.942500", "172942.432500", "172943.922500", "172945.412500", "172946.902500", "172948.392500", "172949.882500", "172951.372500", "172952.862500", "172954.352500", "172955.842500", "172957.332500", "172958.822500", "173000.312500", "173001.802500", "173003.292500", "173004.782500", "173006.272500", "173007.762500", "173009.252500", "173010.742500", "173012.232500", "173013.722500", "173015.212500", "173016.702500", "173018.192500", "173019.682500", "173021.172500", "173022.662500", "173024.152500", "173025.642500", "173027.132500", "173028.622500", "173030.112500", "173031.602500", "173033.092500", "173034.582500", "173036.072500", "173037.562500", "173039.052500", "173040.542500", "173042.032500", "173043.522500", "173045.012500", "173046.502500", "173047.992500", "173049.482500", "173050.972500", "173052.462500", "173053.952500", "173055.442500", "173056.932500", "173058.422500", "173059.912500", "173101.402500", "173102.892500", "173104.382500", "173105.872500", "173107.362500", "173108.852500", "173110.342500", "173111.832500", "173113.322500", "173114.812500", "173116.302500", "173117.792500", "173119.282500", "173120.772500", "173122.262500", "173123.752500", "173125.242500", "173126.732500", "173128.222500", "173129.712500", "173131.202500", "173132.692500", "173134.182500", "173135.672500", "173137.162500", "173138.652500", "173140.142500", "173141.632500", "173143.122500", "173144.612500", "173146.102500", "173147.592500", "173149.082500", "173150.572500", "173152.062500", "173153.552500", "173155.042500", "173156.532500", "173158.022500", "173159.512500", "173201.002500", "173202.492500", "173203.982500", "173205.472500", "173206.962500", "173208.452500", "173209.942500", "173211.432500", "173212.922500", "173214.412500", "173215.902500", "173217.392500", "173218.882500", "173220.372500", "173221.862500", "173223.352500", "173224.842500", "173226.332500", "173227.822500", "173229.312500", "173230.802500", "173232.292500", "173233.782500", "173235.272500", "173236.762500", "173238.252500", "173239.742500", "173241.232500", "173242.722500", "173244.212500", "173245.702500", "173247.192500", "173248.682500", "173250.172500", "173251.662500", "173253.152500", "173254.642500", "173256.132500", "173257.622500", "173259.112500", "173300.602500", "173302.092500", "173303.582500", "173305.072500", "173306.562500", "173308.052500", "173309.542500", "173311.032500", "173312.522500", "173314.012500", "173315.502500", "173316.992500", "173318.482500", "173319.972500", "173321.462500", "173322.952500", "173324.442500", "173325.932500", "173327.422500", "173328.912500", "173330.402500", "173331.892500", "173333.382500", "173334.872500", "173336.362500", "173337.852500", "173339.342500", "173340.832500", "173342.322500", "173343.812500", "173345.302500", "173346.792500", "173348.282500", "173349.772500", "173351.262500", "173352.752500", "173354.242500", "173355.732500", "173357.222500", "173358.712500", "173400.202500", "173401.692500", "173403.182500", "173404.672500", "173406.162500", "173407.652500", "173409.142500", "173410.632500", "173412.122500"],
      "ContentTime": ["172238.728000", "172238.731000", "172258.688000", "172258.691000", "172258.694000", "172258.697000", "172258.700000", "172258.703000", "172258.713000", "172258.715000", "172258.718000", "172258.721000", "172258.724000", "172258.727000", "172258.730000", "172258.733000", "172258.736000", "172258.739000", "172258.742000", "172258.745000", "172258.748000", "172258.757000", "172318.688000", "172318.691000", "172318.694000", "172318.697000", "172318.700000", "172318.703000", "172318.705000", "172318.708000", "172318.711000", "172318.714000", "172318.717000", "172318.720000", "172318.723000", "172318.726000", "172318.729000", "172318.731000", "172318.734000", "172318.737000", "172318.740000", "172318.743000", "172338.688000", "172338.691000", "172338.694000", "172338.697000", "172338.700000", "172338.703000", "172338.705000", "172338.714000", "172338.717000", "172338.720000", "172338.723000", "172338.726000", "172338.729000", "172338.732000", "172338.735000", "172338.738000", "172338.741000", "172338.744000", "172338.746000", "172338.749000", "172358.690000", "172358.693000", "172358.696000", "172358.699000", "172358.702000", "172358.704000", "172358.707000", "172358.710000", "172358.713000", "172358.716000", "172358.719000", "172358.722000", "172358.725000", "172358.728000", "172358.731000", "172358.734000", "172358.737000", "172358.740000", "172358.743000", "172358.746000", "172418.688000", "172418.691000", "172418.694000", "172418.697000", "172418.700000", "172418.703000", "172418.712000", "172418.715000", "172418.717000", "172418.720000", "172418.723000", "172418.726000", "172418.729000", "172418.732000", "172418.735000", "172418.738000", "172418.741000", "172418.744000", "172418.747000", "172418.750000", "172458.688000", "172458.691000", "172458.694000", "172458.697000", "172458.700000", "172458.703000", "172458.706000", "172458.709000", "172458.712000", "172458.714000", "172458.717000", "172458.720000", "172458.723000", "172458.726000", "172458.729000", "172458.732000", "172458.735000", "172458.738000", "172458.741000", "172458.744000", "172458.746000", "172458.749000", "172458.752000", "172458.755000", "172458.758000", "172458.761000", "172458.764000", "172458.767000", "172538.688000", "172538.691000", "172538.694000", "172538.697000", "172538.700000", "172538.703000", "172538.706000", "172538.708000", "172538.711000", "172538.714000", "172538.717000", "172538.720000", "172538.723000", "172538.726000", "172538.729000", "172538.732000", "172538.735000", "172538.738000", "172538.741000", "172538.744000", "172538.746000", "172538.749000", "172538.752000", "172538.755000", "172538.758000", "172538.761000", "172538.764000", "172618.688000", "172618.691000", "172618.694000", "172618.707000", "172618.710000", "172618.713000", "172618.716000", "172618.719000", "172618.722000", "172618.725000", "172618.728000", "172618.731000", "172618.734000", "172618.736000", "172618.739000", "172618.742000", "172618.745000", "172618.748000", "172618.751000", "172618.754000", "172618.757000", "172618.760000", "172618.763000", "172618.765000", "172618.768000", "172618.771000", "172618.774000", "172658.689000", "172658.692000", "172658.695000", "172658.698000", "172658.701000", "172658.704000", "172658.707000", "172658.710000", "172658.712000", "172658.715000", "172658.718000", "172658.721000", "172658.724000", "172658.727000", "172658.730000", "172658.733000", "172658.736000", "172658.739000", "172658.742000", "172658.745000", "172658.748000", "172658.751000", "172658.753000", "172658.756000", "172658.759000", "172658.762000", "172658.765000", "172738.688000", "172738.691000", "172738.694000", "172738.697000", "172738.700000", "172738.703000", "172738.706000", "172738.709000", "172738.712000", "172738.715000", "172738.718000", "172738.721000", "172738.724000", "172738.726000", "172738.729000", "172738.732000", "172738.735000", "172738.738000", "172738.741000", "172738.744000", "172738.747000", "172738.750000", "172738.753000", "172738.756000", "172738.759000", "172738.762000", "172738.765000", "172818.688000", "172818.691000", "172818.694000", "172818.697000", "172818.700000", "172818.703000", "172818.706000", "172818.709000", "172818.712000", "172818.715000", "172818.718000", "172818.720000", "172818.723000", "172818.726000", "172818.729000", "172818.732000", "172818.735000", "172818.738000", "172818.741000", "172818.744000", "172818.747000", "172818.750000", "172818.753000", "172818.756000", "172818.759000", "172818.762000", "172818.764000", "172858.688000", "172858.691000", "172858.694000", "172858.697000", "172858.700000", "172858.703000", "172858.706000", "172858.709000", "172858.712000", "172858.714000", "172858.717000", "172858.720000", "172858.723000", "172858.727000", "172858.730000", "172858.732000", "172858.736000", "172858.738000", "172858.741000", "172858.744000", "172858.747000", "172858.750000", "172858.753000", "172858.756000", "172858.759000", "172858.762000", "172938.688000", "172938.691000", "172938.694000", "172938.697000", "172938.700000", "172938.703000", "172938.706000", "172938.709000", "172938.712000", "172938.714000", "172938.717000", "172938.720000", "172938.723000", "172938.726000", "172938.729000", "172938.732000", "172938.735000", "172938.738000", "172938.741000", "172938.744000", "172938.747000", "172938.749000", "172938.752000", "172938.755000", "172938.758000", "172938.761000", "172938.764000", "173018.688000", "173018.691000", "173018.694000", "173018.698000", "173018.701000", "173018.703000", "173018.706000", "173018.709000", "173018.712000", "173018.715000", "173018.718000", "173018.721000", "173018.724000", "173018.727000", "173018.730000", "173018.733000", "173018.735000", "173018.739000", "173018.741000", "173018.744000", "173018.747000", "173018.750000", "173018.753000", "173018.756000", "173018.759000", "173018.762000", "173018.765000", "173058.688000", "173058.691000", "173058.694000", "173058.711000", "173058.714000", "173058.717000", "173058.720000", "173058.723000", "173058.726000", "173058.729000", "173058.732000", "173058.734000", "173058.737000", "173058.740000", "173058.743000", "173058.746000", "173058.749000", "173058.752000", "173058.755000", "173058.758000", "173058.761000", "173058.764000", "173058.767000", "173058.770000", "173058.773000", "173058.776000", "173058.779000", "173138.689000", "173138.692000", "173138.695000", "173138.698000", "173138.701000", "173138.704000", "173138.707000", "173138.720000", "173138.723000", "173138.726000", "173138.729000", "173138.732000", "173138.735000", "173138.738000", "173138.741000", "173138.744000", "173138.747000", "173138.750000", "173138.752000", "173138.755000", "173138.758000", "173138.761000", "173138.764000", "173138.767000", "173138.770000", "173138.773000", "173138.776000", "173218.688000", "173218.691000", "173218.694000", "173218.697000", "173218.700000", "173218.703000", "173218.706000", "173218.709000", "173218.712000", "173218.715000", "173218.718000", "173218.721000", "173218.724000", "173218.727000", "173218.730000", "173218.733000", "173218.736000", "173218.739000", "173218.742000", "173218.744000", "173218.747000", "173218.750000", "173218.753000", "173218.756000", "173218.759000", "173218.762000", "173218.765000", "173258.689000", "173258.692000", "173258.696000", "173258.699000", "173258.702000", "173258.705000", "173258.708000", "173258.711000", "173258.714000", "173258.717000", "173258.720000", "173258.723000", "173258.726000", "173258.729000", "173258.731000", "173258.734000", "173258.737000", "173258.740000", "173258.743000", "173258.746000", "173258.749000", "173258.752000", "173258.755000", "173258.758000", "173258.761000", "173258.764000", "173338.688000", "173338.691000", "173338.694000", "173338.697000", "173338.700000", "173338.703000", "173338.706000", "173338.709000", "173338.712000", "173338.715000", "173338.717000", "173338.720000", "173338.723000", "173338.726000", "173338.729000", "173338.732000", "173338.735000", "173338.738000", "173338.741000", "173338.744000", "173338.747000", "173338.750000", "173338.753000", "173338.756000", "173338.759000", "173338.762000", "173338.765000", "173414.728000", "173414.732000", "173414.734000", "173414.737000", "173414.740000", "173414.743000", "173414.746000", "173414.749000", "173414.752000", "173414.755000", "173414.758000", "173414.761000", "173414.764000", "173414.767000", "173414.770000", "173414.773000", "173414.776000", "173414.779000", "173414.782000", "173414.785000", "173414.787000", "173414.790000", "173414.793000", "173414.796000", "173414.799000"],
