{
  "AcquisitionMatrixPE": 104,
  "AcquisitionNumber": 1,
  "AcquisitionTime": "17:34:40.645000",
  "BandwidthPerPixelPhaseEncode": 17.17,
  "BaseResolution": 104,
  "BodyPartExamined": "BRAIN",
  "CoilString": "HC1-7;NC1_2",
  "ConsistencyInfo": "N4_VE11C_LATEST_20160120",
  "ConversionSoftware": "dcm2niix",
  "ConversionSoftwareVersion": "v1.0.20190902",
  "DerivedVendorReportedEchoSpacing": 0.000560011,
  "DeviceSerialNumber": "167006",
  "DwellTime": 2.1e-06,
  "EchoTime": 0.037,
  "EchoTrainLength": 104,
  "EffectiveEchoSpacing": 0.000560011,
  "FlipAngle": 52,
  "ImageComments": "Unaliased_MB4_PE3_LB",
  "ImageOrientationPatientDICOM": [0.999842, 0.000280037, -0.0177929, -0.00453722, 0.970841, -0.239681],
  "ImageType": [
    "ORIGINAL",
    "PRIMARY",
    "M",
    "MB",
    "ND",
    "MOSAIC"
],
  "ImagingFrequency": 123.259,
  "InPlanePhaseEncodingDirectionDICOM": "COL",
  "InstitutionAddress": "Chemin_Queen-Mary_4565_Montreal_District_CA_H3W_1W5",
  "InstitutionName": "IUGM",
  "InstitutionalDepartmentName": "Department",
  "MRAcquisitionType": "2D",
  "MagneticFieldStrength": 3,
  "Manufacturer": "Siemens",
  "ManufacturersModelName": "Prisma_fit",
  "Modality": "MR",
  "MultibandAccelerationFactor": 4,
  "PartialFourier": 1,
  "PatientPosition": "HFS",
  "PercentPhaseFOV": 100,
  "PhaseEncodingDirection": "j",
  "PhaseEncodingSteps": 104,
  "PhaseResolution": 1,
  "PixelBandwidth": 2290,
  "ProcedureStepDescription": "video_friends",
  "ProtocolName": "func_task-friends-s04e23d",
  "PulseSequenceDetails": "%CustomerSeq%_cmrr_mbep2d_bold",
  "ReceiveCoilActiveElements": "HC1-7;NC1,2",
  "ReceiveCoilName": "HeadNeck_64",
  "ReconMatrixPE": 104,
  "RepetitionTime": 1.49,
  "SAR": 0.0305384,
  "ScanOptions": "FS",
  "ScanningSequence": "EP",
  "SequenceName": "epfid2d1_104",
  "SequenceVariant": "SK_SS",
  "SeriesDescription": "func_task-friends-s04e23d",
  "SeriesNumber": 17,
  "ShimSetting": [625, -7235, -8719, 723, 31, -39, 120, -17],
  "SliceThickness": 2,
  "SliceTiming": [0, 0.7825, 0.0975, 0.8825, 0.195, 0.98, 0.2925, 1.0775, 0.3925, 1.175, 0.49, 1.2725, 0.5875, 1.3725, 0.685, 0, 0.7825, 0.0975, 0.8825, 0.195, 0.98, 0.2925, 1.0775, 0.3925, 1.175, 0.49, 1.2725, 0.5875, 1.3725, 0.685, 0, 0.7825, 0.0975, 0.8825, 0.195, 0.98, 0.2925, 1.0775, 0.3925, 1.175, 0.49, 1.2725, 0.5875, 1.3725, 0.685, 0, 0.7825, 0.0975, 0.8825, 0.195, 0.98, 0.2925, 1.0775, 0.3925, 1.175, 0.49, 1.2725, 0.5875, 1.3725, 0.685],
  "SoftwareVersions": "syngo_MR_E11",
  "SpacingBetweenSlices": 2,
  "StationName": "MRC35049",
  "TaskName": "s04e23d",
  "TotalReadoutTime": 0.0576811,
  "TxRefAmp": 207.659,
  "WipMemBlock": "6d196830-0aee-4af4-9836-9d50972708f0||Sequence: R016 ve11c/master r/e634e98; Dec 19 2017 11:00:25 by eja",
  "dcmmeta_affine": [
    [-1.9996832609176636, -0.009074446745216846, -0.03441395238041878, 106.02894592285156],
    [-0.0005600732984021306, 1.941681981086731, -0.4794485569000244, -85.18588256835938],
    [-0.03558584302663803, 0.47936299443244934, 1.94137704372406, -39.812374114990234],
    [0.0, 0.0, 0.0, 1.0]
],
  "dcmmeta_reorient_transform": [
    [0.0, -1.0, 0.0, 103.0],
    [1.0, 0.0, 0.0, 0.0],
    [0.0, 0.0, 1.0, 0.0],
    [0.0, 0.0, 0.0, 1.0]
],
  "dcmmeta_shape": [104, 104, 60, 504],
  "dcmmeta_slice_dim": 2,
  "dcmmeta_version": 0.6,
  "global": {
    "const": {
      "AcquisitionMatrix": [104, 0, 0, 104],
      "AngioFlag": "N",
      "BitsAllocated": 16,
      "BitsStored": 16,
      "BodyPartExamined": "BRAIN",
      "Columns": 832,
      "EchoNumbers": 1,
      "EchoTime": 37.0,
      "EchoTrainLength": 104,
      "FlipAngle": 52.0,
      "HighBit": 15,
      "ImageOrientationPatient": [0.99984165424106, 0.00028003665141, -0.017792920614, -0.0045372233413, 0.97084097252678, -0.2396814962979],
      "ImagePositionPatient": [-829.67590116883, -821.78344871737, 197.00338856151],
      "ImageType": [
        "ORIGINAL",
        "PRIMARY",
        "M",
        "MB",
        "ND",
        "MOSAIC"
],
      "ImagedNucleus": "1H",
      "ImagingFrequency": 123.258984,
      "InPlanePhaseEncodingDirection": "COL",
      "MRAcquisitionType": "2D",
      "MagneticFieldStrength": 3.0,
      "Manufacturer": "SIEMENS",
      "ManufacturerModelName": "Prisma_fit",
      "Modality": "MR",
      "NumberOfAverages": 1.0,
      "NumberOfPhaseEncodingSteps": 104,
      "PercentPhaseFieldOfView": 100.0,
      "PercentSampling": 100.0,
      "PerformedProcedureStepStartTime": "162956.439000",
      "PhotometricInterpretation": "MONOCHROME2",
      "PixelBandwidth": 2290.0,
      "PixelRepresentation": 0,
      "PixelSpacing": [2.0, 2.0],
      "ProtocolName": "func_task-friends-s04e23d",
      "RepetitionTime": 1490.0,
      "Rows": 832,
      "SAR": 0.03053842266718,
      "SamplesPerPixel": 1,
      "ScanOptions": "FS",
      "ScanningSequence": "EP",
      "SequenceName": "epfid2d1_104",
      "SequenceVariant": [
        "SK",
        "SS"
],
      "SeriesDescription": "func_task-friends-s04e23d",
      "SeriesNumber": 17,
      "SeriesTime": "173555.223000",
      "SliceLocation": -20.048728130668,
      "SliceThickness": 2.0,
      "SmallestImagePixelValue": 0,
      "SoftwareVersions": "syngo MR E11",
      "SpacingBetweenSlices": 2.0000000310205,
      "SpecificCharacterSet": "ISO_IR 100",
      "StudyID": "1",
      "StudyTime": "162956.383000",
      "TransmitCoilName": "Body",
      "VariableFlipAngleFlag": "N",
      "WindowCenterWidthExplanation": "Algo1",
      "dBdt": 0.0},
    "slices": {}
  },
  "time": {
    "samples": {
      "AcquisitionNumber": [1, 2, 3, 4, 5, 6, 7, 8, 9, 10, 11, 12, 13, 14, 15, 16, 17, 18, 19, 20, 21, 22, 23, 24, 25, 26, 27, 28, 29, 30, 31, 32, 33, 34, 35, 36, 37, 38, 39, 40, 41, 42, 43, 44, 45, 46, 47, 48, 49, 50, 51, 52, 53, 54, 55, 56, 57, 58, 59, 60, 61, 62, 63, 64, 65, 66, 67, 68, 69, 70, 71, 72, 73, 74, 75, 76, 77, 78, 79, 80, 81, 82, 83, 84, 85, 86, 87, 88, 89, 90, 91, 92, 93, 94, 95, 96, 97, 98, 99, 100, 101, 102, 103, 104, 105, 106, 107, 108, 109, 110, 111, 112, 113, 114, 115, 116, 117, 118, 119, 120, 121, 122, 123, 124, 125, 126, 127, 128, 129, 130, 131, 132, 133, 134, 135, 136, 137, 138, 139, 140, 141, 142, 143, 144, 145, 146, 147, 148, 149, 150, 151, 152, 153, 154, 155, 156, 157, 158, 159, 160, 161, 162, 163, 164, 165, 166, 167, 168, 169, 170, 171, 172, 173, 174, 175, 176, 177, 178, 179, 180, 181, 182, 183, 184, 185, 186, 187, 188, 189, 190, 191, 192, 193, 194, 195, 196, 197, 198, 199, 200, 201, 202, 203, 204, 205, 206, 207, 208, 209, 210, 211, 212, 213, 214, 215, 216, 217, 218, 219, 220, 221, 222, 223, 224, 225, 226, 227, 228, 229, 230, 231, 232, 233, 234, 235, 236, 237, 238, 239, 240, 241, 242, 243, 244, 245, 246, 247, 248, 249, 250, 251, 252, 253, 254, 255, 256, 257, 258, 259, 260, 261, 262, 263, 264, 265, 266, 267, 268, 269, 270, 271, 272, 273, 274, 275, 276, 277, 278, 279, 280, 281, 282, 283, 284, 285, 286, 287, 288, 289, 290, 291, 292, 293, 294, 295, 296, 297, 298, 299, 300, 301, 302, 303, 304, 305, 306, 307, 308, 309, 310, 311, 312, 313, 314, 315, 316, 317, 318, 319, 320, 321, 322, 323, 324, 325, 326, 327, 328, 329, 330, 331, 332, 333, 334, 335, 336, 337, 338, 339, 340, 341, 342, 343, 344, 345, 346, 347, 348, 349, 350, 351, 352, 353, 354, 355, 356, 357, 358, 359, 360, 361, 362, 363, 364, 365, 366, 367, 368, 369, 370, 371, 372, 373, 374, 375, 376, 377, 378, 379, 380, 381, 382, 383, 384, 385, 386, 387, 388, 389, 390, 391, 392, 393, 394, 395, 396, 397, 398, 399, 400, 401, 402, 403, 404, 405, 406, 407, 408, 409, 410, 411, 412, 413, 414, 415, 416, 417, 418, 419, 420, 421, 422, 423, 424, 425, 426, 427, 428, 429, 430, 431, 432, 433, 434, 435, 436, 437, 438, 439, 440, 441, 442, 443, 444, 445, 446, 447, 448, 449, 450, 451, 452, 453, 454, 455, 456, 457, 458, 459, 460, 461, 462, 463, 464, 465, 466, 467, 468, 469, 470, 471, 472, 473, 474, 475, 476, 477, 478, 479, 480, 481, 482, 483, 484, 485, 486, 487, 488, 489, 490, 491, 492, 493, 494, 495, 496, 497, 498, 499, 500, 501, 502, 503, 504],
      "AcquisitionTime": ["173440.645000", "173442.135000", "173443.625000", "173445.115000", "173446.605000", "173448.095000", "173449.585000", "173451.075000", "173452.565000", "173454.055000", "173455.545000", "173457.035000", "173458.525000", "173500.015000", "173501.505000", "173502.995000", "173504.485000", "173505.975000", "173507.465000", "173508.955000", "173510.445000", "173511.935000", "173513.425000", "173514.915000", "173516.405000", "173517.895000", "173519.385000", "173520.875000", "173522.365000", "173523.855000", "173525.345000", "173526.835000", "173528.325000", "173529.815000", "173531.305000", "173532.795000", "173534.285000", "173535.775000", "173537.265000", "173538.755000", "173540.245000", "173541.735000", "173543.225000", "173544.715000", "173546.205000", "173547.695000", "173549.185000", "173550.675000", "173552.165000", "173553.655000", "173555.145000", "173556.635000", "173558.125000", "173559.615000", "173601.105000", "173602.595000", "173604.085000", "173605.575000", "173607.065000", "173608.555000", "173610.045000", "173611.535000", "173613.025000", "173614.515000", "173616.005000", "173617.495000", "173618.985000", "173620.475000", "173621.965000", "173623.455000", "173624.945000", "173626.435000", "173627.925000", "173629.415000", "173630.905000", "173632.395000", "173633.885000", "173635.375000", "173636.865000", "173638.355000", "173639.845000", "173641.335000", "173642.825000", "173644.315000", "173645.805000", "173647.295000", "173648.785000", "173650.275000", "173651.765000", "173653.255000", "173654.745000", "173656.235000", "173657.725000", "173659.215000", "173700.705000", "173702.195000", "173703.685000", "173705.175000", "173706.665000", "173708.155000", "173709.645000", "173711.135000", "173712.625000", "173714.115000", "173715.605000", "173717.095000", "173718.585000", "173720.075000", "173721.565000", "173723.055000", "173724.545000", "173726.035000", "173727.525000", "173729.015000", "173730.505000", "173731.995000", "173733.485000", "173734.975000", "173736.465000", "173737.955000", "173739.445000", "173740.935000", "173742.425000", "173743.915000", "173745.405000", "173746.895000", "173748.385000", "173749.875000", "173751.365000", "173752.855000", "173754.345000", "173755.835000", "173757.325000", "173758.815000", "173800.305000", "173801.795000", "173803.285000", "173804.775000", "173806.265000", "173807.755000", "173809.245000", "173810.735000", "173812.225000", "173813.715000", "173815.205000", "173816.695000", "173818.185000", "173819.675000", "173821.165000", "173822.655000", "173824.145000", "173825.635000", "173827.125000", "173828.615000", "173830.105000", "173831.595000", "173833.085000", "173834.575000", "173836.065000", "173837.555000", "173839.045000", "173840.535000", "173842.025000", "173843.515000", "173845.005000", "173846.495000", "173847.985000", "173849.475000", "173850.965000", "173852.455000", "173853.945000", "173855.435000", "173856.925000", "173858.415000", "173859.905000", "173901.395000", "173902.885000", "173904.375000", "173905.865000", "173907.355000", "173908.845000", "173910.335000", "173911.825000", "173913.315000", "173914.805000", "173916.295000", "173917.785000", "173919.275000", "173920.765000", "173922.255000", "173923.745000", "173925.235000", "173926.725000", "173928.215000", "173929.705000", "173931.195000", "173932.685000", "173934.175000", "173935.665000", "173937.155000", "173938.645000", "173940.135000", "173941.625000", "173943.115000", "173944.605000", "173946.095000", "173947.585000", "173949.075000", "173950.565000", "173952.055000", "173953.545000", "173955.035000", "173956.525000", "173958.015000", "173959.505000", "174000.995000", "174002.485000", "174003.975000", "174005.465000", "174006.955000", "174008.445000", "174009.935000", "174011.425000", "174012.915000", "174014.405000", "174015.895000", "174017.385000", "174018.875000", "174020.365000", "174021.855000", "174023.345000", "174024.835000", "174026.325000", "174027.815000", "174029.305000", "174030.795000", "174032.285000", "174033.775000", "174035.265000", "174036.755000", "174038.245000", "174039.735000", "174041.225000", "174042.715000", "174044.205000", "174045.695000", "174047.185000", "174048.675000", "174050.165000", "174051.655000", "174053.145000", "174054.635000", "174056.125000", "174057.615000", "174059.105000", "174100.595000", "174102.085000", "174103.575000", "174105.065000", "174106.555000", "174108.045000", "174109.535000", "174111.025000", "174112.515000", "174114.005000", "174115.495000", "174116.985000", "174118.475000", "174119.965000", "174121.455000", "174122.945000", "174124.435000", "174125.925000", "174127.415000", "174128.905000", "174130.395000", "174131.885000", "174133.375000", "174134.865000", "174136.355000", "174137.845000", "174139.335000", "174140.825000", "174142.315000", "174143.805000", "174145.295000", "174146.785000", "174148.275000", "174149.765000", "174151.255000", "174152.745000", "174154.235000", "174155.725000", "174157.215000", "174158.705000", "174200.195000", "174201.685000", "174203.175000", "174204.665000", "174206.155000", "174207.645000", "174209.135000", "174210.625000", "174212.115000", "174213.605000", "174215.095000", "174216.585000", "174218.075000", "174219.565000", "174221.055000", "174222.545000", "174224.035000", "174225.525000", "174227.015000", "174228.505000", "174229.995000", "174231.485000", "174232.975000", "174234.465000", "174235.955000", "174237.445000", "174238.935000", "174240.425000", "174241.915000", "174243.405000", "174244.895000", "174246.385000", "174247.875000", "174249.365000", "174250.855000", "174252.345000", "174253.835000", "174255.325000", "174256.815000", "174258.305000", "174259.795000", "174301.285000", "174302.775000", "174304.265000", "174305.755000", "174307.245000", "174308.735000", "174310.225000", "174311.715000", "174313.205000", "174314.695000", "174316.185000", "174317.675000", "174319.165000", "174320.655000", "174322.145000", "174323.635000", "174325.125000", "174326.615000", "174328.105000", "174329.595000", "174331.085000", "174332.575000", "174334.065000", "174335.555000", "174337.045000", "174338.535000", "174340.025000", "174341.515000", "174343.005000", "174344.495000", "174345.985000", "174347.475000", "174348.965000", "174350.455000", "174351.945000", "174353.435000", "174354.925000", "174356.415000", "174357.905000", "174359.395000", "174400.885000", "174402.375000", "174403.865000", "174405.355000", "174406.845000", "174408.335000", "174409.825000", "174411.315000", "174412.805000", "174414.295000", "174415.785000", "174417.275000", "174418.765000", "174420.255000", "174421.745000", "174423.235000", "174424.725000", "174426.215000", "174427.705000", "174429.195000", "174430.685000", "174432.175000", "174433.665000", "174435.155000", "174436.645000", "174438.135000", "174439.625000", "174441.115000", "174442.605000", "174444.095000", "174445.585000", "174447.075000", "174448.565000", "174450.055000", "174451.545000", "174453.035000", "174454.525000", "174456.015000", "174457.505000", "174458.995000", "174500.485000", "174501.975000", "174503.465000", "174504.955000", "174506.445000", "174507.935000", "174509.425000", "174510.915000", "174512.405000", "174513.895000", "174515.385000", "174516.875000", "174518.365000", "174519.855000", "174521.345000", "174522.835000", "174524.325000", "174525.815000", "174527.305000", "174528.795000", "174530.285000", "174531.775000", "174533.265000", "174534.755000", "174536.245000", "174537.735000", "174539.225000", "174540.715000", "174542.205000", "174543.695000", "174545.185000", "174546.675000", "174548.165000", "174549.655000", "174551.145000", "174552.635000", "174554.125000", "174555.615000", "174557.105000", "174558.595000", "174600.085000", "174601.575000", "174603.065000", "174604.555000", "174606.045000", "174607.535000", "174609.025000", "174610.515000", "174612.005000", "174613.495000", "174614.985000", "174616.475000", "174617.965000", "174619.455000", "174620.945000", "174622.435000", "174623.925000", "174625.415000", "174626.905000", "174628.395000", "174629.885000", "174631.375000", "174632.865000", "174634.355000", "174635.845000", "174637.335000", "174638.825000", "174640.315000", "174641.805000", "174643.295000", "174644.785000", "174646.275000", "174647.765000", "174649.255000", "174650.745000", "174652.235000", "174653.725000", "174655.215000", "174656.705000", "174658.195000", "174659.685000", "174701.175000", "174702.665000", "174704.155000", "174705.645000", "174707.135000", "174708.625000", "174710.115000"],
      "ContentTime": ["173555.226000", "173555.229000", "173555.232000", "173555.235000", "173555.238000", "173555.241000", "173555.244000", "173555.246000", "173555.249000", "173555.252000", "173555.255000", "173555.258000", "173555.261000", "173555.268000", "173555.271000", "173555.274000", "173555.277000", "173555.280000", "173555.283000", "173555.286000", "173555.289000", "173555.301000", "173615.185000", "173615.195000", "173615.198000", "173615.201000", "173615.204000", "173615.206000", "173615.209000", "173615.212000", "173615.215000", "173615.218000", "173615.221000", "173615.224000", "173615.227000", "173615.230000", "173615.233000", "173615.235000", "173615.238000", "173615.241000", "173615.244000", "173615.247000", "173635.185000", "173635.188000", "173635.191000", "173635.194000", "173635.197000", "173635.200000", "173635.202000", "173635.205000", "173635.208000", "173635.211000", "173635.214000", "173635.217000", "173635.220000", "173635.223000", "173635.226000", "173635.228000", "173635.231000", "173635.234000", "173635.237000", "173635.240000", "173655.185000", "173655.188000", "173655.191000", "173655.194000", "173655.197000", "173655.200000", "173655.202000", "173655.205000", "173655.208000", "173655.211000", "173655.214000", "173655.217000", "173655.220000", "173655.223000", "173655.227000", "173655.231000", "173655.235000", "173655.238000", "173655.241000", "173655.244000", "173715.185000", "173715.188000", "173715.191000", "173715.194000", "173715.197000", "173715.200000", "173715.203000", "173715.205000", "173715.208000", "173715.211000", "173715.214000", "173715.217000", "173715.220000", "173715.223000", "173715.226000", "173715.229000", "173715.232000", "173715.234000", "173715.237000", "173715.240000", "173715.243000", "173755.185000", "173755.188000", "173755.191000", "173755.194000", "173755.197000", "173755.200000", "173755.203000", "173755.205000", "173755.208000", "173755.211000", "173755.214000", "173755.217000", "173755.220000", "173755.223000", "173755.226000", "173755.229000", "173755.232000", "173755.235000", "173755.237000", "173755.240000", "173755.243000", "173755.246000", "173755.249000", "173755.252000", "173755.255000", "173755.258000", "173755.261000", "173835.185000", "173835.188000", "173835.191000", "173835.194000", "173835.197000", "173835.200000", "173835.203000", "173835.206000", "173835.209000", "173835.212000", "173835.214000", "173835.217000", "173835.220000", "173835.223000", "173835.226000", "173835.229000", "173835.232000", "173835.235000", "173835.238000", "173835.241000", "173835.244000", "173835.246000", "173835.249000", "173835.252000", "173835.255000", "173835.258000", "173835.261000", "173915.185000", "173915.188000", "173915.191000", "173915.194000", "173915.197000", "173915.200000", "173915.216000", "173915.219000", "173915.222000", "173915.225000", "173915.228000", "173915.231000", "173915.234000", "173915.237000", "173915.240000", "173915.243000", "173915.246000", "173915.249000", "173915.252000", "173915.256000", "173915.259000", "173915.262000", "173915.265000", "173915.269000", "173915.272000", "173915.275000", "173955.185000", "173955.188000", "173955.191000", "173955.194000", "173955.197000", "173955.200000", "173955.203000", "173955.206000", "173955.209000", "173955.211000", "173955.214000", "173955.217000", "173955.220000", "173955.223000", "173955.226000", "173955.229000", "173955.232000", "173955.235000", "173955.238000", "173955.241000", "173955.243000", "173955.246000", "173955.249000", "173955.252000", "173955.255000", "173955.258000", "173955.261000", "174035.185000", "174035.188000", "174035.191000", "174035.194000", "174035.197000", "174035.200000", "174035.203000", "174035.206000", "174035.209000", "174035.212000", "174035.215000", "174035.218000", "174035.220000", "174035.223000", "174035.226000", "174035.229000", "174035.232000", "174035.235000", "174035.238000", "174035.241000", "174035.244000", "174035.247000", "174035.250000", "174035.253000", "174035.256000", "174035.259000", "174035.261000", "174115.185000", "174115.188000", "174115.191000", "174115.194000", "174115.197000", "174115.200000", "174115.203000", "174115.206000", "174115.209000", "174115.211000", "174115.214000", "174115.217000", "174115.220000", "174115.237000", "174115.240000", "174115.243000", "174115.246000", "174115.249000", "174115.252000", "174115.255000", "174115.257000", "174115.260000", "174115.263000", "174115.266000", "174115.269000", "174115.272000", "174115.275000", "174155.185000", "174155.188000", "174155.191000", "174155.194000", "174155.197000", "174155.200000", "174155.203000", "174155.206000", "174155.208000", "174155.211000", "174155.214000", "174155.217000", "174155.220000", "174155.223000", "174155.226000", "174155.229000", "174155.232000", "174155.235000", "174155.238000", "174155.241000", "174155.244000", "174155.247000", "174155.249000", "174155.252000", "174155.255000", "174155.258000", "174155.261000", "174215.185000", "174215.188000", "174215.191000", "174215.194000", "174215.197000", "174215.200000", "174215.203000", "174215.206000", "174215.209000", "174215.212000", "174215.214000", "174215.217000", "174215.220000", "174255.185000", "174255.188000", "174255.191000", "174255.194000", "174255.197000", "174255.200000", "174255.203000", "174255.206000", "174255.209000", "174255.212000", "174255.215000", "174255.218000", "174255.221000", "174255.224000", "174255.227000", "174255.230000", "174255.233000", "174255.236000", "174255.239000", "174255.242000", "174255.245000", "174255.248000", "174255.250000", "174255.253000", "174255.256000", "174255.266000", "174255.269000", "174335.185000", "174335.188000", "174335.191000", "174335.194000", "174335.197000", "174335.200000", "174335.203000", "174335.206000", "174335.209000", "174335.212000", "174335.214000", "174335.217000", "174335.220000", "174335.223000", "174335.226000", "174335.229000", "174335.232000", "174335.235000", "174335.238000", "174335.241000", "174335.244000", "174335.247000", "174335.250000", "174335.252000", "174335.255000", "174335.258000", "174335.261000", "174415.185000", "174415.188000", "174415.191000", "174415.194000", "174415.197000", "174415.200000", "174415.203000", "174415.206000", "174415.209000", "174415.211000", "174415.214000", "174415.217000", "174415.220000", "174415.223000", "174415.226000", "174415.229000", "174415.232000", "174415.235000", "174415.238000", "174415.241000", "174415.244000", "174415.247000", "174415.249000", "174415.252000", "174415.255000", "174415.258000", "174415.261000", "174455.185000", "174455.188000", "174455.191000", "174455.212000", "174455.215000", "174455.218000", "174455.221000", "174455.224000", "174455.227000", "174455.230000", "174455.233000", "174455.236000", "174455.238000", "174455.241000", "174455.244000", "174455.247000", "174455.250000", "174455.253000", "174455.256000", "174455.268000", "174455.271000", "174455.274000", "174455.277000", "174455.280000", "174455.282000", "174455.285000", "174455.288000", "174535.185000", "174535.188000", "174535.191000", "174535.194000", "174535.197000", "174535.200000", "174535.203000", "174535.206000", "174535.210000", "174535.213000", "174535.216000", "174535.219000", "174535.222000", "174535.225000", "174535.228000", "174535.231000", "174535.234000", "174535.237000", "174535.240000", "174535.243000", "174535.246000", "174535.249000", "174535.251000", "174535.254000", "174535.257000", "174535.260000", "174615.185000", "174615.188000", "174615.191000", "174615.194000", "174615.197000", "174615.200000", "174615.203000", "174615.206000", "174615.209000", "174615.212000", "174615.214000", "174615.217000", "174615.220000", "174615.223000", "174615.226000", "174615.229000", "174615.232000", "174615.235000", "174615.238000", "174615.241000", "174615.244000", "174615.247000", "174615.250000", "174615.253000", "174615.256000", "174615.259000", "174615.261000", "174655.185000", "174655.188000", "174655.191000", "174655.194000", "174655.197000", "174655.200000", "174655.211000", "174655.214000", "174655.217000", "174655.220000", "174655.223000", "174655.226000", "174655.229000", "174655.231000", "174655.234000", "174655.237000", "174655.240000", "174655.243000", "174655.246000", "174655.249000", "174655.252000", "174655.255000", "174655.258000", "174655.261000", "174655.264000", "174655.267000", "174655.270000", "174712.118000", "174712.121000", "174712.124000", "174712.127000", "174712.130000", "174712.133000", "174712.136000", "174712.139000", "174712.142000", "174712.145000", "174712.148000", "174712.151000"],
