{
  "AcquisitionMatrixPE": 104,
  "AcquisitionNumber": 1,
  "AcquisitionTime": "16:55:46.315000",
  "BandwidthPerPixelPhaseEncode": 17.17,
  "BaseResolution": 104,
  "BodyPartExamined": "BRAIN",
  "CoilString": "HC1-7;NC1_2",
  "ConsistencyInfo": "N4_VE11C_LATEST_20160120",
  "ConversionSoftware": "dcm2niix",
  "ConversionSoftwareVersion": "v1.0.20190902",
  "DerivedVendorReportedEchoSpacing": 0.000560011,
  "DeviceSerialNumber": "167006",
  "DwellTime": 2.1e-06,
  "EchoTime": 0.037,
  "EchoTrainLength": 104,
  "EffectiveEchoSpacing": 0.000560011,
  "FlipAngle": 52,
  "ImageComments": "Unaliased_MB4_PE3_LB",
  "ImageOrientationPatientDICOM": [0.999842, 0.000280037, -0.0177929, -0.00453722, 0.970841, -0.239681],
  "ImageType": [
    "ORIGINAL",
    "PRIMARY",
    "M",
    "MB",
    "ND",
    "MOSAIC"
],
  "ImagingFrequency": 123.259,
  "InPlanePhaseEncodingDirectionDICOM": "COL",
  "InstitutionAddress": "Chemin_Queen-Mary_4565_Montreal_District_CA_H3W_1W5",
  "InstitutionName": "IUGM",
  "InstitutionalDepartmentName": "Department",
  "MRAcquisitionType": "2D",
  "MagneticFieldStrength": 3,
  "Manufacturer": "Siemens",
  "ManufacturersModelName": "Prisma_fit",
  "Modality": "MR",
  "MultibandAccelerationFactor": 4,
  "PartialFourier": 1,
  "PatientPosition": "HFS",
  "PercentPhaseFOV": 100,
  "PhaseEncodingDirection": "j",
  "PhaseEncodingSteps": 104,
  "PhaseResolution": 1,
  "PixelBandwidth": 2290,
  "ProcedureStepDescription": "video_friends",
  "ProtocolName": "func_task-friends-s04e23a",
  "PulseSequenceDetails": "%CustomerSeq%_cmrr_mbep2d_bold",
  "ReceiveCoilActiveElements": "HC1-7;NC1,2",
  "ReceiveCoilName": "HeadNeck_64",
  "ReconMatrixPE": 104,
  "RepetitionTime": 1.49,
  "SAR": 0.0305387,
  "ScanOptions": "FS",
  "ScanningSequence": "EP",
  "SequenceName": "epfid2d1_104",
  "SequenceVariant": "SK_SS",
  "SeriesDescription": "func_task-friends-s04e23a",
  "SeriesNumber": 11,
  "ShimSetting": [625, -7235, -8719, 723, 31, -39, 120, -17],
  "SliceThickness": 2,
  "SliceTiming": [0, 0.785, 0.0975, 0.8825, 0.195, 0.98, 0.295, 1.0775, 0.3925, 1.175, 0.49, 1.275, 0.5875, 1.3725, 0.685, 0, 0.785, 0.0975, 0.8825, 0.195, 0.98, 0.295, 1.0775, 0.3925, 1.175, 0.49, 1.275, 0.5875, 1.3725, 0.685, 0, 0.785, 0.0975, 0.8825, 0.195, 0.98, 0.295, 1.0775, 0.3925, 1.175, 0.49, 1.275, 0.5875, 1.3725, 0.685, 0, 0.785, 0.0975, 0.8825, 0.195, 0.98, 0.295, 1.0775, 0.3925, 1.175, 0.49, 1.275, 0.5875, 1.3725, 0.685],
  "SoftwareVersions": "syngo_MR_E11",
  "SpacingBetweenSlices": 2,
  "StationName": "MRC35049",
  "TaskName": "s04e23a",
  "TotalReadoutTime": 0.0576811,
  "TxRefAmp": 207.659,
  "WipMemBlock": "610fdfdf-e0f6-45a6-94e2-08cd1e40525c||Sequence: R016 ve11c/master r/e634e98; Dec 19 2017 11:00:25 by eja",
  "dcmmeta_affine": [
    [-1.9996832609176636, -0.009074446745216846, -0.03441395238041878, 106.02894592285156],
    [-0.0005600732984021306, 1.941681981086731, -0.4794485569000244, -85.18588256835938],
    [-0.03558584302663803, 0.47936299443244934, 1.94137704372406, -39.812374114990234],
    [0.0, 0.0, 0.0, 1.0]
],
  "dcmmeta_reorient_transform": [
    [0.0, -1.0, 0.0, 103.0],
    [1.0, 0.0, 0.0, 0.0],
    [0.0, 0.0, 1.0, 0.0],
    [0.0, 0.0, 0.0, 1.0]
],
  "dcmmeta_shape": [104, 104, 60, 505],
  "dcmmeta_slice_dim": 2,
  "dcmmeta_version": 0.6,
  "global": {
    "const": {
      "AcquisitionMatrix": [104, 0, 0, 104],
      "AngioFlag": "N",
      "BitsAllocated": 16,
      "BitsStored": 16,
      "BodyPartExamined": "BRAIN",
      "Columns": 832,
      "EchoNumbers": 1,
      "EchoTime": 37.0,
      "EchoTrainLength": 104,
      "FlipAngle": 52.0,
      "HighBit": 15,
      "ImageOrientationPatient": [0.99984165424106, 0.00028003665141, -0.017792920614, -0.0045372233413, 0.97084097252678, -0.2396814962979],
      "ImagePositionPatient": [-829.67590116883, -821.78344871737, 197.00338856151],
      "ImageType": [
        "ORIGINAL",
        "PRIMARY",
        "M",
        "MB",
        "ND",
        "MOSAIC"
],
      "ImagedNucleus": "1H",
      "ImagingFrequency": 123.258961,
      "InPlanePhaseEncodingDirection": "COL",
      "MRAcquisitionType": "2D",
      "MagneticFieldStrength": 3.0,
      "Manufacturer": "SIEMENS",
      "ManufacturerModelName": "Prisma_fit",
      "Modality": "MR",
      "NumberOfAverages": 1.0,
      "NumberOfPhaseEncodingSteps": 104,
      "PercentPhaseFieldOfView": 100.0,
      "PercentSampling": 100.0,
      "PerformedProcedureStepStartTime": "162956.439000",
      "PhotometricInterpretation": "MONOCHROME2",
      "PixelBandwidth": 2290.0,
      "PixelRepresentation": 0,
      "PixelSpacing": [2.0, 2.0],
      "ProtocolName": "func_task-friends-s04e23a",
      "RepetitionTime": 1490.0,
      "Rows": 832,
      "SAR": 0.03053866062433,
      "SamplesPerPixel": 1,
      "ScanOptions": "FS",
      "ScanningSequence": "EP",
      "SequenceName": "epfid2d1_104",
      "SequenceVariant": [
        "SK",
        "SS"
],
      "SeriesDescription": "func_task-friends-s04e23a",
      "SeriesNumber": 11,
      "SeriesTime": "165715.217000",
      "SliceLocation": -20.048728130668,
      "SliceThickness": 2.0,
      "SmallestImagePixelValue": 0,
      "SoftwareVersions": "syngo MR E11",
      "SpacingBetweenSlices": 2.0000000310205,
      "SpecificCharacterSet": "ISO_IR 100",
      "StudyID": "1",
      "StudyTime": "162956.383000",
      "TransmitCoilName": "Body",
      "VariableFlipAngleFlag": "N",
      "WindowCenterWidthExplanation": "Algo1",
      "dBdt": 0.0},
    "slices": {}
  },
  "time": {
    "samples": {
      "AcquisitionNumber": [1, 2, 3, 4, 5, 6, 7, 8, 9, 10, 11, 12, 13, 14, 15, 16, 17, 18, 19, 20, 21, 22, 23, 24, 25, 26, 27, 28, 29, 30, 31, 32, 33, 34, 35, 36, 37, 38, 39, 40, 41, 42, 43, 44, 45, 46, 47, 48, 49, 50, 51, 52, 53, 54, 55, 56, 57, 58, 59, 60, 61, 62, 63, 64, 65, 66, 67, 68, 69, 70, 71, 72, 73, 74, 75, 76, 77, 78, 79, 80, 81, 82, 83, 84, 85, 86, 87, 88, 89, 90, 91, 92, 93, 94, 95, 96, 97, 98, 99, 100, 101, 102, 103, 104, 105, 106, 107, 108, 109, 110, 111, 112, 113, 114, 115, 116, 117, 118, 119, 120, 121, 122, 123, 124, 125, 126, 127, 128, 129, 130, 131, 132, 133, 134, 135, 136, 137, 138, 139, 140, 141, 142, 143, 144, 145, 146, 147, 148, 149, 150, 151, 152, 153, 154, 155, 156, 157, 158, 159, 160, 161, 162, 163, 164, 165, 166, 167, 168, 169, 170, 171, 172, 173, 174, 175, 176, 177, 178, 179, 180, 181, 182, 183, 184, 185, 186, 187, 188, 189, 190, 191, 192, 193, 194, 195, 196, 197, 198, 199, 200, 201, 202, 203, 204, 205, 206, 207, 208, 209, 210, 211, 212, 213, 214, 215, 216, 217, 218, 219, 220, 221, 222, 223, 224, 225, 226, 227, 228, 229, 230, 231, 232, 233, 234, 235, 236, 237, 238, 239, 240, 241, 242, 243, 244, 245, 246, 247, 248, 249, 250, 251, 252, 253, 254, 255, 256, 257, 258, 259, 260, 261, 262, 263, 264, 265, 266, 267, 268, 269, 270, 271, 272, 273, 274, 275, 276, 277, 278, 279, 280, 281, 282, 283, 284, 285, 286, 287, 288, 289, 290, 291, 292, 293, 294, 295, 296, 297, 298, 299, 300, 301, 302, 303, 304, 305, 306, 307, 308, 309, 310, 311, 312, 313, 314, 315, 316, 317, 318, 319, 320, 321, 322, 323, 324, 325, 326, 327, 328, 329, 330, 331, 332, 333, 334, 335, 336, 337, 338, 339, 340, 341, 342, 343, 344, 345, 346, 347, 348, 349, 350, 351, 352, 353, 354, 355, 356, 357, 358, 359, 360, 361, 362, 363, 364, 365, 366, 367, 368, 369, 370, 371, 372, 373, 374, 375, 376, 377, 378, 379, 380, 381, 382, 383, 384, 385, 386, 387, 388, 389, 390, 391, 392, 393, 394, 395, 396, 397, 398, 399, 400, 401, 402, 403, 404, 405, 406, 407, 408, 409, 410, 411, 412, 413, 414, 415, 416, 417, 418, 419, 420, 421, 422, 423, 424, 425, 426, 427, 428, 429, 430, 431, 432, 433, 434, 435, 436, 437, 438, 439, 440, 441, 442, 443, 444, 445, 446, 447, 448, 449, 450, 451, 452, 453, 454, 455, 456, 457, 458, 459, 460, 461, 462, 463, 464, 465, 466, 467, 468, 469, 470, 471, 472, 473, 474, 475, 476, 477, 478, 479, 480, 481, 482, 483, 484, 485, 486, 487, 488, 489, 490, 491, 492, 493, 494, 495, 496, 497, 498, 499, 500, 501, 502, 503, 504, 505],
      "AcquisitionTime": ["165546.315000", "165547.805000", "165549.295000", "165550.785000", "165552.275000", "165553.765000", "165555.255000", "165556.745000", "165558.235000", "165559.725000", "165601.215000", "165602.705000", "165604.195000", "165605.685000", "165607.175000", "165608.665000", "165610.155000", "165611.645000", "165613.135000", "165614.625000", "165616.115000", "165617.605000", "165619.095000", "165620.585000", "165622.075000", "165623.565000", "165625.055000", "165626.545000", "165628.035000", "165629.525000", "165631.015000", "165632.505000", "165633.995000", "165635.485000", "165636.975000", "165638.465000", "165639.955000", "165641.445000", "165642.935000", "165644.425000", "165645.915000", "165647.405000", "165648.895000", "165650.385000", "165651.875000", "165653.365000", "165654.855000", "165656.345000", "165657.835000", "165659.325000", "165700.815000", "165702.305000", "165703.795000", "165705.285000", "165706.775000", "165708.265000", "165709.755000", "165711.245000", "165712.735000", "165714.225000", "165715.715000", "165717.205000", "165718.695000", "165720.185000", "165721.675000", "165723.165000", "165724.655000", "165726.145000", "165727.635000", "165729.125000", "165730.615000", "165732.105000", "165733.595000", "165735.085000", "165736.575000", "165738.065000", "165739.555000", "165741.045000", "165742.535000", "165744.025000", "165745.515000", "165747.005000", "165748.495000", "165749.985000", "165751.475000", "165752.965000", "165754.455000", "165755.945000", "165757.435000", "165758.925000", "165800.415000", "165801.905000", "165803.395000", "165804.885000", "165806.375000", "165807.865000", "165809.355000", "165810.845000", "165812.335000", "165813.825000", "165815.315000", "165816.805000", "165818.295000", "165819.785000", "165821.275000", "165822.765000", "165824.255000", "165825.745000", "165827.235000", "165828.725000", "165830.215000", "165831.705000", "165833.195000", "165834.685000", "165836.175000", "165837.665000", "165839.155000", "165840.645000", "165842.135000", "165843.625000", "165845.115000", "165846.605000", "165848.095000", "165849.585000", "165851.075000", "165852.565000", "165854.055000", "165855.545000", "165857.035000", "165858.525000", "165900.015000", "165901.505000", "165902.995000", "165904.485000", "165905.975000", "165907.465000", "165908.955000", "165910.445000", "165911.935000", "165913.425000", "165914.915000", "165916.405000", "165917.895000", "165919.385000", "165920.875000", "165922.365000", "165923.855000", "165925.345000", "165926.835000", "165928.325000", "165929.815000", "165931.305000", "165932.795000", "165934.285000", "165935.775000", "165937.265000", "165938.755000", "165940.245000", "165941.735000", "165943.225000", "165944.715000", "165946.205000", "165947.695000", "165949.185000", "165950.675000", "165952.165000", "165953.655000", "165955.145000", "165956.635000", "165958.125000", "165959.615000", "170001.105000", "170002.595000", "170004.085000", "170005.575000", "170007.065000", "170008.555000", "170010.045000", "170011.535000", "170013.025000", "170014.515000", "170016.005000", "170017.495000", "170018.985000", "170020.475000", "170021.965000", "170023.455000", "170024.945000", "170026.435000", "170027.925000", "170029.415000", "170030.905000", "170032.395000", "170033.885000", "170035.375000", "170036.865000", "170038.355000", "170039.845000", "170041.335000", "170042.825000", "170044.315000", "170045.805000", "170047.295000", "170048.785000", "170050.275000", "170051.765000", "170053.255000", "170054.745000", "170056.235000", "170057.725000", "170059.215000", "170100.705000", "170102.195000", "170103.685000", "170105.175000", "170106.665000", "170108.155000", "170109.645000", "170111.135000", "170112.625000", "170114.115000", "170115.605000", "170117.095000", "170118.585000", "170120.075000", "170121.565000", "170123.055000", "170124.545000", "170126.035000", "170127.525000", "170129.015000", "170130.505000", "170131.995000", "170133.485000", "170134.975000", "170136.465000", "170137.955000", "170139.445000", "170140.935000", "170142.425000", "170143.915000", "170145.405000", "170146.895000", "170148.385000", "170149.875000", "170151.365000", "170152.855000", "170154.345000", "170155.835000", "170157.325000", "170158.815000", "170200.305000", "170201.795000", "170203.285000", "170204.775000", "170206.265000", "170207.755000", "170209.245000", "170210.735000", "170212.225000", "170213.715000", "170215.205000", "170216.695000", "170218.185000", "170219.675000", "170221.165000", "170222.655000", "170224.145000", "170225.635000", "170227.125000", "170228.615000", "170230.105000", "170231.595000", "170233.085000", "170234.575000", "170236.065000", "170237.555000", "170239.045000", "170240.535000", "170242.025000", "170243.515000", "170245.005000", "170246.495000", "170247.985000", "170249.475000", "170250.965000", "170252.455000", "170253.945000", "170255.435000", "170256.925000", "170258.415000", "170259.905000", "170301.395000", "170302.885000", "170304.375000", "170305.865000", "170307.355000", "170308.845000", "170310.335000", "170311.825000", "170313.315000", "170314.805000", "170316.295000", "170317.785000", "170319.275000", "170320.765000", "170322.255000", "170323.745000", "170325.235000", "170326.725000", "170328.215000", "170329.705000", "170331.195000", "170332.685000", "170334.175000", "170335.665000", "170337.155000", "170338.645000", "170340.135000", "170341.625000", "170343.115000", "170344.605000", "170346.095000", "170347.585000", "170349.075000", "170350.565000", "170352.055000", "170353.545000", "170355.035000", "170356.525000", "170358.015000", "170359.505000", "170400.995000", "170402.485000", "170403.975000", "170405.465000", "170406.955000", "170408.445000", "170409.935000", "170411.425000", "170412.915000", "170414.405000", "170415.895000", "170417.385000", "170418.875000", "170420.365000", "170421.855000", "170423.345000", "170424.835000", "170426.325000", "170427.815000", "170429.305000", "170430.795000", "170432.285000", "170433.775000", "170435.265000", "170436.755000", "170438.245000", "170439.735000", "170441.225000", "170442.715000", "170444.205000", "170445.695000", "170447.185000", "170448.675000", "170450.165000", "170451.655000", "170453.145000", "170454.635000", "170456.125000", "170457.615000", "170459.105000", "170500.595000", "170502.085000", "170503.575000", "170505.065000", "170506.555000", "170508.045000", "170509.535000", "170511.025000", "170512.515000", "170514.005000", "170515.495000", "170516.985000", "170518.475000", "170519.965000", "170521.455000", "170522.945000", "170524.435000", "170525.925000", "170527.415000", "170528.905000", "170530.395000", "170531.885000", "170533.375000", "170534.865000", "170536.355000", "170537.845000", "170539.335000", "170540.825000", "170542.315000", "170543.805000", "170545.295000", "170546.785000", "170548.275000", "170549.765000", "170551.255000", "170552.745000", "170554.235000", "170555.725000", "170557.215000", "170558.705000", "170600.195000", "170601.685000", "170603.175000", "170604.665000", "170606.155000", "170607.645000", "170609.135000", "170610.625000", "170612.115000", "170613.605000", "170615.095000", "170616.585000", "170618.075000", "170619.565000", "170621.055000", "170622.545000", "170624.035000", "170625.525000", "170627.015000", "170628.505000", "170629.995000", "170631.485000", "170632.975000", "170634.465000", "170635.955000", "170637.445000", "170638.935000", "170640.425000", "170641.915000", "170643.405000", "170644.895000", "170646.385000", "170647.875000", "170649.365000", "170650.855000", "170652.345000", "170653.835000", "170655.325000", "170656.815000", "170658.305000", "170659.795000", "170701.285000", "170702.775000", "170704.265000", "170705.755000", "170707.245000", "170708.735000", "170710.225000", "170711.715000", "170713.205000", "170714.695000", "170716.185000", "170717.675000", "170719.165000", "170720.655000", "170722.145000", "170723.635000", "170725.125000", "170726.615000", "170728.105000", "170729.595000", "170731.085000", "170732.575000", "170734.065000", "170735.555000", "170737.045000", "170738.535000", "170740.025000", "170741.515000", "170743.005000", "170744.495000", "170745.985000", "170747.475000", "170748.965000", "170750.455000", "170751.945000", "170753.435000", "170754.925000", "170756.415000", "170757.905000", "170759.395000", "170800.885000", "170802.375000", "170803.865000", "170805.355000", "170806.845000", "170808.335000", "170809.825000", "170811.315000", "170812.805000", "170814.295000", "170815.785000", "170817.275000"],
      "ContentTime": ["165715.219000", "165715.223000", "165715.225000", "165715.228000", "165715.231000", "165715.239000", "165715.242000", "165715.245000", "165715.248000", "165715.251000", "165715.254000", "165715.257000", "165715.260000", "165715.263000", "165715.265000", "165715.268000", "165715.271000", "165715.274000", "165715.277000", "165715.286000", "165715.289000", "165715.292000", "165715.298000", "165715.301000", "165715.304000", "165715.307000", "165715.310000", "165715.313000", "165715.316000", "165715.319000", "165715.322000", "165715.325000", "165735.185000", "165735.188000", "165735.191000", "165735.194000", "165735.196000", "165735.200000", "165735.203000", "165735.205000", "165735.211000", "165735.214000", "165735.217000", "165735.220000", "165735.222000", "165735.225000", "165735.228000", "165735.231000", "165735.234000", "165735.237000", "165735.240000", "165735.242000", "165755.185000", "165755.188000", "165755.191000", "165755.194000", "165755.197000", "165755.199000", "165755.202000", "165755.205000", "165755.208000", "165755.211000", "165755.214000", "165755.217000", "165755.220000", "165755.223000", "165755.226000", "165755.229000", "165755.232000", "165755.234000", "165755.237000", "165755.244000", "165815.185000", "165815.188000", "165815.191000", "165815.194000", "165815.197000", "165815.200000", "165815.202000", "165815.205000", "165815.208000", "165815.211000", "165815.214000", "165815.217000", "165815.220000", "165815.223000", "165815.226000", "165815.228000", "165815.231000", "165815.234000", "165815.237000", "165815.240000", "165835.185000", "165835.188000", "165835.191000", "165835.194000", "165835.197000", "165835.200000", "165835.202000", "165835.205000", "165835.208000", "165835.211000", "165835.214000", "165835.217000", "165835.220000", "165835.223000", "165835.226000", "165835.229000", "165835.231000", "165835.235000", "165835.238000", "165835.241000", "165915.185000", "165915.188000", "165915.191000", "165915.194000", "165915.197000", "165915.200000", "165915.203000", "165915.206000", "165915.209000", "165915.211000", "165915.214000", "165915.217000", "165915.220000", "165915.223000", "165915.226000", "165915.229000", "165915.232000", "165915.235000", "165915.238000", "165915.240000", "165915.243000", "165915.246000", "165915.249000", "165915.252000", "165915.255000", "165915.258000", "165915.261000", "165955.185000", "165955.188000", "165955.191000", "165955.194000", "165955.197000", "165955.200000", "165955.203000", "165955.206000", "165955.209000", "165955.212000", "165955.215000", "165955.218000", "165955.221000", "165955.225000", "165955.227000", "165955.230000", "165955.233000", "165955.236000", "165955.239000", "165955.242000", "165955.245000", "165955.262000", "165955.265000", "165955.268000", "165955.271000", "165955.274000", "165955.277000", "170035.185000", "170035.188000", "170035.191000", "170035.194000", "170035.197000", "170035.200000", "170035.203000", "170035.206000", "170035.209000", "170035.211000", "170035.214000", "170035.217000", "170035.220000", "170035.223000", "170035.226000", "170035.229000", "170035.232000", "170035.235000", "170035.238000", "170035.241000", "170035.243000", "170035.246000", "170035.249000", "170035.252000", "170035.255000", "170035.258000", "170035.261000", "170115.185000", "170115.188000", "170115.191000", "170115.194000", "170115.197000", "170115.200000", "170115.203000", "170115.205000", "170115.208000", "170115.211000", "170115.214000", "170115.217000", "170115.220000", "170115.223000", "170115.226000", "170115.229000", "170115.232000", "170115.235000", "170115.237000", "170115.240000", "170115.243000", "170115.246000", "170115.249000", "170115.252000", "170115.255000", "170115.258000", "170115.261000", "170155.185000", "170155.188000", "170155.191000", "170155.194000", "170155.197000", "170155.200000", "170155.203000", "170155.206000", "170155.209000", "170155.212000", "170155.215000", "170155.217000", "170155.220000", "170155.223000", "170155.226000", "170155.229000", "170155.232000", "170155.235000", "170155.238000", "170155.241000", "170155.244000", "170155.247000", "170155.250000", "170155.252000", "170155.255000", "170155.258000", "170155.261000", "170215.185000", "170215.188000", "170215.191000", "170215.194000", "170215.197000", "170215.200000", "170215.203000", "170215.206000", "170215.209000", "170215.212000", "170215.214000", "170215.217000", "170215.220000", "170255.185000", "170255.188000", "170255.191000", "170255.194000", "170255.197000", "170255.200000", "170255.203000", "170255.206000", "170255.209000", "170255.212000", "170255.215000", "170255.218000", "170255.220000", "170255.223000", "170255.226000", "170255.229000", "170255.232000", "170255.235000", "170255.238000", "170255.241000", "170255.244000", "170255.247000", "170255.250000", "170255.252000", "170255.255000", "170255.258000", "170255.261000", "170335.185000", "170335.188000", "170335.191000", "170335.194000", "170335.197000", "170335.200000", "170335.203000", "170335.206000", "170335.209000", "170335.211000", "170335.214000", "170335.217000", "170335.220000", "170335.223000", "170335.226000", "170335.229000", "170335.232000", "170335.235000", "170335.238000", "170335.241000", "170335.244000", "170335.247000", "170335.249000", "170335.252000", "170335.255000", "170335.258000", "170335.261000", "170415.185000", "170415.188000", "170415.191000", "170415.194000", "170415.197000", "170415.200000", "170415.203000", "170415.206000", "170415.208000", "170415.211000", "170415.214000", "170415.217000", "170415.220000", "170415.223000", "170415.226000", "170415.229000", "170415.232000", "170415.235000", "170415.238000", "170415.241000", "170415.243000", "170415.247000", "170415.249000", "170415.252000", "170415.255000", "170415.258000", "170415.261000", "170455.185000", "170455.188000", "170455.191000", "170455.194000", "170455.197000", "170455.200000", "170455.203000", "170455.217000", "170455.220000", "170455.223000", "170455.226000", "170455.229000", "170455.232000", "170455.235000", "170455.238000", "170455.241000", "170455.244000", "170455.247000", "170455.250000", "170455.253000", "170455.256000", "170455.259000", "170455.262000", "170455.265000", "170455.268000", "170455.271000", "170535.185000", "170535.188000", "170535.191000", "170535.194000", "170535.197000", "170535.200000", "170535.203000", "170535.206000", "170535.208000", "170535.211000", "170535.214000", "170535.217000", "170535.220000", "170535.223000", "170535.226000", "170535.229000", "170535.232000", "170535.235000", "170535.238000", "170535.240000", "170535.243000", "170535.246000", "170535.249000", "170535.252000", "170535.255000", "170535.258000", "170535.261000", "170615.185000", "170615.188000", "170615.191000", "170615.194000", "170615.197000", "170615.200000", "170615.203000", "170615.206000", "170615.209000", "170615.212000", "170615.215000", "170615.218000", "170615.221000", "170615.224000", "170615.227000", "170615.230000", "170615.233000", "170615.235000", "170615.238000", "170615.241000", "170615.244000", "170615.247000", "170615.250000", "170615.253000", "170615.256000", "170615.259000", "170615.262000", "170655.185000", "170655.188000", "170655.191000", "170655.194000", "170655.197000", "170655.200000", "170655.203000", "170655.206000", "170655.209000", "170655.212000", "170655.214000", "170655.217000", "170655.220000", "170655.223000", "170655.226000", "170655.229000", "170655.232000", "170655.235000", "170655.238000", "170655.241000", "170655.244000", "170655.247000", "170655.250000", "170655.253000", "170655.256000", "170655.258000", "170655.261000", "170735.185000", "170735.188000", "170735.191000", "170735.194000", "170735.197000", "170735.200000", "170735.203000", "170735.206000", "170735.209000", "170735.212000", "170735.215000", "170735.217000", "170735.220000", "170735.223000", "170735.226000", "170735.229000", "170735.232000", "170735.235000", "170735.238000", "170735.241000", "170735.244000", "170735.247000", "170735.250000", "170735.253000", "170735.255000", "170735.258000", "170735.261000", "170815.185000", "170815.188000", "170815.191000", "170815.194000", "170815.197000", "170815.200000", "170815.203000", "170815.206000", "170815.209000", "170815.212000", "170815.215000", "170815.217000", "170815.220000", "170815.223000", "170815.226000", "170815.229000", "170815.232000", "170815.235000", "170815.238000", "170815.241000", "170815.244000", "170815.247000", "170815.249000", "170815.252000", "170815.255000", "170815.258000", "170815.261000", "170819.478000", "170819.481000", "170819.484000"],
