{
  "AcquisitionMatrixPE": 104,
  "AcquisitionNumber": 1,
  "AcquisitionTime": "16:50:0.650000",
  "BandwidthPerPixelPhaseEncode": 17.17,
  "BaseResolution": 104,
  "BodyPartExamined": "BRAIN",
  "CoilString": "HC1-7;NC1_2",
  "ConsistencyInfo": "N4_VE11C_LATEST_20160120",
  "ConversionSoftware": "dcm2niix",
  "ConversionSoftwareVersion": "v1.0.20200427",
  "DerivedVendorReportedEchoSpacing": 0.000560011,
  "DeviceSerialNumber": "167006",
  "DwellTime": 2.1e-06,
  "EchoTime": 0.037,
  "EchoTrainLength": 104,
  "EffectiveEchoSpacing": 0.000560011,
  "FlipAngle": 52,
  "ImageComments": "Unaliased_MB4_PE3_LB",
  "ImageOrientationPatientDICOM": [0.998509, -0.0543299, 0.00529602, 0.0528539, 0.937982, -0.342633],
  "ImageType": [
    "ORIGINAL",
    "PRIMARY",
    "M",
    "MB",
    "ND",
    "MOSAIC"
],
  "ImagingFrequency": 123.259,
  "InPlanePhaseEncodingDirectionDICOM": "COL",
  "InstitutionAddress": "Chemin_Queen-Mary_4565_Montreal_District_CA_H3W_1W5",
  "InstitutionName": "IUGM",
  "InstitutionalDepartmentName": "Department",
  "MRAcquisitionType": "2D",
  "MagneticFieldStrength": 3,
  "Manufacturer": "Siemens",
  "ManufacturersModelName": "Prisma_fit",
  "Modality": "MR",
  "MultibandAccelerationFactor": 4,
  "PartialFourier": 1,
  "PatientPosition": "HFS",
  "PercentPhaseFOV": 100,
  "PercentSampling": 100,
  "PhaseEncodingDirection": "j",
  "PhaseEncodingSteps": 104,
  "PhaseResolution": 1,
  "PixelBandwidth": 2290,
  "ProcedureStepDescription": "video_friends",
  "ProtocolName": "func_task-friends-s03e09b",
  "PulseSequenceDetails": "%CustomerSeq%_cmrr_mbep2d_bold",
  "ReceiveCoilActiveElements": "HC1-7;NC1,2",
  "ReceiveCoilName": "HeadNeck_64",
  "ReconMatrixPE": 104,
  "RepetitionTime": 1.49,
  "SAR": 0.031473,
  "ScanOptions": "FS",
  "ScanningSequence": "EP",
  "SequenceName": "epfid2d1_104",
  "SequenceVariant": "SK_SS",
  "SeriesDescription": "func_task-friends-s03e09b",
  "SeriesNumber": 15,
  "ShimSetting": [630, -7268, -8823, 594, 8, -231, -71, -16],
  "SliceThickness": 2,
  "SliceTiming": [0, 0.785, 0.1, 0.8825, 0.1975, 0.98, 0.295, 1.08, 0.3925, 1.1775, 0.49, 1.275, 0.59, 1.3725, 0.6875, 0, 0.785, 0.1, 0.8825, 0.1975, 0.98, 0.295, 1.08, 0.3925, 1.1775, 0.49, 1.275, 0.59, 1.3725, 0.6875, 0, 0.785, 0.1, 0.8825, 0.1975, 0.98, 0.295, 1.08, 0.3925, 1.1775, 0.49, 1.275, 0.59, 1.3725, 0.6875, 0, 0.785, 0.1, 0.8825, 0.1975, 0.98, 0.295, 1.08, 0.3925, 1.1775, 0.49, 1.275, 0.59, 1.3725, 0.6875],
  "SoftwareVersions": "syngo_MR_E11",
  "SpacingBetweenSlices": 2,
  "StationName": "MRC35049",
  "TaskName": "s03e09b",
  "TotalReadoutTime": 0.0576811,
  "TxRefAmp": 219.841,
  "WipMemBlock": "9785e6bc-d275-409c-890f-42cd7120998c||Sequence: R016 ve11c/master r/e634e98; Dec 19 2017 11:00:25 by eja",
  "dcmmeta_affine": [
    [-1.9970179796218872, 0.10570770502090454, -0.027295256033539772, 97.38463592529297],
    [0.10865982621908188, 1.8759630918502808, -0.6848033666610718, -78.22563171386719],
    [0.010592048987746239, 0.6852652430534363, 1.8789091110229492, -64.18761444091797],
    [0.0, 0.0, 0.0, 1.0]
],
  "dcmmeta_reorient_transform": [
    [0.0, -1.0, 0.0, 103.0],
    [1.0, 0.0, 0.0, 0.0],
    [0.0, 0.0, 1.0, 0.0],
    [0.0, 0.0, 0.0, 1.0]
],
  "dcmmeta_shape": [104, 104, 60, 493],
  "dcmmeta_slice_dim": 2,
  "dcmmeta_version": 0.6,
  "global": {
    "const": {
      "AcquisitionMatrix": [104, 0, 0, 104],
      "AngioFlag": "N",
      "BitsAllocated": 16,
      "BitsStored": 16,
      "BodyPartExamined": "BRAIN",
      "Columns": 832,
      "EchoNumbers": 1,
      "EchoTime": 37.0,
      "EchoTrainLength": 104,
      "FlipAngle": 52.0,
      "HighBit": 15,
      "ImageOrientationPatient": [0.9985089946897, -0.0543299148379, 0.00529602468594, 0.05285385301732, 0.93798153319243, -0.3426326219308],
      "ImagePositionPatient": [-873.66468031263, -758.29693950077, 251.97575163603],
      "ImageType": [
        "ORIGINAL",
        "PRIMARY",
        "M",
        "MB",
        "ND",
        "MOSAIC"
],
      "ImagedNucleus": "1H",
      "ImagingFrequency": 123.259389,
      "InPlanePhaseEncodingDirection": "COL",
      "MRAcquisitionType": "2D",
      "MagneticFieldStrength": 3.0,
      "Manufacturer": "SIEMENS",
      "ManufacturerModelName": "Prisma_fit",
      "Modality": "MR",
      "NumberOfAverages": 1.0,
      "NumberOfPhaseEncodingSteps": 104,
      "PercentPhaseFieldOfView": 100.0,
      "PercentSampling": 100.0,
      "PerformedProcedureStepStartTime": "154928.352000",
      "PhotometricInterpretation": "MONOCHROME2",
      "PixelBandwidth": 2290.0,
      "PixelRepresentation": 0,
      "PixelSpacing": [2.0, 2.0],
      "ProtocolName": "func_task-friends-s03e09b",
      "RepetitionTime": 1490.0,
      "Rows": 832,
      "SAR": 0.03147294937426,
      "SamplesPerPixel": 1,
      "ScanOptions": "FS",
      "ScanningSequence": "EP",
      "SequenceName": "epfid2d1_104",
      "SequenceVariant": [
        "SK",
        "SS"
],
      "SeriesDescription": "func_task-friends-s03e09b",
      "SeriesNumber": 15,
      "SeriesTime": "165109.711000",
      "SliceLocation": -34.845824351504,
      "SliceThickness": 2.0,
      "SmallestImagePixelValue": 0,
      "SoftwareVersions": "syngo MR E11",
      "SpacingBetweenSlices": 2.0000000665508,
      "SpecificCharacterSet": "ISO_IR 100",
      "StudyID": "1",
      "StudyTime": "154928.279000",
      "TransmitCoilName": "Body",
      "VariableFlipAngleFlag": "N",
      "WindowCenterWidthExplanation": "Algo1",
      "dBdt": 0.0},
    "slices": {}
  },
  "time": {
    "samples": {
      "AcquisitionNumber": [1, 2, 3, 4, 5, 6, 7, 8, 9, 10, 11, 12, 13, 14, 15, 16, 17, 18, 19, 20, 21, 22, 23, 24, 25, 26, 27, 28, 29, 30, 31, 32, 33, 34, 35, 36, 37, 38, 39, 40, 41, 42, 43, 44, 45, 46, 47, 48, 49, 50, 51, 52, 53, 54, 55, 56, 57, 58, 59, 60, 61, 62, 63, 64, 65, 66, 67, 68, 69, 70, 71, 72, 73, 74, 75, 76, 77, 78, 79, 80, 81, 82, 83, 84, 85, 86, 87, 88, 89, 90, 91, 92, 93, 94, 95, 96, 97, 98, 99, 100, 101, 102, 103, 104, 105, 106, 107, 108, 109, 110, 111, 112, 113, 114, 115, 116, 117, 118, 119, 120, 121, 122, 123, 124, 125, 126, 127, 128, 129, 130, 131, 132, 133, 134, 135, 136, 137, 138, 139, 140, 141, 142, 143, 144, 145, 146, 147, 148, 149, 150, 151, 152, 153, 154, 155, 156, 157, 158, 159, 160, 161, 162, 163, 164, 165, 166, 167, 168, 169, 170, 171, 172, 173, 174, 175, 176, 177, 178, 179, 180, 181, 182, 183, 184, 185, 186, 187, 188, 189, 190, 191, 192, 193, 194, 195, 196, 197, 198, 199, 200, 201, 202, 203, 204, 205, 206, 207, 208, 209, 210, 211, 212, 213, 214, 215, 216, 217, 218, 219, 220, 221, 222, 223, 224, 225, 226, 227, 228, 229, 230, 231, 232, 233, 234, 235, 236, 237, 238, 239, 240, 241, 242, 243, 244, 245, 246, 247, 248, 249, 250, 251, 252, 253, 254, 255, 256, 257, 258, 259, 260, 261, 262, 263, 264, 265, 266, 267, 268, 269, 270, 271, 272, 273, 274, 275, 276, 277, 278, 279, 280, 281, 282, 283, 284, 285, 286, 287, 288, 289, 290, 291, 292, 293, 294, 295, 296, 297, 298, 299, 300, 301, 302, 303, 304, 305, 306, 307, 308, 309, 310, 311, 312, 313, 314, 315, 316, 317, 318, 319, 320, 321, 322, 323, 324, 325, 326, 327, 328, 329, 330, 331, 332, 333, 334, 335, 336, 337, 338, 339, 340, 341, 342, 343, 344, 345, 346, 347, 348, 349, 350, 351, 352, 353, 354, 355, 356, 357, 358, 359, 360, 361, 362, 363, 364, 365, 366, 367, 368, 369, 370, 371, 372, 373, 374, 375, 376, 377, 378, 379, 380, 381, 382, 383, 384, 385, 386, 387, 388, 389, 390, 391, 392, 393, 394, 395, 396, 397, 398, 399, 400, 401, 402, 403, 404, 405, 406, 407, 408, 409, 410, 411, 412, 413, 414, 415, 416, 417, 418, 419, 420, 421, 422, 423, 424, 425, 426, 427, 428, 429, 430, 431, 432, 433, 434, 435, 436, 437, 438, 439, 440, 441, 442, 443, 444, 445, 446, 447, 448, 449, 450, 451, 452, 453, 454, 455, 456, 457, 458, 459, 460, 461, 462, 463, 464, 465, 466, 467, 468, 469, 470, 471, 472, 473, 474, 475, 476, 477, 478, 479, 480, 481, 482, 483, 484, 485, 486, 487, 488, 489, 490, 491, 492, 493],
      "AcquisitionTime": ["165000.650000", "165002.140000", "165003.630000", "165005.120000", "165006.610000", "165008.100000", "165009.590000", "165011.080000", "165012.570000", "165014.060000", "165015.550000", "165017.040000", "165018.530000", "165020.020000", "165021.510000", "165023.000000", "165024.490000", "165025.980000", "165027.470000", "165028.960000", "165030.450000", "165031.940000", "165033.430000", "165034.920000", "165036.410000", "165037.900000", "165039.390000", "165040.880000", "165042.370000", "165043.860000", "165045.350000", "165046.840000", "165048.330000", "165049.820000", "165051.310000", "165052.800000", "165054.290000", "165055.780000", "165057.270000", "165058.760000", "165100.250000", "165101.740000", "165103.230000", "165104.720000", "165106.210000", "165107.700000", "165109.190000", "165110.680000", "165112.170000", "165113.660000", "165115.150000", "165116.640000", "165118.130000", "165119.620000", "165121.110000", "165122.600000", "165124.090000", "165125.580000", "165127.070000", "165128.560000", "165130.050000", "165131.540000", "165133.030000", "165134.520000", "165136.010000", "165137.500000", "165138.990000", "165140.480000", "165141.970000", "165143.460000", "165144.950000", "165146.440000", "165147.930000", "165149.420000", "165150.910000", "165152.400000", "165153.890000", "165155.380000", "165156.870000", "165158.360000", "165159.850000", "165201.340000", "165202.830000", "165204.320000", "165205.810000", "165207.300000", "165208.790000", "165210.280000", "165211.770000", "165213.260000", "165214.750000", "165216.240000", "165217.730000", "165219.220000", "165220.710000", "165222.200000", "165223.690000", "165225.180000", "165226.670000", "165228.160000", "165229.650000", "165231.140000", "165232.630000", "165234.120000", "165235.610000", "165237.100000", "165238.590000", "165240.080000", "165241.570000", "165243.060000", "165244.550000", "165246.040000", "165247.530000", "165249.020000", "165250.510000", "165252.000000", "165253.490000", "165254.980000", "165256.470000", "165257.960000", "165259.450000", "165300.940000", "165302.430000", "165303.920000", "165305.410000", "165306.900000", "165308.390000", "165309.880000", "165311.370000", "165312.860000", "165314.350000", "165315.840000", "165317.330000", "165318.820000", "165320.310000", "165321.800000", "165323.290000", "165324.780000", "165326.270000", "165327.760000", "165329.250000", "165330.740000", "165332.230000", "165333.720000", "165335.210000", "165336.700000", "165338.190000", "165339.680000", "165341.170000", "165342.660000", "165344.150000", "165345.640000", "165347.130000", "165348.620000", "165350.110000", "165351.600000", "165353.090000", "165354.580000", "165356.070000", "165357.560000", "165359.050000", "165400.540000", "165402.030000", "165403.520000", "165405.010000", "165406.500000", "165407.990000", "165409.480000", "165410.970000", "165412.460000", "165413.950000", "165415.440000", "165416.930000", "165418.420000", "165419.910000", "165421.400000", "165422.890000", "165424.380000", "165425.870000", "165427.360000", "165428.850000", "165430.340000", "165431.830000", "165433.320000", "165434.810000", "165436.300000", "165437.790000", "165439.280000", "165440.770000", "165442.260000", "165443.750000", "165445.240000", "165446.730000", "165448.220000", "165449.710000", "165451.200000", "165452.690000", "165454.180000", "165455.670000", "165457.160000", "165458.650000", "165500.140000", "165501.630000", "165503.120000", "165504.610000", "165506.100000", "165507.590000", "165509.080000", "165510.570000", "165512.060000", "165513.550000", "165515.040000", "165516.530000", "165518.020000", "165519.510000", "165521.000000", "165522.490000", "165523.980000", "165525.470000", "165526.960000", "165528.450000", "165529.940000", "165531.430000", "165532.920000", "165534.410000", "165535.900000", "165537.390000", "165538.880000", "165540.370000", "165541.860000", "165543.350000", "165544.840000", "165546.330000", "165547.820000", "165549.310000", "165550.800000", "165552.290000", "165553.780000", "165555.270000", "165556.760000", "165558.250000", "165559.740000", "165601.230000", "165602.720000", "165604.210000", "165605.700000", "165607.190000", "165608.680000", "165610.170000", "165611.660000", "165613.150000", "165614.640000", "165616.130000", "165617.620000", "165619.110000", "165620.600000", "165622.090000", "165623.580000", "165625.070000", "165626.560000", "165628.050000", "165629.540000", "165631.030000", "165632.520000", "165634.010000", "165635.500000", "165636.990000", "165638.480000", "165639.970000", "165641.460000", "165642.950000", "165644.440000", "165645.930000", "165647.420000", "165648.910000", "165650.400000", "165651.890000", "165653.380000", "165654.870000", "165656.360000", "165657.850000", "165659.340000", "165700.830000", "165702.320000", "165703.810000", "165705.300000", "165706.790000", "165708.280000", "165709.770000", "165711.260000", "165712.750000", "165714.240000", "165715.730000", "165717.220000", "165718.710000", "165720.200000", "165721.690000", "165723.180000", "165724.670000", "165726.160000", "165727.650000", "165729.140000", "165730.630000", "165732.120000", "165733.610000", "165735.100000", "165736.590000", "165738.080000", "165739.570000", "165741.060000", "165742.550000", "165744.040000", "165745.530000", "165747.020000", "165748.510000", "165750.000000", "165751.490000", "165752.980000", "165754.470000", "165755.960000", "165757.450000", "165758.940000", "165800.430000", "165801.920000", "165803.410000", "165804.900000", "165806.390000", "165807.880000", "165809.370000", "165810.860000", "165812.350000", "165813.840000", "165815.330000", "165816.820000", "165818.310000", "165819.800000", "165821.290000", "165822.780000", "165824.270000", "165825.760000", "165827.250000", "165828.740000", "165830.230000", "165831.720000", "165833.210000", "165834.700000", "165836.190000", "165837.680000", "165839.170000", "165840.660000", "165842.150000", "165843.640000", "165845.130000", "165846.620000", "165848.110000", "165849.600000", "165851.090000", "165852.580000", "165854.070000", "165855.560000", "165857.050000", "165858.540000", "165900.030000", "165901.520000", "165903.010000", "165904.500000", "165905.990000", "165907.480000", "165908.970000", "165910.460000", "165911.950000", "165913.440000", "165914.930000", "165916.420000", "165917.910000", "165919.400000", "165920.890000", "165922.380000", "165923.870000", "165925.360000", "165926.850000", "165928.340000", "165929.830000", "165931.320000", "165932.810000", "165934.300000", "165935.790000", "165937.280000", "165938.770000", "165940.260000", "165941.750000", "165943.240000", "165944.730000", "165946.220000", "165947.710000", "165949.200000", "165950.690000", "165952.180000", "165953.670000", "165955.160000", "165956.650000", "165958.140000", "165959.630000", "170001.120000", "170002.610000", "170004.100000", "170005.590000", "170007.080000", "170008.570000", "170010.060000", "170011.550000", "170013.040000", "170014.530000", "170016.020000", "170017.510000", "170019.000000", "170020.490000", "170021.980000", "170023.470000", "170024.960000", "170026.450000", "170027.940000", "170029.430000", "170030.920000", "170032.410000", "170033.900000", "170035.390000", "170036.880000", "170038.370000", "170039.860000", "170041.350000", "170042.840000", "170044.330000", "170045.820000", "170047.310000", "170048.800000", "170050.290000", "170051.780000", "170053.270000", "170054.760000", "170056.250000", "170057.740000", "170059.230000", "170100.720000", "170102.210000", "170103.700000", "170105.190000", "170106.680000", "170108.170000", "170109.660000", "170111.150000", "170112.640000", "170114.130000", "170115.620000", "170117.110000", "170118.600000", "170120.090000", "170121.580000", "170123.070000", "170124.560000", "170126.050000", "170127.540000", "170129.030000", "170130.520000", "170132.010000", "170133.500000", "170134.990000", "170136.480000", "170137.970000", "170139.460000", "170140.950000", "170142.440000", "170143.930000", "170145.420000", "170146.910000", "170148.400000", "170149.890000", "170151.380000", "170152.870000", "170154.360000", "170155.850000", "170157.340000", "170158.830000", "170200.320000", "170201.810000", "170203.300000", "170204.790000", "170206.280000", "170207.770000", "170209.260000", "170210.750000", "170212.240000", "170213.730000"],
      "ContentTime": ["165109.714000", "165109.717000", "165109.720000", "165109.723000", "165109.726000", "165109.732000", "165109.735000", "165109.738000", "165109.741000", "165109.744000", "165109.747000", "165109.750000", "165129.681000", "165129.684000", "165129.687000", "165129.689000", "165129.692000", "165129.695000", "165129.698000", "165129.701000", "165129.710000", "165129.712000", "165129.715000", "165129.718000", "165129.721000", "165129.727000", "165129.730000", "165129.733000", "165129.736000", "165129.739000", "165129.741000", "165129.744000", "165129.747000", "165149.681000", "165149.684000", "165149.687000", "165149.690000", "165149.692000", "165149.695000", "165149.698000", "165149.701000", "165149.704000", "165149.707000", "165149.709000", "165149.712000", "165149.715000", "165149.718000", "165149.721000", "165149.724000", "165149.727000", "165149.729000", "165149.732000", "165149.735000", "165209.681000", "165209.684000", "165209.693000", "165209.696000", "165209.698000", "165209.701000", "165209.704000", "165209.707000", "165209.710000", "165209.713000", "165209.715000", "165209.718000", "165209.721000", "165209.724000", "165209.727000", "165209.730000", "165209.733000", "165209.736000", "165209.738000", "165209.741000", "165229.681000", "165229.684000", "165229.687000", "165229.690000", "165229.692000", "165229.695000", "165229.698000", "165229.701000", "165229.704000", "165229.707000", "165229.709000", "165229.723000", "165229.726000", "165229.728000", "165229.731000", "165229.734000", "165229.737000", "165229.740000", "165229.743000", "165229.759000", "165249.681000", "165249.684000", "165249.687000", "165249.690000", "165249.692000", "165249.696000", "165249.699000", "165249.702000", "165249.705000", "165249.708000", "165249.711000", "165249.714000", "165249.717000", "165249.719000", "165249.722000", "165249.725000", "165249.728000", "165249.731000", "165249.734000", "165249.737000", "165329.682000", "165329.685000", "165329.688000", "165329.691000", "165329.694000", "165329.696000", "165329.699000", "165329.702000", "165329.705000", "165329.708000", "165329.711000", "165329.714000", "165329.716000", "165329.720000", "165329.722000", "165329.725000", "165329.728000", "165329.731000", "165329.734000", "165329.736000", "165329.739000", "165329.746000", "165329.749000", "165329.752000", "165329.755000", "165329.758000", "165329.761000", "165409.681000", "165409.684000", "165409.686000", "165409.689000", "165409.701000", "165409.704000", "165409.707000", "165409.710000", "165409.713000", "165409.716000", "165409.718000", "165409.721000", "165409.724000", "165409.727000", "165409.730000", "165409.733000", "165409.736000", "165409.738000", "165409.741000", "165409.744000", "165409.747000", "165409.750000", "165409.753000", "165409.756000", "165409.759000", "165409.761000", "165409.764000", "165449.681000", "165449.684000", "165449.687000", "165449.690000", "165449.693000", "165449.696000", "165449.699000", "165449.701000", "165449.704000", "165449.707000", "165449.710000", "165449.713000", "165449.716000", "165449.719000", "165449.721000", "165449.724000", "165449.728000", "165449.731000", "165449.734000", "165449.737000", "165449.740000", "165449.743000", "165449.745000", "165449.748000", "165449.751000", "165449.754000", "165529.681000", "165529.684000", "165529.687000", "165529.690000", "165529.693000", "165529.696000", "165529.698000", "165529.701000", "165529.704000", "165529.707000", "165529.710000", "165529.713000", "165529.716000", "165529.719000", "165529.722000", "165529.724000", "165529.727000", "165529.730000", "165529.733000", "165529.736000", "165529.742000", "165529.745000", "165529.747000", "165529.750000", "165529.753000", "165529.756000", "165529.759000", "165609.681000", "165609.684000", "165609.687000", "165609.690000", "165609.693000", "165609.695000", "165609.698000", "165609.701000", "165609.704000", "165609.707000", "165609.710000", "165609.713000", "165609.716000", "165609.718000", "165609.721000", "165609.724000", "165609.727000", "165609.730000", "165609.733000", "165609.736000", "165609.739000", "165609.742000", "165609.744000", "165609.747000", "165609.750000", "165609.753000", "165609.756000", "165649.681000", "165649.684000", "165649.687000", "165649.690000", "165649.693000", "165649.695000", "165649.698000", "165649.701000", "165649.704000", "165649.707000", "165649.710000", "165649.713000", "165649.716000", "165649.719000", "165649.721000", "165649.724000", "165649.727000", "165649.730000", "165649.733000", "165649.736000", "165649.739000", "165649.742000", "165649.744000", "165649.747000", "165649.750000", "165649.753000", "165649.756000", "165729.681000", "165729.684000", "165729.687000", "165729.690000", "165729.693000", "165729.695000", "165729.698000", "165729.716000", "165729.719000", "165729.721000", "165729.724000", "165729.727000", "165729.730000", "165729.733000", "165729.736000", "165729.739000", "165729.742000", "165729.744000", "165729.748000", "165729.750000", "165729.753000", "165729.756000", "165729.759000", "165729.762000", "165729.765000", "165729.768000", "165729.771000", "165809.681000", "165809.684000", "165809.687000", "165809.690000", "165809.693000", "165809.696000", "165809.699000", "165809.701000", "165809.704000", "165809.707000", "165809.710000", "165809.713000", "165809.716000", "165809.719000", "165809.722000", "165809.724000", "165809.727000", "165809.730000", "165809.733000", "165809.736000", "165809.739000", "165809.742000", "165809.745000", "165809.747000", "165809.750000", "165809.753000", "165809.756000", "165849.681000", "165849.684000", "165849.687000", "165849.690000", "165849.693000", "165849.695000", "165849.698000", "165849.702000", "165849.704000", "165849.707000", "165849.710000", "165849.713000", "165849.716000", "165849.719000", "165849.722000", "165849.724000", "165849.727000", "165849.730000", "165849.733000", "165849.737000", "165849.741000", "165849.744000", "165849.747000", "165849.750000", "165849.753000", "165849.756000", "165929.681000", "165929.684000", "165929.687000", "165929.690000", "165929.693000", "165929.695000", "165929.698000", "165929.701000", "165929.704000", "165929.707000", "165929.710000", "165929.713000", "165929.716000", "165929.718000", "165929.721000", "165929.724000", "165929.727000", "165929.730000", "165929.733000", "165929.736000", "165929.738000", "165929.741000", "165929.744000", "165929.747000", "165929.750000", "165929.753000", "165929.756000", "165949.681000", "165949.684000", "165949.687000", "165949.690000", "165949.693000", "165949.696000", "165949.698000", "165949.701000", "165949.704000", "165949.707000", "165949.716000", "165949.719000", "165949.722000", "165949.725000", "170029.681000", "170029.684000", "170029.687000", "170029.690000", "170029.692000", "170029.695000", "170029.698000", "170029.701000", "170029.704000", "170029.707000", "170029.710000", "170029.719000", "170029.722000", "170029.725000", "170029.728000", "170029.731000", "170029.734000", "170029.737000", "170029.739000", "170029.742000", "170029.745000", "170029.748000", "170029.751000", "170029.754000", "170029.757000", "170029.759000", "170029.762000", "170109.681000", "170109.684000", "170109.687000", "170109.690000", "170109.693000", "170109.695000", "170109.698000", "170109.701000", "170109.704000", "170109.707000", "170109.710000", "170109.713000", "170109.716000", "170109.719000", "170109.722000", "170109.724000", "170109.728000", "170109.730000", "170109.733000", "170109.736000", "170109.739000", "170109.742000", "170109.745000", "170109.748000", "170109.750000", "170109.753000", "170149.681000", "170149.684000", "170149.687000", "170149.690000", "170149.693000", "170149.695000", "170149.698000", "170149.701000", "170149.704000", "170149.707000", "170149.710000", "170149.713000", "170149.716000", "170149.719000", "170149.722000", "170149.724000", "170149.727000", "170149.730000", "170149.733000", "170149.736000", "170149.739000", "170149.754000", "170149.757000", "170149.759000", "170149.762000", "170149.765000", "170149.768000", "170215.408000", "170215.411000", "170215.414000", "170215.417000", "170215.420000", "170215.423000", "170215.426000", "170215.429000", "170215.432000", "170215.435000", "170215.437000", "170215.440000", "170215.444000", "170215.447000", "170215.450000", "170215.452000", "170215.455000", "170215.458000"],
