{
  "AcquisitionMatrixPE": 104,
  "AcquisitionNumber": 1,
  "AcquisitionTime": "17:14:41.645000",
  "BandwidthPerPixelPhaseEncode": 17.17,
  "BaseResolution": 104,
  "BodyPartExamined": "BRAIN",
  "CoilString": "HC1-7;NC1_2",
  "ConsistencyInfo": "N4_VE11C_LATEST_20160120",
  "ConversionSoftware": "dcm2niix",
  "ConversionSoftwareVersion": "v1.0.20200427",
  "DerivedVendorReportedEchoSpacing": 0.000560011,
  "DeviceSerialNumber": "167006",
  "DwellTime": 2.1e-06,
  "EchoTime": 0.037,
  "EchoTrainLength": 104,
  "EffectiveEchoSpacing": 0.000560011,
  "FlipAngle": 52,
  "ImageComments": "Unaliased_MB4_PE3_LB",
  "ImageOrientationPatientDICOM": [0.998509, -0.0543299, 0.00529602, 0.0528539, 0.937982, -0.342633],
  "ImageType": [
    "ORIGINAL",
    "PRIMARY",
    "M",
    "MB",
    "ND",
    "MOSAIC"
],
  "ImagingFrequency": 123.259,
  "InPlanePhaseEncodingDirectionDICOM": "COL",
  "InstitutionAddress": "Chemin_Queen-Mary_4565_Montreal_District_CA_H3W_1W5",
  "InstitutionName": "IUGM",
  "InstitutionalDepartmentName": "Department",
  "MRAcquisitionType": "2D",
  "MagneticFieldStrength": 3,
  "Manufacturer": "Siemens",
  "ManufacturersModelName": "Prisma_fit",
  "Modality": "MR",
  "MultibandAccelerationFactor": 4,
  "PartialFourier": 1,
  "PatientPosition": "HFS",
  "PercentPhaseFOV": 100,
  "PercentSampling": 100,
  "PhaseEncodingDirection": "j",
  "PhaseEncodingSteps": 104,
  "PhaseResolution": 1,
  "PixelBandwidth": 2290,
  "ProcedureStepDescription": "video_friends",
  "ProtocolName": "func_task-friends-s03e10b",
  "PulseSequenceDetails": "%CustomerSeq%_cmrr_mbep2d_bold",
  "ReceiveCoilActiveElements": "HC1-7;NC1,2",
  "ReceiveCoilName": "HeadNeck_64",
  "ReconMatrixPE": 104,
  "RepetitionTime": 1.49,
  "SAR": 0.0314612,
  "ScanOptions": "FS",
  "ScanningSequence": "EP",
  "SequenceName": "epfid2d1_104",
  "SequenceVariant": "SK_SS",
  "SeriesDescription": "func_task-friends-s03e10b",
  "SeriesNumber": 19,
  "ShimSetting": [630, -7268, -8823, 594, 8, -231, -71, -16],
  "SliceThickness": 2,
  "SliceTiming": [0, 0.785, 0.0975, 0.8825, 0.1975, 0.98, 0.295, 1.0775, 0.3925, 1.175, 0.49, 1.275, 0.5875, 1.3725, 0.685, 0, 0.785, 0.0975, 0.8825, 0.1975, 0.98, 0.295, 1.0775, 0.3925, 1.175, 0.49, 1.275, 0.5875, 1.3725, 0.685, 0, 0.785, 0.0975, 0.8825, 0.1975, 0.98, 0.295, 1.0775, 0.3925, 1.175, 0.49, 1.275, 0.5875, 1.3725, 0.685, 0, 0.785, 0.0975, 0.8825, 0.1975, 0.98, 0.295, 1.0775, 0.3925, 1.175, 0.49, 1.275, 0.5875, 1.3725, 0.685],
  "SoftwareVersions": "syngo_MR_E11",
  "SpacingBetweenSlices": 2,
  "StationName": "MRC35049",
  "TaskName": "s03e10b",
  "TotalReadoutTime": 0.0576811,
  "TxRefAmp": 219.841,
  "WipMemBlock": "89ada96d-b883-4fef-8584-de9e0f0a7e8a||Sequence: R016 ve11c/master r/e634e98; Dec 19 2017 11:00:25 by eja",
  "dcmmeta_affine": [
    [-1.9970179796218872, 0.10570770502090454, -0.027295256033539772, 97.38463592529297],
    [0.10865982621908188, 1.8759630918502808, -0.6848033666610718, -78.22563171386719],
    [0.010592048987746239, 0.6852652430534363, 1.8789091110229492, -64.18761444091797],
    [0.0, 0.0, 0.0, 1.0]
],
  "dcmmeta_reorient_transform": [
    [0.0, -1.0, 0.0, 103.0],
    [1.0, 0.0, 0.0, 0.0],
    [0.0, 0.0, 1.0, 0.0],
    [0.0, 0.0, 0.0, 1.0]
],
  "dcmmeta_shape": [104, 104, 60, 451],
  "dcmmeta_slice_dim": 2,
  "dcmmeta_version": 0.6,
  "global": {
    "const": {
      "AcquisitionMatrix": [104, 0, 0, 104],
      "AngioFlag": "N",
      "BitsAllocated": 16,
      "BitsStored": 16,
      "BodyPartExamined": "BRAIN",
      "Columns": 832,
      "EchoNumbers": 1,
      "EchoTime": 37.0,
      "EchoTrainLength": 104,
      "FlipAngle": 52.0,
      "HighBit": 15,
      "ImageOrientationPatient": [0.9985089946897, -0.0543299148379, 0.00529602468594, 0.05285385301732, 0.93798153319243, -0.3426326219308],
      "ImagePositionPatient": [-873.66468031263, -758.29693950077, 251.97575163603],
      "ImageType": [
        "ORIGINAL",
        "PRIMARY",
        "M",
        "MB",
        "ND",
        "MOSAIC"
],
      "ImagedNucleus": "1H",
      "ImagingFrequency": 123.25939,
      "InPlanePhaseEncodingDirection": "COL",
      "MRAcquisitionType": "2D",
      "MagneticFieldStrength": 3.0,
      "Manufacturer": "SIEMENS",
      "ManufacturerModelName": "Prisma_fit",
      "Modality": "MR",
      "NumberOfAverages": 1.0,
      "NumberOfPhaseEncodingSteps": 104,
      "PercentPhaseFieldOfView": 100.0,
      "PercentSampling": 100.0,
      "PerformedProcedureStepStartTime": "154928.352000",
      "PhotometricInterpretation": "MONOCHROME2",
      "PixelBandwidth": 2290.0,
      "PixelRepresentation": 0,
      "PixelSpacing": [2.0, 2.0],
      "ProtocolName": "func_task-friends-s03e10b",
      "RepetitionTime": 1490.0,
      "Rows": 832,
      "SAR": 0.03146120951926,
      "SamplesPerPixel": 1,
      "ScanOptions": "FS",
      "ScanningSequence": "EP",
      "SequenceName": "epfid2d1_104",
      "SequenceVariant": [
        "SK",
        "SS"
],
      "SeriesDescription": "func_task-friends-s03e10b",
      "SeriesNumber": 19,
      "SeriesTime": "171603.462000",
      "SliceLocation": -34.845824351504,
      "SliceThickness": 2.0,
      "SmallestImagePixelValue": 0,
      "SoftwareVersions": "syngo MR E11",
      "SpacingBetweenSlices": 2.0000000665508,
      "SpecificCharacterSet": "ISO_IR 100",
      "StudyID": "1",
      "StudyTime": "154928.279000",
      "TransmitCoilName": "Body",
      "VariableFlipAngleFlag": "N",
      "WindowCenterWidthExplanation": "Algo1",
      "dBdt": 0.0},
    "slices": {}
  },
  "time": {
    "samples": {
      "AcquisitionNumber": [1, 2, 3, 4, 5, 6, 7, 8, 9, 10, 11, 12, 13, 14, 15, 16, 17, 18, 19, 20, 21, 22, 23, 24, 25, 26, 27, 28, 29, 30, 31, 32, 33, 34, 35, 36, 37, 38, 39, 40, 41, 42, 43, 44, 45, 46, 47, 48, 49, 50, 51, 52, 53, 54, 55, 56, 57, 58, 59, 60, 61, 62, 63, 64, 65, 66, 67, 68, 69, 70, 71, 72, 73, 74, 75, 76, 77, 78, 79, 80, 81, 82, 83, 84, 85, 86, 87, 88, 89, 90, 91, 92, 93, 94, 95, 96, 97, 98, 99, 100, 101, 102, 103, 104, 105, 106, 107, 108, 109, 110, 111, 112, 113, 114, 115, 116, 117, 118, 119, 120, 121, 122, 123, 124, 125, 126, 127, 128, 129, 130, 131, 132, 133, 134, 135, 136, 137, 138, 139, 140, 141, 142, 143, 144, 145, 146, 147, 148, 149, 150, 151, 152, 153, 154, 155, 156, 157, 158, 159, 160, 161, 162, 163, 164, 165, 166, 167, 168, 169, 170, 171, 172, 173, 174, 175, 176, 177, 178, 179, 180, 181, 182, 183, 184, 185, 186, 187, 188, 189, 190, 191, 192, 193, 194, 195, 196, 197, 198, 199, 200, 201, 202, 203, 204, 205, 206, 207, 208, 209, 210, 211, 212, 213, 214, 215, 216, 217, 218, 219, 220, 221, 222, 223, 224, 225, 226, 227, 228, 229, 230, 231, 232, 233, 234, 235, 236, 237, 238, 239, 240, 241, 242, 243, 244, 245, 246, 247, 248, 249, 250, 251, 252, 253, 254, 255, 256, 257, 258, 259, 260, 261, 262, 263, 264, 265, 266, 267, 268, 269, 270, 271, 272, 273, 274, 275, 276, 277, 278, 279, 280, 281, 282, 283, 284, 285, 286, 287, 288, 289, 290, 291, 292, 293, 294, 295, 296, 297, 298, 299, 300, 301, 302, 303, 304, 305, 306, 307, 308, 309, 310, 311, 312, 313, 314, 315, 316, 317, 318, 319, 320, 321, 322, 323, 324, 325, 326, 327, 328, 329, 330, 331, 332, 333, 334, 335, 336, 337, 338, 339, 340, 341, 342, 343, 344, 345, 346, 347, 348, 349, 350, 351, 352, 353, 354, 355, 356, 357, 358, 359, 360, 361, 362, 363, 364, 365, 366, 367, 368, 369, 370, 371, 372, 373, 374, 375, 376, 377, 378, 379, 380, 381, 382, 383, 384, 385, 386, 387, 388, 389, 390, 391, 392, 393, 394, 395, 396, 397, 398, 399, 400, 401, 402, 403, 404, 405, 406, 407, 408, 409, 410, 411, 412, 413, 414, 415, 416, 417, 418, 419, 420, 421, 422, 423, 424, 425, 426, 427, 428, 429, 430, 431, 432, 433, 434, 435, 436, 437, 438, 439, 440, 441, 442, 443, 444, 445, 446, 447, 448, 449, 450, 451],
      "AcquisitionTime": ["171441.645000", "171443.135000", "171444.625000", "171446.115000", "171447.605000", "171449.095000", "171450.585000", "171452.075000", "171453.565000", "171455.055000", "171456.545000", "171458.035000", "171459.525000", "171501.015000", "171502.505000", "171503.995000", "171505.485000", "171506.975000", "171508.465000", "171509.955000", "171511.445000", "171512.935000", "171514.425000", "171515.915000", "171517.405000", "171518.895000", "171520.385000", "171521.875000", "171523.365000", "171524.855000", "171526.345000", "171527.835000", "171529.325000", "171530.815000", "171532.305000", "171533.795000", "171535.285000", "171536.775000", "171538.265000", "171539.755000", "171541.245000", "171542.735000", "171544.225000", "171545.715000", "171547.205000", "171548.695000", "171550.185000", "171551.675000", "171553.165000", "171554.655000", "171556.145000", "171557.635000", "171559.125000", "171600.615000", "171602.105000", "171603.595000", "171605.085000", "171606.575000", "171608.065000", "171609.555000", "171611.045000", "171612.535000", "171614.025000", "171615.515000", "171617.005000", "171618.495000", "171619.985000", "171621.475000", "171622.965000", "171624.455000", "171625.945000", "171627.435000", "171628.925000", "171630.415000", "171631.905000", "171633.395000", "171634.885000", "171636.375000", "171637.865000", "171639.355000", "171640.845000", "171642.335000", "171643.825000", "171645.315000", "171646.805000", "171648.295000", "171649.785000", "171651.275000", "171652.765000", "171654.255000", "171655.745000", "171657.235000", "171658.725000", "171700.215000", "171701.705000", "171703.195000", "171704.685000", "171706.175000", "171707.665000", "171709.155000", "171710.645000", "171712.135000", "171713.625000", "171715.115000", "171716.605000", "171718.095000", "171719.585000", "171721.075000", "171722.565000", "171724.055000", "171725.545000", "171727.035000", "171728.525000", "171730.015000", "171731.505000", "171732.995000", "171734.485000", "171735.975000", "171737.465000", "171738.955000", "171740.445000", "171741.935000", "171743.425000", "171744.915000", "171746.405000", "171747.895000", "171749.385000", "171750.875000", "171752.365000", "171753.855000", "171755.345000", "171756.835000", "171758.325000", "171759.815000", "171801.305000", "171802.795000", "171804.285000", "171805.775000", "171807.265000", "171808.755000", "171810.245000", "171811.735000", "171813.225000", "171814.715000", "171816.205000", "171817.695000", "171819.185000", "171820.675000", "171822.165000", "171823.655000", "171825.145000", "171826.635000", "171828.125000", "171829.615000", "171831.105000", "171832.595000", "171834.085000", "171835.575000", "171837.065000", "171838.555000", "171840.045000", "171841.535000", "171843.025000", "171844.515000", "171846.005000", "171847.495000", "171848.985000", "171850.475000", "171851.965000", "171853.455000", "171854.945000", "171856.435000", "171857.925000", "171859.415000", "171900.905000", "171902.395000", "171903.885000", "171905.375000", "171906.865000", "171908.355000", "171909.845000", "171911.335000", "171912.825000", "171914.315000", "171915.805000", "171917.295000", "171918.785000", "171920.275000", "171921.765000", "171923.255000", "171924.745000", "171926.235000", "171927.725000", "171929.215000", "171930.705000", "171932.195000", "171933.685000", "171935.175000", "171936.665000", "171938.155000", "171939.645000", "171941.135000", "171942.625000", "171944.115000", "171945.605000", "171947.095000", "171948.585000", "171950.075000", "171951.565000", "171953.055000", "171954.545000", "171956.035000", "171957.525000", "171959.015000", "172000.505000", "172001.995000", "172003.485000", "172004.975000", "172006.465000", "172007.955000", "172009.445000", "172010.935000", "172012.425000", "172013.915000", "172015.405000", "172016.895000", "172018.385000", "172019.875000", "172021.365000", "172022.855000", "172024.345000", "172025.835000", "172027.325000", "172028.815000", "172030.305000", "172031.795000", "172033.285000", "172034.775000", "172036.265000", "172037.755000", "172039.245000", "172040.735000", "172042.225000", "172043.715000", "172045.205000", "172046.695000", "172048.185000", "172049.675000", "172051.165000", "172052.655000", "172054.145000", "172055.635000", "172057.125000", "172058.615000", "172100.105000", "172101.595000", "172103.085000", "172104.575000", "172106.065000", "172107.555000", "172109.045000", "172110.535000", "172112.025000", "172113.515000", "172115.005000", "172116.495000", "172117.985000", "172119.475000", "172120.965000", "172122.455000", "172123.945000", "172125.435000", "172126.925000", "172128.415000", "172129.905000", "172131.395000", "172132.885000", "172134.375000", "172135.865000", "172137.355000", "172138.845000", "172140.335000", "172141.825000", "172143.315000", "172144.805000", "172146.295000", "172147.785000", "172149.275000", "172150.765000", "172152.255000", "172153.745000", "172155.235000", "172156.725000", "172158.215000", "172159.705000", "172201.195000", "172202.685000", "172204.175000", "172205.665000", "172207.155000", "172208.645000", "172210.135000", "172211.625000", "172213.115000", "172214.605000", "172216.095000", "172217.585000", "172219.075000", "172220.565000", "172222.055000", "172223.545000", "172225.035000", "172226.525000", "172228.015000", "172229.505000", "172230.995000", "172232.485000", "172233.975000", "172235.465000", "172236.955000", "172238.445000", "172239.935000", "172241.425000", "172242.915000", "172244.405000", "172245.895000", "172247.385000", "172248.875000", "172250.365000", "172251.855000", "172253.345000", "172254.835000", "172256.325000", "172257.815000", "172259.305000", "172300.795000", "172302.285000", "172303.775000", "172305.265000", "172306.755000", "172308.245000", "172309.735000", "172311.225000", "172312.715000", "172314.205000", "172315.695000", "172317.185000", "172318.675000", "172320.165000", "172321.655000", "172323.145000", "172324.635000", "172326.125000", "172327.615000", "172329.105000", "172330.595000", "172332.085000", "172333.575000", "172335.065000", "172336.555000", "172338.045000", "172339.535000", "172341.025000", "172342.515000", "172344.005000", "172345.495000", "172346.985000", "172348.475000", "172349.965000", "172351.455000", "172352.945000", "172354.435000", "172355.925000", "172357.415000", "172358.905000", "172400.395000", "172401.885000", "172403.375000", "172404.865000", "172406.355000", "172407.845000", "172409.335000", "172410.825000", "172412.315000", "172413.805000", "172415.295000", "172416.785000", "172418.275000", "172419.765000", "172421.255000", "172422.745000", "172424.235000", "172425.725000", "172427.215000", "172428.705000", "172430.195000", "172431.685000", "172433.175000", "172434.665000", "172436.155000", "172437.645000", "172439.135000", "172440.625000", "172442.115000", "172443.605000", "172445.095000", "172446.585000", "172448.075000", "172449.565000", "172451.055000", "172452.545000", "172454.035000", "172455.525000", "172457.015000", "172458.505000", "172459.995000", "172501.485000", "172502.975000", "172504.465000", "172505.955000", "172507.445000", "172508.935000", "172510.425000", "172511.915000", "172513.405000", "172514.895000", "172516.385000", "172517.875000", "172519.365000", "172520.855000", "172522.345000", "172523.835000", "172525.325000", "172526.815000", "172528.305000", "172529.795000", "172531.285000", "172532.775000", "172534.265000", "172535.755000", "172537.245000", "172538.735000", "172540.225000", "172541.715000", "172543.205000", "172544.695000", "172546.185000", "172547.675000", "172549.165000", "172550.655000", "172552.145000"],
      "ContentTime": ["171603.465000", "171603.468000", "171603.478000", "171603.481000", "171603.484000", "171603.487000", "171603.490000", "171603.492000", "171603.495000", "171603.498000", "171603.501000", "171603.504000", "171603.507000", "171603.510000", "171603.512000", "171603.515000", "171603.518000", "171603.521000", "171603.524000", "171603.526000", "171603.529000", "171603.532000", "171603.535000", "171603.538000", "171603.541000", "171603.544000", "171603.547000", "171623.434000", "171623.437000", "171623.440000", "171623.443000", "171623.445000", "171623.448000", "171623.451000", "171623.454000", "171623.457000", "171623.460000", "171623.463000", "171623.466000", "171623.469000", "171623.472000", "171623.475000", "171623.477000", "171623.480000", "171623.483000", "171623.486000", "171623.489000", "171643.434000", "171643.437000", "171643.440000", "171643.443000", "171643.445000", "171643.448000", "171643.451000", "171643.454000", "171643.457000", "171643.460000", "171643.463000", "171643.465000", "171643.472000", "171643.475000", "171643.478000", "171643.481000", "171643.484000", "171643.486000", "171643.489000", "171643.492000", "171703.434000", "171703.437000", "171703.440000", "171703.449000", "171703.452000", "171703.455000", "171703.458000", "171703.461000", "171703.464000", "171703.467000", "171703.470000", "171703.473000", "171703.476000", "171703.478000", "171703.481000", "171703.484000", "171703.492000", "171703.495000", "171703.498000", "171703.501000", "171703.503000", "171723.435000", "171723.438000", "171723.441000", "171723.444000", "171723.447000", "171723.449000", "171723.452000", "171723.455000", "171723.458000", "171723.461000", "171723.464000", "171723.466000", "171723.469000", "171723.472000", "171723.475000", "171723.478000", "171723.481000", "171723.484000", "171723.487000", "171723.490000", "171803.434000", "171803.437000", "171803.440000", "171803.443000", "171803.446000", "171803.448000", "171803.451000", "171803.454000", "171803.457000", "171803.460000", "171803.463000", "171803.471000", "171803.474000", "171803.476000", "171803.479000", "171803.482000", "171803.485000", "171803.488000", "171803.491000", "171803.493000", "171803.496000", "171803.499000", "171803.502000", "171803.505000", "171803.508000", "171803.511000", "171803.514000", "171843.434000", "171843.437000", "171843.440000", "171843.443000", "171843.446000", "171843.448000", "171843.451000", "171843.454000", "171843.457000", "171843.460000", "171843.463000", "171843.466000", "171843.469000", "171843.471000", "171843.474000", "171843.477000", "171843.480000", "171843.483000", "171843.486000", "171843.489000", "171843.492000", "171843.495000", "171843.498000", "171843.501000", "171843.503000", "171843.506000", "171843.509000", "171923.434000", "171923.437000", "171923.440000", "171923.443000", "171923.446000", "171923.448000", "171923.451000", "171923.454000", "171923.464000", "171923.467000", "171923.469000", "171923.481000", "171923.484000", "171923.487000", "171923.490000", "171923.492000", "171923.495000", "171923.498000", "171923.501000", "171923.504000", "171923.507000", "171923.510000", "171923.513000", "171923.516000", "171923.519000", "171923.522000", "172003.434000", "172003.437000", "172003.440000", "172003.443000", "172003.446000", "172003.449000", "172003.451000", "172003.454000", "172003.457000", "172003.460000", "172003.463000", "172003.466000", "172003.469000", "172003.472000", "172003.474000", "172003.477000", "172003.480000", "172003.483000", "172003.486000", "172003.489000", "172003.492000", "172003.495000", "172003.497000", "172003.500000", "172003.503000", "172003.506000", "172003.509000", "172043.434000", "172043.437000", "172043.440000", "172043.443000", "172043.446000", "172043.448000", "172043.451000", "172043.454000", "172043.457000", "172043.460000", "172043.463000", "172043.466000", "172043.469000", "172043.472000", "172043.474000", "172043.477000", "172043.480000", "172043.483000", "172043.486000", "172043.489000", "172043.492000", "172043.495000", "172043.498000", "172043.501000", "172043.503000", "172043.506000", "172043.509000", "172123.434000", "172123.437000", "172123.440000", "172123.443000", "172123.446000", "172123.448000", "172123.451000", "172123.454000", "172123.457000", "172123.460000", "172123.463000", "172123.466000", "172123.469000", "172123.471000", "172123.474000", "172123.477000", "172123.480000", "172123.483000", "172123.486000", "172123.489000", "172123.491000", "172123.494000", "172123.497000", "172123.500000", "172123.503000", "172123.506000", "172123.509000", "172203.435000", "172203.438000", "172203.441000", "172203.444000", "172203.447000", "172203.450000", "172203.453000", "172203.455000", "172203.458000", "172203.461000", "172203.464000", "172203.467000", "172203.470000", "172203.473000", "172203.475000", "172203.478000", "172203.481000", "172203.484000", "172203.487000", "172203.490000", "172203.493000", "172203.496000", "172203.498000", "172203.501000", "172203.504000", "172203.507000", "172203.510000", "172243.434000", "172243.437000", "172243.440000", "172243.443000", "172243.446000", "172243.448000", "172243.451000", "172243.454000", "172243.457000", "172243.460000", "172243.463000", "172243.466000", "172243.469000", "172243.471000", "172243.474000", "172243.477000", "172243.480000", "172243.483000", "172243.486000", "172243.488000", "172243.491000", "172243.494000", "172243.497000", "172243.500000", "172243.503000", "172243.506000", "172243.509000", "172323.434000", "172323.437000", "172323.440000", "172323.443000", "172323.446000", "172323.449000", "172323.451000", "172323.455000", "172323.457000", "172323.460000", "172323.463000", "172323.466000", "172323.469000", "172323.472000", "172323.475000", "172323.478000", "172323.480000", "172323.483000", "172323.486000", "172323.489000", "172323.492000", "172323.495000", "172323.498000", "172323.501000", "172323.503000", "172323.507000", "172403.435000", "172403.438000", "172403.441000", "172403.444000", "172403.447000", "172403.450000", "172403.453000", "172403.455000", "172403.458000", "172403.461000", "172403.464000", "172403.467000", "172403.487000", "172403.490000", "172403.493000", "172403.495000", "172403.498000", "172403.501000", "172403.504000", "172403.507000", "172403.510000", "172403.513000", "172403.515000", "172403.518000", "172403.521000", "172403.524000", "172403.527000", "172443.434000", "172443.437000", "172443.440000", "172443.443000", "172443.446000", "172443.449000", "172443.451000", "172443.455000", "172443.458000", "172443.461000", "172443.463000", "172443.466000", "172443.469000", "172443.472000", "172443.475000", "172443.478000", "172443.481000", "172443.484000", "172443.486000", "172443.489000", "172443.492000", "172443.495000", "172443.498000", "172443.501000", "172443.504000", "172443.507000", "172443.509000", "172523.434000", "172523.437000", "172523.440000", "172523.443000", "172523.446000", "172523.449000", "172523.452000", "172523.455000", "172523.457000", "172523.460000", "172523.463000", "172523.466000", "172523.469000", "172523.472000", "172523.475000", "172523.477000", "172523.480000", "172523.483000", "172523.486000", "172523.489000", "172523.492000", "172523.495000", "172523.497000", "172523.500000", "172523.503000", "172523.506000", "172523.509000", "172554.063000", "172554.066000", "172554.069000", "172554.072000", "172554.074000", "172554.077000", "172554.080000", "172554.083000", "172554.086000", "172554.089000", "172554.092000", "172554.095000", "172554.098000", "172554.100000", "172554.103000", "172554.106000", "172554.109000", "172554.112000", "172554.115000", "172554.118000", "172554.121000"],
