{
  "AcquisitionMatrixPE": 104,
  "AcquisitionNumber": 1,
  "AcquisitionTime": "11:09:33.857500",
  "BandwidthPerPixelPhaseEncode": 17.17,
  "BaseResolution": 104,
  "BodyPartExamined": "BRAIN",
  "CoilString": "HC1-7;NC1_2",
  "ConsistencyInfo": "N4_VE11C_LATEST_20160120",
  "ConversionSoftware": "dcm2niix",
  "ConversionSoftwareVersion": "v1.0.20190902",
  "DerivedVendorReportedEchoSpacing": 0.000560011,
  "DeviceSerialNumber": "167006",
  "DwellTime": 2.1e-06,
  "EchoTime": 0.037,
  "EchoTrainLength": 104,
  "EffectiveEchoSpacing": 0.000560011,
  "FlipAngle": 52,
  "ImageComments": "Unaliased_MB4_PE3_LB",
  "ImageOrientationPatientDICOM": [0.998985, 0.0373104, 0.0252339, -0.0265083, 0.939932, -0.340331],
  "ImageType": [
    "ORIGINAL",
    "PRIMARY",
    "M",
    "MB",
    "ND",
    "MOSAIC"
],
  "ImagingFrequency": 123.259,
  "InPlanePhaseEncodingDirectionDICOM": "COL",
  "InstitutionAddress": "Chemin_Queen-Mary_4565_Montreal_District_CA_H3W_1W5",
  "InstitutionName": "IUGM",
  "InstitutionalDepartmentName": "Department",
  "MRAcquisitionType": "2D",
  "MagneticFieldStrength": 3,
  "Manufacturer": "Siemens",
  "ManufacturersModelName": "Prisma_fit",
  "Modality": "MR",
  "MultibandAccelerationFactor": 4,
  "PartialFourier": 1,
  "PatientPosition": "HFS",
  "PercentPhaseFOV": 100,
  "PhaseEncodingDirection": "j",
  "PhaseEncodingSteps": 104,
  "PhaseResolution": 1,
  "PixelBandwidth": 2290,
  "ProcedureStepDescription": "video_friends",
  "ProtocolName": "func_task-friends-s04e23a",
  "PulseSequenceDetails": "%CustomerSeq%_cmrr_mbep2d_bold",
  "ReceiveCoilActiveElements": "HC1-7;NC1,2",
  "ReceiveCoilName": "HeadNeck_64",
  "ReconMatrixPE": 104,
  "RepetitionTime": 1.49,
  "SAR": 0.0382517,
  "ScanOptions": "FS",
  "ScanningSequence": "EP",
  "SequenceName": "epfid2d1_104",
  "SequenceVariant": "SK_SS",
  "SeriesDescription": "func_task-friends-s04e23a",
  "SeriesNumber": 9,
  "ShimSetting": [634, -7196, -8844, 665, 69, 9, 65, -3],
  "SliceThickness": 2,
  "SliceTiming": [0, 0.7825, 0.0975, 0.88, 0.195, 0.98, 0.2925, 1.0775, 0.39, 1.175, 0.49, 1.2725, 0.5875, 1.37, 0.685, 0, 0.7825, 0.0975, 0.88, 0.195, 0.98, 0.2925, 1.0775, 0.39, 1.175, 0.49, 1.2725, 0.5875, 1.37, 0.685, 0, 0.7825, 0.0975, 0.88, 0.195, 0.98, 0.2925, 1.0775, 0.39, 1.175, 0.49, 1.2725, 0.5875, 1.37, 0.685, 0, 0.7825, 0.0975, 0.88, 0.195, 0.98, 0.2925, 1.0775, 0.39, 1.175, 0.49, 1.2725, 0.5875, 1.37, 0.685],
  "SoftwareVersions": "syngo_MR_E11",
  "SpacingBetweenSlices": 2,
  "StationName": "MRC35049",
  "TaskName": "s04e23a",
  "TotalReadoutTime": 0.0576811,
  "TxRefAmp": 248.604,
  "WipMemBlock": "ecc3b0fa-05a3-491b-80aa-94794f04e094||Sequence: R016 ve11c/master r/e634e98; Dec 19 2017 11:00:25 by eja",
  "dcmmeta_affine": [
    [-1.9979701042175293, -0.0530165396630764, 0.07283198833465576, 104.42218780517578],
    [-0.07462078332901001, 1.879863977432251, -0.6786332130432129, -66.4238510131836],
    [0.05046772584319115, 0.6806618571281433, 1.8799341917037964, -66.64122772216797],
    [0.0, 0.0, 0.0, 1.0]
],
  "dcmmeta_reorient_transform": [
    [0.0, -1.0, 0.0, 103.0],
    [1.0, 0.0, 0.0, 0.0],
    [0.0, 0.0, 1.0, 0.0],
    [0.0, 0.0, 0.0, 1.0]
],
  "dcmmeta_shape": [104, 104, 60, 505],
  "dcmmeta_slice_dim": 2,
  "dcmmeta_version": 0.6,
  "global": {
    "const": {
      "AcquisitionMatrix": [104, 0, 0, 104],
      "AngioFlag": "N",
      "BitsAllocated": 16,
      "BitsStored": 16,
      "BodyPartExamined": "BRAIN",
      "Columns": 832,
      "EchoNumbers": 1,
      "EchoTime": 37.0,
      "EchoTrainLength": 104,
      "FlipAngle": 52.0,
      "HighBit": 15,
      "ImageOrientationPatient": [0.99898507842913, 0.0373103910444, 0.02523386209158, -0.0265082706726, 0.93993200300887, -0.3403309291053],
      "ImagePositionPatient": [-806.92460308414, -838.63460343191, 232.85761148578],
      "ImageType": [
        "ORIGINAL",
        "PRIMARY",
        "M",
        "MB",
        "ND",
        "MOSAIC"
],
      "ImagedNucleus": "1H",
      "ImagingFrequency": 123.258966,
      "InPlanePhaseEncodingDirection": "COL",
      "MRAcquisitionType": "2D",
      "MagneticFieldStrength": 3.0,
      "Manufacturer": "SIEMENS",
      "ManufacturerModelName": "Prisma_fit",
      "Modality": "MR",
      "NumberOfAverages": 1.0,
      "NumberOfPhaseEncodingSteps": 104,
      "PercentPhaseFieldOfView": 100.0,
      "PercentSampling": 100.0,
      "PerformedProcedureStepStartTime": "101308.875000",
      "PhotometricInterpretation": "MONOCHROME2",
      "PixelBandwidth": 2290.0,
      "PixelRepresentation": 0,
      "PixelSpacing": [2.0, 2.0],
      "ProtocolName": "func_task-friends-s04e23a",
      "RepetitionTime": 1490.0,
      "Rows": 832,
      "SAR": 0.03825169295194,
      "SamplesPerPixel": 1,
      "ScanOptions": "FS",
      "ScanningSequence": "EP",
      "SequenceName": "epfid2d1_104",
      "SequenceVariant": [
        "SK",
        "SS"
],
      "SeriesDescription": "func_task-friends-s04e23a",
      "SeriesNumber": 9,
      "SeriesTime": "111041.051000",
      "SliceLocation": -36.299202869376,
      "SliceThickness": 2.0,
      "SmallestImagePixelValue": 0,
      "SoftwareVersions": "syngo MR E11",
      "SpacingBetweenSlices": 2.0000000298133,
      "SpecificCharacterSet": "ISO_IR 100",
      "StudyID": "1",
      "StudyTime": "101308.784000",
      "TransmitCoilName": "Body",
      "VariableFlipAngleFlag": "N",
      "WindowCenterWidthExplanation": "Algo1",
      "dBdt": 0.0},
    "slices": {}
  },
  "time": {
    "samples": {
      "AcquisitionNumber": [1, 2, 3, 4, 5, 6, 7, 8, 9, 10, 11, 12, 13, 14, 15, 16, 17, 18, 19, 20, 21, 22, 23, 24, 25, 26, 27, 28, 29, 30, 31, 32, 33, 34, 35, 36, 37, 38, 39, 40, 41, 42, 43, 44, 45, 46, 47, 48, 49, 50, 51, 52, 53, 54, 55, 56, 57, 58, 59, 60, 61, 62, 63, 64, 65, 66, 67, 68, 69, 70, 71, 72, 73, 74, 75, 76, 77, 78, 79, 80, 81, 82, 83, 84, 85, 86, 87, 88, 89, 90, 91, 92, 93, 94, 95, 96, 97, 98, 99, 100, 101, 102, 103, 104, 105, 106, 107, 108, 109, 110, 111, 112, 113, 114, 115, 116, 117, 118, 119, 120, 121, 122, 123, 124, 125, 126, 127, 128, 129, 130, 131, 132, 133, 134, 135, 136, 137, 138, 139, 140, 141, 142, 143, 144, 145, 146, 147, 148, 149, 150, 151, 152, 153, 154, 155, 156, 157, 158, 159, 160, 161, 162, 163, 164, 165, 166, 167, 168, 169, 170, 171, 172, 173, 174, 175, 176, 177, 178, 179, 180, 181, 182, 183, 184, 185, 186, 187, 188, 189, 190, 191, 192, 193, 194, 195, 196, 197, 198, 199, 200, 201, 202, 203, 204, 205, 206, 207, 208, 209, 210, 211, 212, 213, 214, 215, 216, 217, 218, 219, 220, 221, 222, 223, 224, 225, 226, 227, 228, 229, 230, 231, 232, 233, 234, 235, 236, 237, 238, 239, 240, 241, 242, 243, 244, 245, 246, 247, 248, 249, 250, 251, 252, 253, 254, 255, 256, 257, 258, 259, 260, 261, 262, 263, 264, 265, 266, 267, 268, 269, 270, 271, 272, 273, 274, 275, 276, 277, 278, 279, 280, 281, 282, 283, 284, 285, 286, 287, 288, 289, 290, 291, 292, 293, 294, 295, 296, 297, 298, 299, 300, 301, 302, 303, 304, 305, 306, 307, 308, 309, 310, 311, 312, 313, 314, 315, 316, 317, 318, 319, 320, 321, 322, 323, 324, 325, 326, 327, 328, 329, 330, 331, 332, 333, 334, 335, 336, 337, 338, 339, 340, 341, 342, 343, 344, 345, 346, 347, 348, 349, 350, 351, 352, 353, 354, 355, 356, 357, 358, 359, 360, 361, 362, 363, 364, 365, 366, 367, 368, 369, 370, 371, 372, 373, 374, 375, 376, 377, 378, 379, 380, 381, 382, 383, 384, 385, 386, 387, 388, 389, 390, 391, 392, 393, 394, 395, 396, 397, 398, 399, 400, 401, 402, 403, 404, 405, 406, 407, 408, 409, 410, 411, 412, 413, 414, 415, 416, 417, 418, 419, 420, 421, 422, 423, 424, 425, 426, 427, 428, 429, 430, 431, 432, 433, 434, 435, 436, 437, 438, 439, 440, 441, 442, 443, 444, 445, 446, 447, 448, 449, 450, 451, 452, 453, 454, 455, 456, 457, 458, 459, 460, 461, 462, 463, 464, 465, 466, 467, 468, 469, 470, 471, 472, 473, 474, 475, 476, 477, 478, 479, 480, 481, 482, 483, 484, 485, 486, 487, 488, 489, 490, 491, 492, 493, 494, 495, 496, 497, 498, 499, 500, 501, 502, 503, 504, 505],
      "AcquisitionTime": ["110933.857500", "110935.347500", "110936.837500", "110938.327500", "110939.817500", "110941.307500", "110942.797500", "110944.287500", "110945.777500", "110947.267500", "110948.757500", "110950.247500", "110951.737500", "110953.227500", "110954.717500", "110956.207500", "110957.697500", "110959.187500", "111000.677500", "111002.167500", "111003.657500", "111005.147500", "111006.637500", "111008.127500", "111009.617500", "111011.107500", "111012.597500", "111014.087500", "111015.577500", "111017.067500", "111018.557500", "111020.047500", "111021.537500", "111023.027500", "111024.517500", "111026.007500", "111027.497500", "111028.987500", "111030.477500", "111031.967500", "111033.457500", "111034.947500", "111036.437500", "111037.927500", "111039.417500", "111040.907500", "111042.397500", "111043.887500", "111045.377500", "111046.867500", "111048.357500", "111049.847500", "111051.337500", "111052.827500", "111054.317500", "111055.807500", "111057.297500", "111058.787500", "111100.277500", "111101.767500", "111103.257500", "111104.747500", "111106.237500", "111107.727500", "111109.217500", "111110.707500", "111112.197500", "111113.687500", "111115.177500", "111116.667500", "111118.157500", "111119.647500", "111121.137500", "111122.627500", "111124.117500", "111125.607500", "111127.097500", "111128.587500", "111130.077500", "111131.567500", "111133.057500", "111134.547500", "111136.037500", "111137.527500", "111139.017500", "111140.507500", "111141.997500", "111143.487500", "111144.977500", "111146.467500", "111147.957500", "111149.447500", "111150.937500", "111152.427500", "111153.917500", "111155.407500", "111156.897500", "111158.387500", "111159.877500", "111201.367500", "111202.857500", "111204.347500", "111205.837500", "111207.327500", "111208.817500", "111210.307500", "111211.797500", "111213.287500", "111214.777500", "111216.267500", "111217.757500", "111219.247500", "111220.737500", "111222.227500", "111223.717500", "111225.207500", "111226.697500", "111228.187500", "111229.677500", "111231.167500", "111232.657500", "111234.147500", "111235.637500", "111237.127500", "111238.617500", "111240.107500", "111241.597500", "111243.087500", "111244.577500", "111246.067500", "111247.557500", "111249.047500", "111250.537500", "111252.027500", "111253.517500", "111255.007500", "111256.497500", "111257.987500", "111259.477500", "111300.967500", "111302.457500", "111303.947500", "111305.437500", "111306.927500", "111308.417500", "111309.907500", "111311.397500", "111312.887500", "111314.377500", "111315.867500", "111317.357500", "111318.847500", "111320.337500", "111321.827500", "111323.317500", "111324.807500", "111326.297500", "111327.787500", "111329.277500", "111330.767500", "111332.257500", "111333.747500", "111335.237500", "111336.727500", "111338.217500", "111339.707500", "111341.197500", "111342.687500", "111344.177500", "111345.667500", "111347.157500", "111348.647500", "111350.137500", "111351.627500", "111353.117500", "111354.607500", "111356.097500", "111357.587500", "111359.077500", "111400.567500", "111402.057500", "111403.547500", "111405.037500", "111406.527500", "111408.017500", "111409.507500", "111410.997500", "111412.487500", "111413.977500", "111415.467500", "111416.957500", "111418.447500", "111419.937500", "111421.427500", "111422.917500", "111424.407500", "111425.897500", "111427.387500", "111428.877500", "111430.367500", "111431.857500", "111433.347500", "111434.837500", "111436.327500", "111437.817500", "111439.307500", "111440.797500", "111442.287500", "111443.777500", "111445.267500", "111446.757500", "111448.247500", "111449.737500", "111451.227500", "111452.717500", "111454.207500", "111455.697500", "111457.187500", "111458.677500", "111500.167500", "111501.657500", "111503.147500", "111504.637500", "111506.127500", "111507.617500", "111509.107500", "111510.597500", "111512.087500", "111513.577500", "111515.067500", "111516.557500", "111518.047500", "111519.537500", "111521.027500", "111522.517500", "111524.007500", "111525.497500", "111526.987500", "111528.477500", "111529.967500", "111531.457500", "111532.947500", "111534.437500", "111535.927500", "111537.417500", "111538.907500", "111540.397500", "111541.887500", "111543.377500", "111544.867500", "111546.357500", "111547.847500", "111549.337500", "111550.827500", "111552.317500", "111553.807500", "111555.297500", "111556.787500", "111558.277500", "111559.767500", "111601.257500", "111602.747500", "111604.237500", "111605.727500", "111607.217500", "111608.707500", "111610.197500", "111611.687500", "111613.177500", "111614.667500", "111616.157500", "111617.647500", "111619.137500", "111620.627500", "111622.117500", "111623.607500", "111625.097500", "111626.587500", "111628.077500", "111629.567500", "111631.057500", "111632.547500", "111634.037500", "111635.527500", "111637.017500", "111638.507500", "111639.997500", "111641.487500", "111642.977500", "111644.467500", "111645.957500", "111647.447500", "111648.937500", "111650.427500", "111651.917500", "111653.407500", "111654.897500", "111656.387500", "111657.877500", "111659.367500", "111700.857500", "111702.347500", "111703.837500", "111705.327500", "111706.817500", "111708.307500", "111709.797500", "111711.287500", "111712.777500", "111714.267500", "111715.757500", "111717.247500", "111718.737500", "111720.227500", "111721.717500", "111723.207500", "111724.697500", "111726.187500", "111727.677500", "111729.167500", "111730.657500", "111732.147500", "111733.637500", "111735.127500", "111736.617500", "111738.107500", "111739.597500", "111741.087500", "111742.577500", "111744.067500", "111745.557500", "111747.047500", "111748.537500", "111750.027500", "111751.517500", "111753.007500", "111754.497500", "111755.987500", "111757.477500", "111758.967500", "111800.457500", "111801.947500", "111803.437500", "111804.927500", "111806.417500", "111807.907500", "111809.397500", "111810.887500", "111812.377500", "111813.867500", "111815.357500", "111816.847500", "111818.337500", "111819.827500", "111821.317500", "111822.807500", "111824.297500", "111825.787500", "111827.277500", "111828.767500", "111830.257500", "111831.747500", "111833.237500", "111834.727500", "111836.217500", "111837.707500", "111839.197500", "111840.687500", "111842.177500", "111843.667500", "111845.157500", "111846.647500", "111848.137500", "111849.627500", "111851.117500", "111852.607500", "111854.097500", "111855.587500", "111857.077500", "111858.567500", "111900.057500", "111901.547500", "111903.037500", "111904.527500", "111906.017500", "111907.507500", "111908.997500", "111910.487500", "111911.977500", "111913.467500", "111914.957500", "111916.447500", "111917.937500", "111919.427500", "111920.917500", "111922.407500", "111923.897500", "111925.387500", "111926.877500", "111928.367500", "111929.857500", "111931.347500", "111932.837500", "111934.327500", "111935.817500", "111937.307500", "111938.797500", "111940.287500", "111941.777500", "111943.267500", "111944.757500", "111946.247500", "111947.737500", "111949.227500", "111950.717500", "111952.207500", "111953.697500", "111955.187500", "111956.677500", "111958.167500", "111959.657500", "112001.147500", "112002.637500", "112004.127500", "112005.617500", "112007.107500", "112008.597500", "112010.087500", "112011.577500", "112013.067500", "112014.557500", "112016.047500", "112017.537500", "112019.027500", "112020.517500", "112022.007500", "112023.497500", "112024.987500", "112026.477500", "112027.967500", "112029.457500", "112030.947500", "112032.437500", "112033.927500", "112035.417500", "112036.907500", "112038.397500", "112039.887500", "112041.377500", "112042.867500", "112044.357500", "112045.847500", "112047.337500", "112048.827500", "112050.317500", "112051.807500", "112053.297500", "112054.787500", "112056.277500", "112057.767500", "112059.257500", "112100.747500", "112102.237500", "112103.727500", "112105.217500", "112106.707500", "112108.197500", "112109.687500", "112111.177500", "112112.667500", "112114.157500", "112115.647500", "112117.137500", "112118.627500", "112120.117500", "112121.607500", "112123.097500", "112124.587500", "112126.077500", "112127.567500", "112129.057500", "112130.547500", "112132.037500", "112133.527500", "112135.017500", "112136.507500", "112137.997500", "112139.487500", "112140.977500", "112142.467500", "112143.957500", "112145.447500", "112146.937500", "112148.427500", "112149.917500", "112151.407500", "112152.897500", "112154.387500", "112155.877500", "112157.367500", "112158.857500", "112200.347500", "112201.837500", "112203.327500", "112204.817500"],
      "ContentTime": ["111041.054000", "111041.057000", "111041.061000", "111041.063000", "111041.066000", "111041.070000", "111041.073000", "111041.078000", "111041.081000", "111041.083000", "111041.087000", "111041.090000", "111041.092000", "111041.095000", "111101.004000", "111101.007000", "111101.010000", "111101.013000", "111101.019000", "111101.022000", "111101.025000", "111101.028000", "111101.031000", "111101.033000", "111101.036000", "111101.039000", "111101.042000", "111101.045000", "111101.048000", "111101.051000", "111101.054000", "111101.057000", "111101.066000", "111101.069000", "111121.003000", "111121.006000", "111121.009000", "111121.012000", "111121.015000", "111121.018000", "111121.021000", "111121.024000", "111121.026000", "111121.029000", "111121.032000", "111121.035000", "111121.038000", "111121.041000", "111121.044000", "111121.047000", "111121.050000", "111121.053000", "111121.055000", "111121.066000", "111121.068000", "111141.003000", "111141.006000", "111141.009000", "111141.012000", "111141.015000", "111141.018000", "111141.020000", "111141.023000", "111141.026000", "111141.029000", "111141.032000", "111141.035000", "111141.038000", "111141.041000", "111141.043000", "111141.046000", "111141.049000", "111141.052000", "111141.055000", "111141.058000", "111201.003000", "111201.006000", "111201.021000", "111201.024000", "111201.027000", "111201.030000", "111201.032000", "111201.035000", "111201.038000", "111201.041000", "111201.044000", "111201.047000", "111201.050000", "111201.053000", "111201.056000", "111201.058000", "111201.061000", "111201.064000", "111201.067000", "111201.070000", "111241.003000", "111241.006000", "111241.009000", "111241.012000", "111241.015000", "111241.018000", "111241.020000", "111241.023000", "111241.026000", "111241.029000", "111241.032000", "111241.035000", "111241.038000", "111241.041000", "111241.044000", "111241.047000", "111241.049000", "111241.052000", "111241.055000", "111241.058000", "111241.061000", "111241.064000", "111241.067000", "111241.070000", "111241.073000", "111241.076000", "111241.079000", "111241.082000", "111241.084000", "111241.087000", "111321.004000", "111321.007000", "111321.010000", "111321.013000", "111321.016000", "111321.019000", "111321.022000", "111321.024000", "111321.027000", "111321.030000", "111321.033000", "111321.036000", "111321.039000", "111321.042000", "111321.045000", "111321.047000", "111321.050000", "111321.053000", "111321.056000", "111321.059000", "111321.062000", "111321.065000", "111321.068000", "111321.071000", "111321.074000", "111321.077000", "111321.080000", "111401.003000", "111401.006000", "111401.009000", "111401.012000", "111401.015000", "111401.018000", "111401.021000", "111401.024000", "111401.027000", "111401.030000", "111401.032000", "111401.035000", "111401.038000", "111401.041000", "111401.044000", "111401.057000", "111401.060000", "111401.063000", "111401.065000", "111401.068000", "111401.071000", "111401.074000", "111401.077000", "111401.080000", "111401.083000", "111401.086000", "111401.089000", "111441.003000", "111441.006000", "111441.009000", "111441.012000", "111441.015000", "111441.018000", "111441.021000", "111441.024000", "111441.027000", "111441.030000", "111441.033000", "111441.036000", "111441.038000", "111441.041000", "111441.044000", "111441.047000", "111441.050000", "111441.053000", "111441.056000", "111441.059000", "111441.062000", "111441.065000", "111441.068000", "111441.071000", "111441.074000", "111441.078000", "111521.003000", "111521.006000", "111521.009000", "111521.012000", "111521.015000", "111521.018000", "111521.021000", "111521.024000", "111521.027000", "111521.030000", "111521.032000", "111521.035000", "111521.038000", "111521.041000", "111521.044000", "111521.047000", "111521.050000", "111521.060000", "111521.063000", "111521.066000", "111521.069000", "111521.072000", "111521.074000", "111521.077000", "111521.080000", "111521.083000", "111521.086000", "111601.003000", "111601.006000", "111601.009000", "111601.012000", "111601.015000", "111601.018000", "111601.021000", "111601.024000", "111601.027000", "111601.030000", "111601.033000", "111601.035000", "111601.038000", "111601.041000", "111601.044000", "111601.047000", "111601.050000", "111601.053000", "111601.056000", "111601.059000", "111601.066000", "111601.068000", "111601.071000", "111601.074000", "111601.077000", "111601.080000", "111601.083000", "111641.003000", "111641.006000", "111641.009000", "111641.012000", "111641.015000", "111641.018000", "111641.021000", "111641.024000", "111641.026000", "111641.029000", "111641.032000", "111641.035000", "111641.038000", "111641.041000", "111641.044000", "111641.056000", "111641.059000", "111641.062000", "111641.065000", "111641.068000", "111641.071000", "111641.073000", "111641.076000", "111641.079000", "111641.082000", "111641.085000", "111641.088000", "111721.003000", "111721.006000", "111721.009000", "111721.012000", "111721.015000", "111721.018000", "111721.021000", "111721.024000", "111721.027000", "111721.029000", "111721.032000", "111721.035000", "111721.038000", "111721.041000", "111721.044000", "111721.047000", "111721.050000", "111721.053000", "111721.056000", "111721.059000", "111721.062000", "111721.065000", "111721.068000", "111721.071000", "111721.073000", "111721.076000", "111721.079000", "111801.004000", "111801.007000", "111801.010000", "111801.013000", "111801.016000", "111801.019000", "111801.022000", "111801.025000", "111801.028000", "111801.030000", "111801.033000", "111801.036000", "111801.039000", "111801.042000", "111801.045000", "111801.048000", "111801.051000", "111801.054000", "111801.057000", "111801.066000", "111801.069000", "111801.072000", "111801.075000", "111801.078000", "111801.081000", "111801.084000", "111801.087000", "111841.003000", "111841.006000", "111841.009000", "111841.012000", "111841.015000", "111841.018000", "111841.021000", "111841.024000", "111841.027000", "111841.029000", "111841.032000", "111841.035000", "111841.038000", "111841.041000", "111841.044000", "111841.047000", "111841.050000", "111841.053000", "111841.056000", "111841.059000", "111841.062000", "111841.065000", "111841.068000", "111841.071000", "111841.073000", "111841.076000", "111841.079000", "111921.003000", "111921.006000", "111921.009000", "111921.018000", "111921.020000", "111921.023000", "111921.026000", "111921.029000", "111921.032000", "111921.035000", "111921.038000", "111921.041000", "111921.044000", "111921.047000", "111921.050000", "111921.053000", "111921.056000", "111921.059000", "111921.062000", "111921.065000", "111921.068000", "111921.072000", "111921.075000", "111921.078000", "111921.081000", "111921.084000", "112001.004000", "112001.007000", "112001.010000", "112001.013000", "112001.016000", "112001.019000", "112001.022000", "112001.025000", "112001.027000", "112001.030000", "112001.033000", "112001.036000", "112001.039000", "112001.042000", "112001.045000", "112001.048000", "112001.051000", "112001.054000", "112001.057000", "112001.059000", "112001.062000", "112001.065000", "112001.068000", "112001.071000", "112001.074000", "112001.077000", "112001.080000", "112041.003000", "112041.006000", "112041.009000", "112041.012000", "112041.015000", "112041.018000", "112041.021000", "112041.024000", "112041.026000", "112041.029000", "112041.032000", "112041.035000", "112041.038000", "112041.041000", "112041.044000", "112041.047000", "112041.050000", "112041.053000", "112041.055000", "112041.058000", "112041.061000", "112041.064000", "112041.067000", "112041.070000", "112041.073000", "112041.076000", "112041.079000", "112121.003000", "112121.006000", "112121.009000", "112121.012000", "112121.015000", "112121.018000", "112121.021000", "112121.024000", "112121.026000", "112121.029000", "112121.049000", "112121.052000", "112121.055000", "112121.058000", "112121.061000", "112121.064000", "112121.067000", "112121.069000", "112121.072000", "112121.075000", "112121.078000", "112121.081000", "112121.084000", "112121.087000", "112121.090000", "112121.093000", "112121.096000", "112201.003000", "112201.006000", "112201.009000", "112201.012000", "112201.015000", "112201.018000", "112201.021000", "112201.024000", "112201.027000", "112201.030000", "112201.033000", "112201.036000", "112201.039000", "112201.041000", "112201.044000", "112201.047000", "112201.050000", "112201.053000", "112201.056000", "112201.059000", "112201.062000", "112201.065000", "112201.068000", "112201.071000", "112201.074000", "112201.077000", "112201.080000", "112206.644000", "112206.647000", "112206.650000", "112206.653000"],
