{
  "AcquisitionMatrixPE": 104,
  "AcquisitionNumber": 1,
  "AcquisitionTime": "11:37:31.337500",
  "BandwidthPerPixelPhaseEncode": 17.17,
  "BaseResolution": 104,
  "BodyPartExamined": "BRAIN",
  "CoilString": "HC1-7;NC1_2",
  "ConsistencyInfo": "N4_VE11C_LATEST_20160120",
  "ConversionSoftware": "dcm2niix",
  "ConversionSoftwareVersion": "v1.0.20190902",
  "DerivedVendorReportedEchoSpacing": 0.000560011,
  "DeviceSerialNumber": "167006",
  "DwellTime": 2.1e-06,
  "EchoTime": 0.037,
  "EchoTrainLength": 104,
  "EffectiveEchoSpacing": 0.000560011,
  "FlipAngle": 52,
  "ImageComments": "Unaliased_MB4_PE3_LB",
  "ImageOrientationPatientDICOM": [0.998985, 0.0373104, 0.0252339, -0.0265083, 0.939932, -0.340331],
  "ImageType": [
    "ORIGINAL",
    "PRIMARY",
    "M",
    "MB",
    "ND",
    "MOSAIC"
],
  "ImagingFrequency": 123.259,
  "InPlanePhaseEncodingDirectionDICOM": "COL",
  "InstitutionAddress": "Chemin_Queen-Mary_4565_Montreal_District_CA_H3W_1W5",
  "InstitutionName": "IUGM",
  "InstitutionalDepartmentName": "Department",
  "MRAcquisitionType": "2D",
  "MagneticFieldStrength": 3,
  "Manufacturer": "Siemens",
  "ManufacturersModelName": "Prisma_fit",
  "Modality": "MR",
  "MultibandAccelerationFactor": 4,
  "PartialFourier": 1,
  "PatientPosition": "HFS",
  "PercentPhaseFOV": 100,
  "PhaseEncodingDirection": "j",
  "PhaseEncodingSteps": 104,
  "PhaseResolution": 1,
  "PixelBandwidth": 2290,
  "ProcedureStepDescription": "video_friends",
  "ProtocolName": "func_task-friends-s04e23c",
  "PulseSequenceDetails": "%CustomerSeq%_cmrr_mbep2d_bold",
  "ReceiveCoilActiveElements": "HC1-7;NC1,2",
  "ReceiveCoilName": "HeadNeck_64",
  "ReconMatrixPE": 104,
  "RepetitionTime": 1.49,
  "SAR": 0.0382514,
  "ScanOptions": "FS",
  "ScanningSequence": "EP",
  "SequenceName": "epfid2d1_104",
  "SequenceVariant": "SK_SS",
  "SeriesDescription": "func_task-friends-s04e23c",
  "SeriesNumber": 13,
  "ShimSetting": [634, -7196, -8844, 665, 69, 9, 65, -3],
  "SliceThickness": 2,
  "SliceTiming": [0, 0.785, 0.0975, 0.8825, 0.1975, 0.98, 0.295, 1.0775, 0.3925, 1.1775, 0.49, 1.275, 0.5875, 1.3725, 0.6875, 0, 0.785, 0.0975, 0.8825, 0.1975, 0.98, 0.295, 1.0775, 0.3925, 1.1775, 0.49, 1.275, 0.5875, 1.3725, 0.6875, 0, 0.785, 0.0975, 0.8825, 0.1975, 0.98, 0.295, 1.0775, 0.3925, 1.1775, 0.49, 1.275, 0.5875, 1.3725, 0.6875, 0, 0.785, 0.0975, 0.8825, 0.1975, 0.98, 0.295, 1.0775, 0.3925, 1.1775, 0.49, 1.275, 0.5875, 1.3725, 0.6875],
  "SoftwareVersions": "syngo_MR_E11",
  "SpacingBetweenSlices": 2,
  "StationName": "MRC35049",
  "TaskName": "s04e23c",
  "TotalReadoutTime": 0.0576811,
  "TxRefAmp": 248.604,
  "WipMemBlock": "bd657c43-22c9-44da-856e-bcfed14625b9||Sequence: R016 ve11c/master r/e634e98; Dec 19 2017 11:00:25 by eja",
  "dcmmeta_affine": [
    [-1.9979701042175293, -0.0530165396630764, 0.07283198833465576, 104.42218780517578],
    [-0.07462078332901001, 1.879863977432251, -0.6786332130432129, -66.4238510131836],
    [0.05046772584319115, 0.6806618571281433, 1.8799341917037964, -66.64122772216797],
    [0.0, 0.0, 0.0, 1.0]
],
  "dcmmeta_reorient_transform": [
    [0.0, -1.0, 0.0, 103.0],
    [1.0, 0.0, 0.0, 0.0],
    [0.0, 0.0, 1.0, 0.0],
    [0.0, 0.0, 0.0, 1.0]
],
  "dcmmeta_shape": [104, 104, 60, 504],
  "dcmmeta_slice_dim": 2,
  "dcmmeta_version": 0.6,
  "global": {
    "const": {
      "AcquisitionMatrix": [104, 0, 0, 104],
      "AngioFlag": "N",
      "BitsAllocated": 16,
      "BitsStored": 16,
      "BodyPartExamined": "BRAIN",
      "Columns": 832,
      "EchoNumbers": 1,
      "EchoTime": 37.0,
      "EchoTrainLength": 104,
      "FlipAngle": 52.0,
      "HighBit": 15,
      "ImageOrientationPatient": [0.99898507842913, 0.0373103910444, 0.02523386209158, -0.0265082706726, 0.93993200300887, -0.3403309291053],
      "ImagePositionPatient": [-806.92460308414, -838.63460343191, 232.85761148578],
      "ImageType": [
        "ORIGINAL",
        "PRIMARY",
        "M",
        "MB",
        "ND",
        "MOSAIC"
],
      "ImagedNucleus": "1H",
      "ImagingFrequency": 123.258985,
      "InPlanePhaseEncodingDirection": "COL",
      "MRAcquisitionType": "2D",
      "MagneticFieldStrength": 3.0,
      "Manufacturer": "SIEMENS",
      "ManufacturerModelName": "Prisma_fit",
      "Modality": "MR",
      "NumberOfAverages": 1.0,
      "NumberOfPhaseEncodingSteps": 104,
      "PercentPhaseFieldOfView": 100.0,
      "PercentSampling": 100.0,
      "PerformedProcedureStepStartTime": "101308.875000",
      "PhotometricInterpretation": "MONOCHROME2",
      "PixelBandwidth": 2290.0,
      "PixelRepresentation": 0,
      "PixelSpacing": [2.0, 2.0],
      "ProtocolName": "func_task-friends-s04e23c",
      "RepetitionTime": 1490.0,
      "Rows": 832,
      "SAR": 0.03825139444777,
      "SamplesPerPixel": 1,
      "ScanOptions": "FS",
      "ScanningSequence": "EP",
      "SequenceName": "epfid2d1_104",
      "SequenceVariant": [
        "SK",
        "SS"
],
      "SeriesDescription": "func_task-friends-s04e23c",
      "SeriesNumber": 13,
      "SeriesTime": "113903.403000",
      "SliceLocation": -36.299202869376,
      "SliceThickness": 2.0,
      "SmallestImagePixelValue": 0,
      "SoftwareVersions": "syngo MR E11",
      "SpacingBetweenSlices": 2.0000000298133,
      "SpecificCharacterSet": "ISO_IR 100",
      "StudyID": "1",
      "StudyTime": "101308.784000",
      "TransmitCoilName": "Body",
      "VariableFlipAngleFlag": "N",
      "WindowCenterWidthExplanation": "Algo1",
      "dBdt": 0.0},
    "slices": {}
  },
  "time": {
    "samples": {
      "AcquisitionNumber": [1, 2, 3, 4, 5, 6, 7, 8, 9, 10, 11, 12, 13, 14, 15, 16, 17, 18, 19, 20, 21, 22, 23, 24, 25, 26, 27, 28, 29, 30, 31, 32, 33, 34, 35, 36, 37, 38, 39, 40, 41, 42, 43, 44, 45, 46, 47, 48, 49, 50, 51, 52, 53, 54, 55, 56, 57, 58, 59, 60, 61, 62, 63, 64, 65, 66, 67, 68, 69, 70, 71, 72, 73, 74, 75, 76, 77, 78, 79, 80, 81, 82, 83, 84, 85, 86, 87, 88, 89, 90, 91, 92, 93, 94, 95, 96, 97, 98, 99, 100, 101, 102, 103, 104, 105, 106, 107, 108, 109, 110, 111, 112, 113, 114, 115, 116, 117, 118, 119, 120, 121, 122, 123, 124, 125, 126, 127, 128, 129, 130, 131, 132, 133, 134, 135, 136, 137, 138, 139, 140, 141, 142, 143, 144, 145, 146, 147, 148, 149, 150, 151, 152, 153, 154, 155, 156, 157, 158, 159, 160, 161, 162, 163, 164, 165, 166, 167, 168, 169, 170, 171, 172, 173, 174, 175, 176, 177, 178, 179, 180, 181, 182, 183, 184, 185, 186, 187, 188, 189, 190, 191, 192, 193, 194, 195, 196, 197, 198, 199, 200, 201, 202, 203, 204, 205, 206, 207, 208, 209, 210, 211, 212, 213, 214, 215, 216, 217, 218, 219, 220, 221, 222, 223, 224, 225, 226, 227, 228, 229, 230, 231, 232, 233, 234, 235, 236, 237, 238, 239, 240, 241, 242, 243, 244, 245, 246, 247, 248, 249, 250, 251, 252, 253, 254, 255, 256, 257, 258, 259, 260, 261, 262, 263, 264, 265, 266, 267, 268, 269, 270, 271, 272, 273, 274, 275, 276, 277, 278, 279, 280, 281, 282, 283, 284, 285, 286, 287, 288, 289, 290, 291, 292, 293, 294, 295, 296, 297, 298, 299, 300, 301, 302, 303, 304, 305, 306, 307, 308, 309, 310, 311, 312, 313, 314, 315, 316, 317, 318, 319, 320, 321, 322, 323, 324, 325, 326, 327, 328, 329, 330, 331, 332, 333, 334, 335, 336, 337, 338, 339, 340, 341, 342, 343, 344, 345, 346, 347, 348, 349, 350, 351, 352, 353, 354, 355, 356, 357, 358, 359, 360, 361, 362, 363, 364, 365, 366, 367, 368, 369, 370, 371, 372, 373, 374, 375, 376, 377, 378, 379, 380, 381, 382, 383, 384, 385, 386, 387, 388, 389, 390, 391, 392, 393, 394, 395, 396, 397, 398, 399, 400, 401, 402, 403, 404, 405, 406, 407, 408, 409, 410, 411, 412, 413, 414, 415, 416, 417, 418, 419, 420, 421, 422, 423, 424, 425, 426, 427, 428, 429, 430, 431, 432, 433, 434, 435, 436, 437, 438, 439, 440, 441, 442, 443, 444, 445, 446, 447, 448, 449, 450, 451, 452, 453, 454, 455, 456, 457, 458, 459, 460, 461, 462, 463, 464, 465, 466, 467, 468, 469, 470, 471, 472, 473, 474, 475, 476, 477, 478, 479, 480, 481, 482, 483, 484, 485, 486, 487, 488, 489, 490, 491, 492, 493, 494, 495, 496, 497, 498, 499, 500, 501, 502, 503, 504],
      "AcquisitionTime": ["113731.337500", "113732.827500", "113734.317500", "113735.807500", "113737.297500", "113738.787500", "113740.277500", "113741.767500", "113743.257500", "113744.747500", "113746.237500", "113747.727500", "113749.217500", "113750.707500", "113752.197500", "113753.687500", "113755.177500", "113756.667500", "113758.157500", "113759.647500", "113801.137500", "113802.627500", "113804.117500", "113805.607500", "113807.097500", "113808.587500", "113810.077500", "113811.567500", "113813.057500", "113814.547500", "113816.037500", "113817.527500", "113819.017500", "113820.507500", "113821.997500", "113823.487500", "113824.977500", "113826.467500", "113827.957500", "113829.447500", "113830.937500", "113832.427500", "113833.917500", "113835.407500", "113836.897500", "113838.387500", "113839.877500", "113841.367500", "113842.857500", "113844.347500", "113845.837500", "113847.327500", "113848.817500", "113850.307500", "113851.797500", "113853.287500", "113854.777500", "113856.267500", "113857.757500", "113859.247500", "113900.737500", "113902.227500", "113903.717500", "113905.207500", "113906.697500", "113908.187500", "113909.677500", "113911.167500", "113912.657500", "113914.147500", "113915.637500", "113917.127500", "113918.617500", "113920.107500", "113921.597500", "113923.087500", "113924.577500", "113926.067500", "113927.557500", "113929.047500", "113930.537500", "113932.027500", "113933.517500", "113935.007500", "113936.497500", "113937.987500", "113939.477500", "113940.967500", "113942.457500", "113943.947500", "113945.437500", "113946.927500", "113948.417500", "113949.907500", "113951.397500", "113952.887500", "113954.377500", "113955.867500", "113957.357500", "113958.847500", "114000.337500", "114001.827500", "114003.317500", "114004.807500", "114006.297500", "114007.787500", "114009.277500", "114010.767500", "114012.257500", "114013.747500", "114015.237500", "114016.727500", "114018.217500", "114019.707500", "114021.197500", "114022.687500", "114024.177500", "114025.667500", "114027.157500", "114028.647500", "114030.137500", "114031.627500", "114033.117500", "114034.607500", "114036.097500", "114037.587500", "114039.077500", "114040.567500", "114042.057500", "114043.547500", "114045.037500", "114046.527500", "114048.017500", "114049.507500", "114050.997500", "114052.487500", "114053.977500", "114055.467500", "114056.957500", "114058.447500", "114059.937500", "114101.427500", "114102.917500", "114104.407500", "114105.897500", "114107.387500", "114108.877500", "114110.367500", "114111.857500", "114113.347500", "114114.837500", "114116.327500", "114117.817500", "114119.307500", "114120.797500", "114122.287500", "114123.777500", "114125.267500", "114126.757500", "114128.247500", "114129.737500", "114131.227500", "114132.717500", "114134.207500", "114135.697500", "114137.187500", "114138.677500", "114140.167500", "114141.657500", "114143.147500", "114144.637500", "114146.127500", "114147.617500", "114149.107500", "114150.597500", "114152.087500", "114153.577500", "114155.067500", "114156.557500", "114158.047500", "114159.537500", "114201.027500", "114202.517500", "114204.007500", "114205.497500", "114206.987500", "114208.477500", "114209.967500", "114211.457500", "114212.947500", "114214.437500", "114215.927500", "114217.417500", "114218.907500", "114220.397500", "114221.887500", "114223.377500", "114224.867500", "114226.357500", "114227.847500", "114229.337500", "114230.827500", "114232.317500", "114233.807500", "114235.297500", "114236.787500", "114238.277500", "114239.767500", "114241.257500", "114242.747500", "114244.237500", "114245.727500", "114247.217500", "114248.707500", "114250.197500", "114251.687500", "114253.177500", "114254.667500", "114256.157500", "114257.647500", "114259.137500", "114300.627500", "114302.117500", "114303.607500", "114305.097500", "114306.587500", "114308.077500", "114309.567500", "114311.057500", "114312.547500", "114314.037500", "114315.527500", "114317.017500", "114318.507500", "114319.997500", "114321.487500", "114322.977500", "114324.467500", "114325.957500", "114327.447500", "114328.937500", "114330.427500", "114331.917500", "114333.407500", "114334.897500", "114336.387500", "114337.877500", "114339.367500", "114340.857500", "114342.347500", "114343.837500", "114345.327500", "114346.817500", "114348.307500", "114349.797500", "114351.287500", "114352.777500", "114354.267500", "114355.757500", "114357.247500", "114358.737500", "114400.227500", "114401.717500", "114403.207500", "114404.697500", "114406.187500", "114407.677500", "114409.167500", "114410.657500", "114412.147500", "114413.637500", "114415.127500", "114416.617500", "114418.107500", "114419.597500", "114421.087500", "114422.577500", "114424.067500", "114425.557500", "114427.047500", "114428.537500", "114430.027500", "114431.517500", "114433.007500", "114434.497500", "114435.987500", "114437.477500", "114438.967500", "114440.457500", "114441.947500", "114443.437500", "114444.927500", "114446.417500", "114447.907500", "114449.397500", "114450.887500", "114452.377500", "114453.867500", "114455.357500", "114456.847500", "114458.337500", "114459.827500", "114501.317500", "114502.807500", "114504.297500", "114505.787500", "114507.277500", "114508.767500", "114510.257500", "114511.747500", "114513.237500", "114514.727500", "114516.217500", "114517.707500", "114519.197500", "114520.687500", "114522.177500", "114523.667500", "114525.157500", "114526.647500", "114528.137500", "114529.627500", "114531.117500", "114532.607500", "114534.097500", "114535.587500", "114537.077500", "114538.567500", "114540.057500", "114541.547500", "114543.037500", "114544.527500", "114546.017500", "114547.507500", "114548.997500", "114550.487500", "114551.977500", "114553.467500", "114554.957500", "114556.447500", "114557.937500", "114559.427500", "114600.917500", "114602.407500", "114603.897500", "114605.387500", "114606.877500", "114608.367500", "114609.857500", "114611.347500", "114612.837500", "114614.327500", "114615.817500", "114617.307500", "114618.797500", "114620.287500", "114621.777500", "114623.267500", "114624.757500", "114626.247500", "114627.737500", "114629.227500", "114630.717500", "114632.207500", "114633.697500", "114635.187500", "114636.677500", "114638.167500", "114639.657500", "114641.147500", "114642.637500", "114644.127500", "114645.617500", "114647.107500", "114648.597500", "114650.087500", "114651.577500", "114653.067500", "114654.557500", "114656.047500", "114657.537500", "114659.027500", "114700.517500", "114702.007500", "114703.497500", "114704.987500", "114706.477500", "114707.967500", "114709.457500", "114710.947500", "114712.437500", "114713.927500", "114715.417500", "114716.907500", "114718.397500", "114719.887500", "114721.377500", "114722.867500", "114724.357500", "114725.847500", "114727.337500", "114728.827500", "114730.317500", "114731.807500", "114733.297500", "114734.787500", "114736.277500", "114737.767500", "114739.257500", "114740.747500", "114742.237500", "114743.727500", "114745.217500", "114746.707500", "114748.197500", "114749.687500", "114751.177500", "114752.667500", "114754.157500", "114755.647500", "114757.137500", "114758.627500", "114800.117500", "114801.607500", "114803.097500", "114804.587500", "114806.077500", "114807.567500", "114809.057500", "114810.547500", "114812.037500", "114813.527500", "114815.017500", "114816.507500", "114817.997500", "114819.487500", "114820.977500", "114822.467500", "114823.957500", "114825.447500", "114826.937500", "114828.427500", "114829.917500", "114831.407500", "114832.897500", "114834.387500", "114835.877500", "114837.367500", "114838.857500", "114840.347500", "114841.837500", "114843.327500", "114844.817500", "114846.307500", "114847.797500", "114849.287500", "114850.777500", "114852.267500", "114853.757500", "114855.247500", "114856.737500", "114858.227500", "114859.717500", "114901.207500", "114902.697500", "114904.187500", "114905.677500", "114907.167500", "114908.657500", "114910.147500", "114911.637500", "114913.127500", "114914.617500", "114916.107500", "114917.597500", "114919.087500", "114920.577500", "114922.067500", "114923.557500", "114925.047500", "114926.537500", "114928.027500", "114929.517500", "114931.007500", "114932.497500", "114933.987500", "114935.477500", "114936.967500", "114938.457500", "114939.947500", "114941.437500", "114942.927500", "114944.417500", "114945.907500", "114947.397500", "114948.887500", "114950.377500", "114951.867500", "114953.357500", "114954.847500", "114956.337500", "114957.827500", "114959.317500", "115000.807500"],
      "ContentTime": ["113903.406000", "113903.409000", "113903.412000", "113903.415000", "113903.423000", "113903.426000", "113903.429000", "113903.432000", "113903.435000", "113903.437000", "113903.450000", "113903.453000", "113903.456000", "113903.459000", "113903.462000", "113903.465000", "113903.468000", "113903.471000", "113903.474000", "113903.477000", "113903.480000", "113903.483000", "113903.486000", "113903.489000", "113903.491000", "113903.494000", "113903.497000", "113903.500000", "113903.507000", "113903.510000", "113903.513000", "113903.516000", "113903.519000", "113903.522000", "113903.525000", "113903.528000", "113903.530000", "113903.533000", "113923.377000", "113923.380000", "113923.383000", "113923.386000", "113923.389000", "113923.400000", "113923.403000", "113923.405000", "113923.408000", "113923.411000", "113923.414000", "113923.417000", "113923.420000", "113923.423000", "113923.426000", "113923.429000", "113923.432000", "113923.435000", "113923.438000", "113923.441000", "113943.377000", "113943.380000", "113943.383000", "113943.386000", "113943.389000", "113943.392000", "113943.395000", "113943.398000", "113943.401000", "113943.404000", "113943.406000", "113943.409000", "113943.412000", "113943.415000", "113943.418000", "113943.421000", "113943.424000", "113943.427000", "113943.430000", "113943.433000", "113943.436000", "114003.377000", "114003.380000", "114003.383000", "114003.386000", "114003.389000", "114003.392000", "114003.395000", "114003.397000", "114003.401000", "114003.403000", "114003.406000", "114003.409000", "114003.412000", "114003.415000", "114003.418000", "114003.421000", "114003.424000", "114003.427000", "114003.430000", "114003.433000", "114043.377000", "114043.380000", "114043.383000", "114043.386000", "114043.389000", "114043.392000", "114043.395000", "114043.398000", "114043.401000", "114043.403000", "114043.406000", "114043.409000", "114043.412000", "114043.415000", "114043.418000", "114043.421000", "114043.424000", "114043.427000", "114043.430000", "114043.433000", "114043.436000", "114043.439000", "114043.441000", "114043.444000", "114043.447000", "114043.450000", "114043.453000", "114043.456000", "114043.459000", "114123.377000", "114123.380000", "114123.383000", "114123.386000", "114123.389000", "114123.392000", "114123.395000", "114123.397000", "114123.400000", "114123.403000", "114123.406000", "114123.409000", "114123.412000", "114123.415000", "114123.418000", "114123.421000", "114123.424000", "114123.426000", "114123.429000", "114123.432000", "114123.435000", "114123.438000", "114123.441000", "114123.444000", "114123.447000", "114123.450000", "114123.452000", "114143.377000", "114143.380000", "114143.383000", "114143.386000", "114143.389000", "114143.392000", "114143.394000", "114143.397000", "114143.400000", "114143.403000", "114143.406000", "114143.409000", "114143.412000", "114223.377000", "114223.397000", "114223.400000", "114223.403000", "114223.406000", "114223.409000", "114223.412000", "114223.415000", "114223.418000", "114223.421000", "114223.424000", "114223.426000", "114223.429000", "114223.432000", "114223.435000", "114223.438000", "114223.441000", "114223.444000", "114223.447000", "114223.450000", "114223.453000", "114223.456000", "114223.459000", "114223.461000", "114223.464000", "114223.467000", "114223.470000", "114303.377000", "114303.380000", "114303.383000", "114303.386000", "114303.389000", "114303.401000", "114303.404000", "114303.407000", "114303.410000", "114303.413000", "114303.416000", "114303.418000", "114303.421000", "114303.424000", "114303.427000", "114303.430000", "114303.433000", "114303.436000", "114303.439000", "114303.442000", "114303.445000", "114303.448000", "114303.450000", "114303.453000", "114303.456000", "114303.459000", "114303.462000", "114343.377000", "114343.380000", "114343.383000", "114343.386000", "114343.389000", "114343.392000", "114343.395000", "114343.398000", "114343.400000", "114343.403000", "114343.406000", "114343.409000", "114343.412000", "114343.415000", "114343.418000", "114343.421000", "114343.424000", "114343.427000", "114343.430000", "114343.433000", "114343.435000", "114343.438000", "114343.441000", "114343.444000", "114343.447000", "114343.456000", "114343.458000", "114423.377000", "114423.380000", "114423.383000", "114423.386000", "114423.389000", "114423.392000", "114423.395000", "114423.397000", "114423.400000", "114423.403000", "114423.406000", "114423.409000", "114423.412000", "114423.415000", "114423.418000", "114423.421000", "114423.424000", "114423.427000", "114423.430000", "114423.433000", "114423.437000", "114423.440000", "114423.443000", "114423.446000", "114423.449000", "114423.451000", "114503.376000", "114503.379000", "114503.382000", "114503.385000", "114503.388000", "114503.391000", "114503.394000", "114503.397000", "114503.399000", "114503.402000", "114503.405000", "114503.408000", "114503.411000", "114503.414000", "114503.417000", "114503.420000", "114503.423000", "114503.426000", "114503.429000", "114503.432000", "114503.434000", "114503.437000", "114503.440000", "114503.443000", "114503.446000", "114503.449000", "114503.452000", "114543.377000", "114543.380000", "114543.383000", "114543.386000", "114543.389000", "114543.392000", "114543.395000", "114543.397000", "114543.400000", "114543.403000", "114543.406000", "114543.409000", "114543.412000", "114543.415000", "114543.418000", "114543.421000", "114543.424000", "114543.426000", "114543.429000", "114543.432000", "114543.435000", "114543.438000", "114543.441000", "114543.444000", "114543.447000", "114543.450000", "114543.453000", "114623.377000", "114623.380000", "114623.383000", "114623.386000", "114623.389000", "114623.392000", "114623.395000", "114623.398000", "114623.400000", "114623.403000", "114623.406000", "114623.409000", "114623.412000", "114623.415000", "114623.418000", "114623.421000", "114623.424000", "114623.427000", "114623.430000", "114623.433000", "114623.436000", "114623.438000", "114623.441000", "114623.444000", "114623.447000", "114623.450000", "114623.453000", "114703.377000", "114703.380000", "114703.383000", "114703.386000", "114703.389000", "114703.392000", "114703.395000", "114703.398000", "114703.401000", "114703.404000", "114703.407000", "114703.410000", "114703.413000", "114703.415000", "114703.418000", "114703.421000", "114703.424000", "114703.427000", "114703.430000", "114703.433000", "114703.436000", "114703.439000", "114703.442000", "114703.445000", "114703.448000", "114703.450000", "114703.453000", "114743.377000", "114743.388000", "114743.391000", "114743.394000", "114743.397000", "114743.400000", "114743.403000", "114743.405000", "114743.408000", "114743.411000", "114743.414000", "114743.417000", "114743.420000", "114743.423000", "114743.426000", "114743.429000", "114743.432000", "114743.435000", "114743.438000", "114743.441000", "114743.444000", "114743.447000", "114743.450000", "114743.452000", "114743.455000", "114743.458000", "114743.461000", "114823.377000", "114823.381000", "114823.384000", "114823.387000", "114823.389000", "114823.392000", "114823.395000", "114823.398000", "114823.401000", "114823.404000", "114823.407000", "114823.410000", "114823.413000", "114823.416000", "114823.419000", "114823.421000", "114823.424000", "114823.427000", "114823.430000", "114823.433000", "114823.436000", "114823.440000", "114823.443000", "114823.447000", "114823.450000", "114823.454000", "114903.377000", "114903.380000", "114903.383000", "114903.386000", "114903.389000", "114903.392000", "114903.395000", "114903.398000", "114903.401000", "114903.404000", "114903.407000", "114903.409000", "114903.412000", "114903.415000", "114903.418000", "114903.421000", "114903.424000", "114903.427000", "114903.430000", "114903.433000", "114903.436000", "114903.439000", "114903.442000", "114903.444000", "114903.447000", "114903.450000", "114903.453000", "114943.376000", "114943.379000", "114943.386000", "114943.389000", "114943.392000", "114943.395000", "114943.398000", "114943.401000", "114943.404000", "114943.407000", "114943.410000", "114943.413000", "114943.416000", "114943.419000", "114943.422000", "114943.424000", "114943.427000", "114943.430000", "114943.433000", "114943.436000", "114943.439000", "114943.442000", "114943.445000", "114943.448000", "114943.451000", "114943.454000", "114943.457000", "115003.348000", "115003.351000", "115003.354000", "115003.358000", "115003.361000", "115003.364000", "115003.367000", "115003.370000", "115003.373000", "115003.376000", "115003.379000", "115003.382000", "115003.385000", "115003.388000"],
