{
  "AcquisitionMatrixPE": 104,
  "AcquisitionNumber": 1,
  "AcquisitionTime": "11:23:31.435000",
  "BandwidthPerPixelPhaseEncode": 17.17,
  "BaseResolution": 104,
  "BodyPartExamined": "BRAIN",
  "CoilString": "HC1-7;NC1_2",
  "ConsistencyInfo": "N4_VE11C_LATEST_20160120",
  "ConversionSoftware": "dcm2niix",
  "ConversionSoftwareVersion": "v1.0.20190902",
  "DerivedVendorReportedEchoSpacing": 0.000560011,
  "DeviceSerialNumber": "167006",
  "DwellTime": 2.1e-06,
  "EchoTime": 0.037,
  "EchoTrainLength": 104,
  "EffectiveEchoSpacing": 0.000560011,
  "FlipAngle": 52,
  "ImageComments": "Unaliased_MB4_PE3_LB",
  "ImageOrientationPatientDICOM": [0.998985, 0.0373104, 0.0252339, -0.0265083, 0.939932, -0.340331],
  "ImageType": [
    "ORIGINAL",
    "PRIMARY",
    "M",
    "MB",
    "ND",
    "MOSAIC"
],
  "ImagingFrequency": 123.259,
  "InPlanePhaseEncodingDirectionDICOM": "COL",
  "InstitutionAddress": "Chemin_Queen-Mary_4565_Montreal_District_CA_H3W_1W5",
  "InstitutionName": "IUGM",
  "InstitutionalDepartmentName": "Department",
  "MRAcquisitionType": "2D",
  "MagneticFieldStrength": 3,
  "Manufacturer": "Siemens",
  "ManufacturersModelName": "Prisma_fit",
  "Modality": "MR",
  "MultibandAccelerationFactor": 4,
  "PartialFourier": 1,
  "PatientPosition": "HFS",
  "PercentPhaseFOV": 100,
  "PhaseEncodingDirection": "j",
  "PhaseEncodingSteps": 104,
  "PhaseResolution": 1,
  "PixelBandwidth": 2290,
  "ProcedureStepDescription": "video_friends",
  "ProtocolName": "func_task-friends-s04e23b",
  "PulseSequenceDetails": "%CustomerSeq%_cmrr_mbep2d_bold",
  "ReceiveCoilActiveElements": "HC1-7;NC1,2",
  "ReceiveCoilName": "HeadNeck_64",
  "ReconMatrixPE": 104,
  "RepetitionTime": 1.49,
  "SAR": 0.0382514,
  "ScanOptions": "FS",
  "ScanningSequence": "EP",
  "SequenceName": "epfid2d1_104",
  "SequenceVariant": "SK_SS",
  "SeriesDescription": "func_task-friends-s04e23b",
  "SeriesNumber": 11,
  "ShimSetting": [634, -7196, -8844, 665, 69, 9, 65, -3],
  "SliceThickness": 2,
  "SliceTiming": [0, 0.785, 0.1, 0.8825, 0.1975, 0.98, 0.295, 1.08, 0.3925, 1.1775, 0.49, 1.275, 0.59, 1.3725, 0.6875, 0, 0.785, 0.1, 0.8825, 0.1975, 0.98, 0.295, 1.08, 0.3925, 1.1775, 0.49, 1.275, 0.59, 1.3725, 0.6875, 0, 0.785, 0.1, 0.8825, 0.1975, 0.98, 0.295, 1.08, 0.3925, 1.1775, 0.49, 1.275, 0.59, 1.3725, 0.6875, 0, 0.785, 0.1, 0.8825, 0.1975, 0.98, 0.295, 1.08, 0.3925, 1.1775, 0.49, 1.275, 0.59, 1.3725, 0.6875],
  "SoftwareVersions": "syngo_MR_E11",
  "SpacingBetweenSlices": 2,
  "StationName": "MRC35049",
  "TaskName": "s04e23b",
  "TotalReadoutTime": 0.0576811,
  "TxRefAmp": 248.604,
  "WipMemBlock": "c9ae03a9-6795-49f4-a3d7-84b97d79f341||Sequence: R016 ve11c/master r/e634e98; Dec 19 2017 11:00:25 by eja",
  "dcmmeta_affine": [
    [-1.9979701042175293, -0.0530165396630764, 0.07283198833465576, 104.42218780517578],
    [-0.07462078332901001, 1.879863977432251, -0.6786332130432129, -66.4238510131836],
    [0.05046772584319115, 0.6806618571281433, 1.8799341917037964, -66.64122772216797],
    [0.0, 0.0, 0.0, 1.0]
],
  "dcmmeta_reorient_transform": [
    [0.0, -1.0, 0.0, 103.0],
    [1.0, 0.0, 0.0, 0.0],
    [0.0, 0.0, 1.0, 0.0],
    [0.0, 0.0, 0.0, 1.0]
],
  "dcmmeta_shape": [104, 104, 60, 504],
  "dcmmeta_slice_dim": 2,
  "dcmmeta_version": 0.6,
  "global": {
    "const": {
      "AcquisitionMatrix": [104, 0, 0, 104],
      "AngioFlag": "N",
      "BitsAllocated": 16,
      "BitsStored": 16,
      "BodyPartExamined": "BRAIN",
      "Columns": 832,
      "EchoNumbers": 1,
      "EchoTime": 37.0,
      "EchoTrainLength": 104,
      "FlipAngle": 52.0,
      "HighBit": 15,
      "ImageOrientationPatient": [0.99898507842913, 0.0373103910444, 0.02523386209158, -0.0265082706726, 0.93993200300887, -0.3403309291053],
      "ImagePositionPatient": [-806.92460308414, -838.63460343191, 232.85761148578],
      "ImageType": [
        "ORIGINAL",
        "PRIMARY",
        "M",
        "MB",
        "ND",
        "MOSAIC"
],
      "ImagedNucleus": "1H",
      "ImagingFrequency": 123.258979,
      "InPlanePhaseEncodingDirection": "COL",
      "MRAcquisitionType": "2D",
      "MagneticFieldStrength": 3.0,
      "Manufacturer": "SIEMENS",
      "ManufacturerModelName": "Prisma_fit",
      "Modality": "MR",
      "NumberOfAverages": 1.0,
      "NumberOfPhaseEncodingSteps": 104,
      "PercentPhaseFieldOfView": 100.0,
      "PercentSampling": 100.0,
      "PerformedProcedureStepStartTime": "101308.875000",
      "PhotometricInterpretation": "MONOCHROME2",
      "PixelBandwidth": 2290.0,
      "PixelRepresentation": 0,
      "PixelSpacing": [2.0, 2.0],
      "ProtocolName": "func_task-friends-s04e23b",
      "RepetitionTime": 1490.0,
      "Rows": 832,
      "SAR": 0.03825139444777,
      "SamplesPerPixel": 1,
      "ScanOptions": "FS",
      "ScanningSequence": "EP",
      "SequenceName": "epfid2d1_104",
      "SequenceVariant": [
        "SK",
        "SS"
],
      "SeriesDescription": "func_task-friends-s04e23b",
      "SeriesNumber": 11,
      "SeriesTime": "112503.489000",
      "SliceLocation": -36.299202869376,
      "SliceThickness": 2.0,
      "SmallestImagePixelValue": 0,
      "SoftwareVersions": "syngo MR E11",
      "SpacingBetweenSlices": 2.0000000298133,
      "SpecificCharacterSet": "ISO_IR 100",
      "StudyID": "1",
      "StudyTime": "101308.784000",
      "TransmitCoilName": "Body",
      "VariableFlipAngleFlag": "N",
      "WindowCenterWidthExplanation": "Algo1",
      "dBdt": 0.0},
    "slices": {}
  },
  "time": {
    "samples": {
      "AcquisitionNumber": [1, 2, 3, 4, 5, 6, 7, 8, 9, 10, 11, 12, 13, 14, 15, 16, 17, 18, 19, 20, 21, 22, 23, 24, 25, 26, 27, 28, 29, 30, 31, 32, 33, 34, 35, 36, 37, 38, 39, 40, 41, 42, 43, 44, 45, 46, 47, 48, 49, 50, 51, 52, 53, 54, 55, 56, 57, 58, 59, 60, 61, 62, 63, 64, 65, 66, 67, 68, 69, 70, 71, 72, 73, 74, 75, 76, 77, 78, 79, 80, 81, 82, 83, 84, 85, 86, 87, 88, 89, 90, 91, 92, 93, 94, 95, 96, 97, 98, 99, 100, 101, 102, 103, 104, 105, 106, 107, 108, 109, 110, 111, 112, 113, 114, 115, 116, 117, 118, 119, 120, 121, 122, 123, 124, 125, 126, 127, 128, 129, 130, 131, 132, 133, 134, 135, 136, 137, 138, 139, 140, 141, 142, 143, 144, 145, 146, 147, 148, 149, 150, 151, 152, 153, 154, 155, 156, 157, 158, 159, 160, 161, 162, 163, 164, 165, 166, 167, 168, 169, 170, 171, 172, 173, 174, 175, 176, 177, 178, 179, 180, 181, 182, 183, 184, 185, 186, 187, 188, 189, 190, 191, 192, 193, 194, 195, 196, 197, 198, 199, 200, 201, 202, 203, 204, 205, 206, 207, 208, 209, 210, 211, 212, 213, 214, 215, 216, 217, 218, 219, 220, 221, 222, 223, 224, 225, 226, 227, 228, 229, 230, 231, 232, 233, 234, 235, 236, 237, 238, 239, 240, 241, 242, 243, 244, 245, 246, 247, 248, 249, 250, 251, 252, 253, 254, 255, 256, 257, 258, 259, 260, 261, 262, 263, 264, 265, 266, 267, 268, 269, 270, 271, 272, 273, 274, 275, 276, 277, 278, 279, 280, 281, 282, 283, 284, 285, 286, 287, 288, 289, 290, 291, 292, 293, 294, 295, 296, 297, 298, 299, 300, 301, 302, 303, 304, 305, 306, 307, 308, 309, 310, 311, 312, 313, 314, 315, 316, 317, 318, 319, 320, 321, 322, 323, 324, 325, 326, 327, 328, 329, 330, 331, 332, 333, 334, 335, 336, 337, 338, 339, 340, 341, 342, 343, 344, 345, 346, 347, 348, 349, 350, 351, 352, 353, 354, 355, 356, 357, 358, 359, 360, 361, 362, 363, 364, 365, 366, 367, 368, 369, 370, 371, 372, 373, 374, 375, 376, 377, 378, 379, 380, 381, 382, 383, 384, 385, 386, 387, 388, 389, 390, 391, 392, 393, 394, 395, 396, 397, 398, 399, 400, 401, 402, 403, 404, 405, 406, 407, 408, 409, 410, 411, 412, 413, 414, 415, 416, 417, 418, 419, 420, 421, 422, 423, 424, 425, 426, 427, 428, 429, 430, 431, 432, 433, 434, 435, 436, 437, 438, 439, 440, 441, 442, 443, 444, 445, 446, 447, 448, 449, 450, 451, 452, 453, 454, 455, 456, 457, 458, 459, 460, 461, 462, 463, 464, 465, 466, 467, 468, 469, 470, 471, 472, 473, 474, 475, 476, 477, 478, 479, 480, 481, 482, 483, 484, 485, 486, 487, 488, 489, 490, 491, 492, 493, 494, 495, 496, 497, 498, 499, 500, 501, 502, 503, 504],
      "AcquisitionTime": ["112331.435000", "112332.925000", "112334.415000", "112335.905000", "112337.395000", "112338.885000", "112340.375000", "112341.865000", "112343.355000", "112344.845000", "112346.335000", "112347.825000", "112349.315000", "112350.805000", "112352.295000", "112353.785000", "112355.275000", "112356.765000", "112358.255000", "112359.745000", "112401.235000", "112402.725000", "112404.215000", "112405.705000", "112407.195000", "112408.685000", "112410.175000", "112411.665000", "112413.155000", "112414.645000", "112416.135000", "112417.625000", "112419.115000", "112420.605000", "112422.095000", "112423.585000", "112425.075000", "112426.565000", "112428.055000", "112429.545000", "112431.035000", "112432.525000", "112434.015000", "112435.505000", "112436.995000", "112438.485000", "112439.975000", "112441.465000", "112442.955000", "112444.445000", "112445.935000", "112447.425000", "112448.915000", "112450.405000", "112451.895000", "112453.385000", "112454.875000", "112456.365000", "112457.855000", "112459.345000", "112500.835000", "112502.325000", "112503.815000", "112505.305000", "112506.795000", "112508.285000", "112509.775000", "112511.265000", "112512.755000", "112514.245000", "112515.735000", "112517.225000", "112518.715000", "112520.205000", "112521.695000", "112523.185000", "112524.675000", "112526.165000", "112527.655000", "112529.145000", "112530.635000", "112532.125000", "112533.615000", "112535.105000", "112536.595000", "112538.085000", "112539.575000", "112541.065000", "112542.555000", "112544.045000", "112545.535000", "112547.025000", "112548.515000", "112550.005000", "112551.495000", "112552.985000", "112554.475000", "112555.965000", "112557.455000", "112558.945000", "112600.435000", "112601.925000", "112603.415000", "112604.905000", "112606.395000", "112607.885000", "112609.375000", "112610.865000", "112612.355000", "112613.845000", "112615.335000", "112616.825000", "112618.315000", "112619.805000", "112621.295000", "112622.785000", "112624.275000", "112625.765000", "112627.255000", "112628.745000", "112630.235000", "112631.725000", "112633.215000", "112634.705000", "112636.195000", "112637.685000", "112639.175000", "112640.665000", "112642.155000", "112643.645000", "112645.135000", "112646.625000", "112648.115000", "112649.605000", "112651.095000", "112652.585000", "112654.075000", "112655.565000", "112657.055000", "112658.545000", "112700.035000", "112701.525000", "112703.015000", "112704.505000", "112705.995000", "112707.485000", "112708.975000", "112710.465000", "112711.955000", "112713.445000", "112714.935000", "112716.425000", "112717.915000", "112719.405000", "112720.895000", "112722.385000", "112723.875000", "112725.365000", "112726.855000", "112728.345000", "112729.835000", "112731.325000", "112732.815000", "112734.305000", "112735.795000", "112737.285000", "112738.775000", "112740.265000", "112741.755000", "112743.245000", "112744.735000", "112746.225000", "112747.715000", "112749.205000", "112750.695000", "112752.185000", "112753.675000", "112755.165000", "112756.655000", "112758.145000", "112759.635000", "112801.125000", "112802.615000", "112804.105000", "112805.595000", "112807.085000", "112808.575000", "112810.065000", "112811.555000", "112813.045000", "112814.535000", "112816.025000", "112817.515000", "112819.005000", "112820.495000", "112821.985000", "112823.475000", "112824.965000", "112826.455000", "112827.945000", "112829.435000", "112830.925000", "112832.415000", "112833.905000", "112835.395000", "112836.885000", "112838.375000", "112839.865000", "112841.355000", "112842.845000", "112844.335000", "112845.825000", "112847.315000", "112848.805000", "112850.295000", "112851.785000", "112853.275000", "112854.765000", "112856.255000", "112857.745000", "112859.235000", "112900.725000", "112902.215000", "112903.705000", "112905.195000", "112906.685000", "112908.175000", "112909.665000", "112911.155000", "112912.645000", "112914.135000", "112915.625000", "112917.115000", "112918.605000", "112920.095000", "112921.585000", "112923.075000", "112924.565000", "112926.055000", "112927.545000", "112929.035000", "112930.525000", "112932.015000", "112933.505000", "112934.995000", "112936.485000", "112937.975000", "112939.465000", "112940.955000", "112942.445000", "112943.935000", "112945.425000", "112946.915000", "112948.405000", "112949.895000", "112951.385000", "112952.875000", "112954.365000", "112955.855000", "112957.345000", "112958.835000", "113000.325000", "113001.815000", "113003.305000", "113004.795000", "113006.285000", "113007.775000", "113009.265000", "113010.755000", "113012.245000", "113013.735000", "113015.225000", "113016.715000", "113018.205000", "113019.695000", "113021.185000", "113022.675000", "113024.165000", "113025.655000", "113027.145000", "113028.635000", "113030.125000", "113031.615000", "113033.105000", "113034.595000", "113036.085000", "113037.575000", "113039.065000", "113040.555000", "113042.045000", "113043.535000", "113045.025000", "113046.515000", "113048.005000", "113049.495000", "113050.985000", "113052.475000", "113053.965000", "113055.455000", "113056.945000", "113058.435000", "113059.925000", "113101.415000", "113102.905000", "113104.395000", "113105.885000", "113107.375000", "113108.865000", "113110.355000", "113111.845000", "113113.335000", "113114.825000", "113116.315000", "113117.805000", "113119.295000", "113120.785000", "113122.275000", "113123.765000", "113125.255000", "113126.745000", "113128.235000", "113129.725000", "113131.215000", "113132.705000", "113134.195000", "113135.685000", "113137.175000", "113138.665000", "113140.155000", "113141.645000", "113143.135000", "113144.625000", "113146.115000", "113147.605000", "113149.095000", "113150.585000", "113152.075000", "113153.565000", "113155.055000", "113156.545000", "113158.035000", "113159.525000", "113201.015000", "113202.505000", "113203.995000", "113205.485000", "113206.975000", "113208.465000", "113209.955000", "113211.445000", "113212.935000", "113214.425000", "113215.915000", "113217.405000", "113218.895000", "113220.385000", "113221.875000", "113223.365000", "113224.855000", "113226.345000", "113227.835000", "113229.325000", "113230.815000", "113232.305000", "113233.795000", "113235.285000", "113236.775000", "113238.265000", "113239.755000", "113241.245000", "113242.735000", "113244.225000", "113245.715000", "113247.205000", "113248.695000", "113250.185000", "113251.675000", "113253.165000", "113254.655000", "113256.145000", "113257.635000", "113259.125000", "113300.615000", "113302.105000", "113303.595000", "113305.085000", "113306.575000", "113308.065000", "113309.555000", "113311.045000", "113312.535000", "113314.025000", "113315.515000", "113317.005000", "113318.495000", "113319.985000", "113321.475000", "113322.965000", "113324.455000", "113325.945000", "113327.435000", "113328.925000", "113330.415000", "113331.905000", "113333.395000", "113334.885000", "113336.375000", "113337.865000", "113339.355000", "113340.845000", "113342.335000", "113343.825000", "113345.315000", "113346.805000", "113348.295000", "113349.785000", "113351.275000", "113352.765000", "113354.255000", "113355.745000", "113357.235000", "113358.725000", "113400.215000", "113401.705000", "113403.195000", "113404.685000", "113406.175000", "113407.665000", "113409.155000", "113410.645000", "113412.135000", "113413.625000", "113415.115000", "113416.605000", "113418.095000", "113419.585000", "113421.075000", "113422.565000", "113424.055000", "113425.545000", "113427.035000", "113428.525000", "113430.015000", "113431.505000", "113432.995000", "113434.485000", "113435.975000", "113437.465000", "113438.955000", "113440.445000", "113441.935000", "113443.425000", "113444.915000", "113446.405000", "113447.895000", "113449.385000", "113450.875000", "113452.365000", "113453.855000", "113455.345000", "113456.835000", "113458.325000", "113459.815000", "113501.305000", "113502.795000", "113504.285000", "113505.775000", "113507.265000", "113508.755000", "113510.245000", "113511.735000", "113513.225000", "113514.715000", "113516.205000", "113517.695000", "113519.185000", "113520.675000", "113522.165000", "113523.655000", "113525.145000", "113526.635000", "113528.125000", "113529.615000", "113531.105000", "113532.595000", "113534.085000", "113535.575000", "113537.065000", "113538.555000", "113540.045000", "113541.535000", "113543.025000", "113544.515000", "113546.005000", "113547.495000", "113548.985000", "113550.475000", "113551.965000", "113553.455000", "113554.945000", "113556.435000", "113557.925000", "113559.415000", "113600.905000"],
      "ContentTime": ["112503.492000", "112503.495000", "112503.498000", "112503.501000", "112503.504000", "112503.512000", "112503.515000", "112503.518000", "112503.520000", "112503.523000", "112503.526000", "112503.529000", "112503.532000", "112503.535000", "112503.538000", "112503.541000", "112503.544000", "112503.547000", "112503.550000", "112503.552000", "112503.555000", "112503.558000", "112503.561000", "112503.564000", "112503.571000", "112503.574000", "112503.576000", "112503.579000", "112503.582000", "112503.585000", "112503.588000", "112503.591000", "112503.594000", "112503.597000", "112503.600000", "112503.603000", "112503.606000", "112503.609000", "112523.459000", "112523.462000", "112523.465000", "112523.468000", "112523.471000", "112523.474000", "112523.476000", "112523.479000", "112523.482000", "112523.485000", "112523.488000", "112523.491000", "112523.502000", "112523.505000", "112523.508000", "112523.511000", "112523.514000", "112523.516000", "112523.520000", "112523.523000", "112543.459000", "112543.462000", "112543.465000", "112543.468000", "112543.471000", "112543.474000", "112543.477000", "112543.480000", "112543.483000", "112543.486000", "112543.489000", "112543.492000", "112543.495000", "112543.497000", "112543.500000", "112543.503000", "112543.506000", "112543.509000", "112543.512000", "112543.515000", "112543.518000", "112603.459000", "112603.462000", "112603.465000", "112603.468000", "112603.471000", "112603.474000", "112603.477000", "112603.480000", "112603.483000", "112603.486000", "112603.489000", "112603.492000", "112603.495000", "112603.497000", "112603.500000", "112603.503000", "112603.506000", "112603.509000", "112603.512000", "112603.515000", "112643.459000", "112643.462000", "112643.465000", "112643.468000", "112643.471000", "112643.474000", "112643.477000", "112643.480000", "112643.483000", "112643.486000", "112643.488000", "112643.491000", "112643.494000", "112643.497000", "112643.500000", "112643.503000", "112643.506000", "112643.509000", "112643.512000", "112643.515000", "112643.518000", "112643.521000", "112643.524000", "112643.526000", "112643.529000", "112643.532000", "112643.535000", "112643.538000", "112643.541000", "112723.459000", "112723.462000", "112723.465000", "112723.468000", "112723.471000", "112723.474000", "112723.477000", "112723.480000", "112723.483000", "112723.486000", "112723.489000", "112723.492000", "112723.495000", "112723.498000", "112723.519000", "112723.522000", "112723.525000", "112723.528000", "112723.531000", "112723.534000", "112723.538000", "112723.541000", "112723.544000", "112723.547000", "112723.550000", "112723.553000", "112723.556000", "112803.459000", "112803.462000", "112803.465000", "112803.468000", "112803.471000", "112803.474000", "112803.477000", "112803.480000", "112803.483000", "112803.485000", "112803.488000", "112803.491000", "112803.494000", "112803.497000", "112803.500000", "112803.503000", "112803.512000", "112803.515000", "112803.518000", "112803.521000", "112803.524000", "112803.527000", "112803.530000", "112803.533000", "112803.536000", "112803.538000", "112803.541000", "112843.458000", "112843.461000", "112843.464000", "112843.467000", "112843.470000", "112843.473000", "112843.476000", "112843.479000", "112843.482000", "112843.485000", "112843.488000", "112843.490000", "112843.493000", "112843.496000", "112843.499000", "112843.502000", "112843.505000", "112843.508000", "112843.511000", "112843.514000", "112843.517000", "112843.520000", "112843.523000", "112843.526000", "112843.529000", "112843.532000", "112843.535000", "112923.459000", "112923.462000", "112923.465000", "112923.468000", "112923.471000", "112923.474000", "112923.477000", "112923.479000", "112923.482000", "112923.485000", "112923.488000", "112923.491000", "112923.494000", "112923.497000", "112923.500000", "112923.503000", "112923.506000", "112923.509000", "112923.511000", "112923.514000", "112923.517000", "112923.521000", "112923.524000", "112923.527000", "112923.530000", "112923.533000", "113003.459000", "113003.462000", "113003.465000", "113003.468000", "113003.471000", "113003.474000", "113003.477000", "113003.480000", "113003.483000", "113003.486000", "113003.489000", "113003.491000", "113003.494000", "113003.497000", "113003.500000", "113003.503000", "113003.511000", "113003.514000", "113003.517000", "113003.520000", "113003.523000", "113003.526000", "113003.529000", "113003.531000", "113003.534000", "113003.537000", "113003.540000", "113043.459000", "113043.462000", "113043.465000", "113043.468000", "113043.471000", "113043.473000", "113043.476000", "113043.479000", "113043.482000", "113043.485000", "113043.488000", "113043.491000", "113043.494000", "113043.497000", "113043.500000", "113043.503000", "113043.506000", "113043.509000", "113043.512000", "113043.515000", "113043.518000", "113043.520000", "113043.523000", "113043.526000", "113043.529000", "113043.532000", "113043.535000", "113123.459000", "113123.462000", "113123.465000", "113123.468000", "113123.471000", "113123.474000", "113123.477000", "113123.479000", "113123.482000", "113123.485000", "113123.488000", "113123.491000", "113123.494000", "113123.497000", "113123.500000", "113123.503000", "113123.506000", "113123.509000", "113123.512000", "113123.515000", "113123.518000", "113123.520000", "113123.523000", "113123.526000", "113123.529000", "113123.532000", "113123.535000", "113203.459000", "113203.462000", "113203.465000", "113203.468000", "113203.471000", "113203.474000", "113203.486000", "113203.489000", "113203.492000", "113203.495000", "113203.514000", "113203.517000", "113203.520000", "113203.522000", "113203.525000", "113203.528000", "113203.531000", "113203.534000", "113203.537000", "113203.540000", "113203.543000", "113203.546000", "113203.549000", "113203.552000", "113203.555000", "113203.558000", "113203.560000", "113243.459000", "113243.462000", "113243.465000", "113243.468000", "113243.471000", "113243.474000", "113243.477000", "113243.480000", "113243.482000", "113243.485000", "113243.488000", "113243.491000", "113243.494000", "113243.497000", "113243.500000", "113243.503000", "113243.506000", "113243.509000", "113243.512000", "113243.515000", "113243.518000", "113243.521000", "113243.524000", "113243.527000", "113243.530000", "113243.532000", "113243.535000", "113323.458000", "113323.461000", "113323.464000", "113323.467000", "113323.470000", "113323.473000", "113323.476000", "113323.479000", "113323.482000", "113323.485000", "113323.488000", "113323.491000", "113323.494000", "113323.497000", "113323.500000", "113323.503000", "113323.506000", "113323.509000", "113323.512000", "113323.515000", "113323.517000", "113323.520000", "113323.524000", "113323.528000", "113323.532000", "113323.536000", "113403.459000", "113403.462000", "113403.465000", "113403.468000", "113403.471000", "113403.474000", "113403.477000", "113403.480000", "113403.483000", "113403.486000", "113403.489000", "113403.492000", "113403.494000", "113403.497000", "113403.500000", "113403.503000", "113403.506000", "113403.509000", "113403.512000", "113403.515000", "113403.518000", "113403.521000", "113403.524000", "113403.527000", "113403.530000", "113403.533000", "113403.536000", "113443.459000", "113443.462000", "113443.465000", "113443.468000", "113443.471000", "113443.474000", "113443.477000", "113443.480000", "113443.483000", "113443.486000", "113443.489000", "113443.492000", "113443.495000", "113443.498000", "113443.500000", "113443.503000", "113443.506000", "113443.509000", "113443.512000", "113443.515000", "113443.518000", "113443.521000", "113443.524000", "113443.527000", "113443.530000", "113443.533000", "113443.536000", "113523.459000", "113523.462000", "113523.465000", "113523.468000", "113523.471000", "113523.474000", "113523.477000", "113523.480000", "113523.483000", "113523.485000", "113523.488000", "113523.491000", "113523.494000", "113523.497000", "113523.500000", "113523.503000", "113523.506000", "113523.509000", "113523.512000", "113523.515000", "113523.518000", "113523.521000", "113523.524000", "113523.527000", "113523.529000", "113523.532000", "113523.535000", "113603.015000", "113603.019000", "113603.022000", "113603.025000", "113603.028000", "113603.031000", "113603.034000", "113603.037000", "113603.040000", "113603.043000", "113603.046000", "113603.049000", "113603.052000", "113603.055000", "113603.058000", "113603.061000", "113603.064000", "113603.067000", "113603.070000", "113603.080000", "113603.083000", "113603.086000", "113603.089000", "113603.092000", "113603.095000", "113603.098000", "113603.101000"],
