{
  "AcquisitionMatrixPE": 104,
  "AcquisitionNumber": 1,
  "AcquisitionTime": "10:19:1.867500",
  "BandwidthPerPixelPhaseEncode": 17.17,
  "BaseResolution": 104,
  "BodyPartExamined": "BRAIN",
  "CoilString": "HC1-7;NC1_2",
  "ConsistencyInfo": "N4_VE11C_LATEST_20160120",
  "ConversionSoftware": "dcm2niix",
  "ConversionSoftwareVersion": "v1.0.20190902",
  "DerivedVendorReportedEchoSpacing": 0.000560011,
  "DeviceSerialNumber": "167006",
  "DwellTime": 2.1e-06,
  "EchoTime": 0.037,
  "EchoTrainLength": 104,
  "EffectiveEchoSpacing": 0.000560011,
  "FlipAngle": 52,
  "ImageComments": "Unaliased_MB4_PE3_LB",
  "ImageOrientationPatientDICOM": [0.999663, 0.0256422, 0.00395617, -0.0198927, 0.855379, -0.517621],
  "ImageType": [
    "ORIGINAL",
    "PRIMARY",
    "M",
    "MB",
    "ND",
    "MOSAIC"
],
  "ImagingFrequency": 123.259,
  "InPlanePhaseEncodingDirectionDICOM": "COL",
  "InstitutionAddress": "Chemin_Queen-Mary_4565_Montreal_District_CA_H3W_1W5",
  "InstitutionName": "IUGM",
  "InstitutionalDepartmentName": "Department",
  "MRAcquisitionType": "2D",
  "MagneticFieldStrength": 3,
  "Manufacturer": "Siemens",
  "ManufacturersModelName": "Prisma_fit",
  "Modality": "MR",
  "MultibandAccelerationFactor": 4,
  "PartialFourier": 1,
  "PatientPosition": "HFS",
  "PercentPhaseFOV": 100,
  "PhaseEncodingDirection": "j",
  "PhaseEncodingSteps": 104,
  "PhaseResolution": 1,
  "PixelBandwidth": 2290,
  "ProcedureStepDescription": "video_friends",
  "ProtocolName": "func_task-friends-s05e03b",
  "PulseSequenceDetails": "%CustomerSeq%_cmrr_mbep2d_bold",
  "ReceiveCoilActiveElements": "HC1-7;NC1,2",
  "ReceiveCoilName": "HeadNeck_64",
  "ReconMatrixPE": 104,
  "RepetitionTime": 1.49,
  "SAR": 0.0366417,
  "ScanOptions": "FS",
  "ScanningSequence": "EP",
  "SequenceName": "epfid2d1_104",
  "SequenceVariant": "SK_SS",
  "SeriesDescription": "func_task-friends-s05e03b",
  "SeriesNumber": 19,
  "ShimSetting": [630, -7196, -8862, 355, -22, -271, -20, 1],
  "SliceThickness": 2,
  "SliceTiming": [0, 0.785, 0.1, 0.8825, 0.1975, 0.98, 0.295, 1.08, 0.3925, 1.1775, 0.49, 1.275, 0.59, 1.3725, 0.6875, 0, 0.785, 0.1, 0.8825, 0.1975, 0.98, 0.295, 1.08, 0.3925, 1.1775, 0.49, 1.275, 0.59, 1.3725, 0.6875, 0, 0.785, 0.1, 0.8825, 0.1975, 0.98, 0.295, 1.08, 0.3925, 1.1775, 0.49, 1.275, 0.59, 1.3725, 0.6875, 0, 0.785, 0.1, 0.8825, 0.1975, 0.98, 0.295, 1.08, 0.3925, 1.1775, 0.49, 1.275, 0.59, 1.3725, 0.6875],
  "SoftwareVersions": "syngo_MR_E11",
  "SpacingBetweenSlices": 2,
  "StationName": "MRC35049",
  "TaskName": "s05e03b",
  "TotalReadoutTime": 0.0576811,
  "TxRefAmp": 251.677,
  "WipMemBlock": "2fb28927-d9e1-460b-b58a-1c8dfb1e99ce||Sequence: R016 ve11c/master r/e634e98; Dec 19 2017 11:00:25 by eja",
  "dcmmeta_affine": [
    [-1.9993267059326172, -0.03978537395596504, 0.03331391140818596, 104.12437438964844],
    [-0.05128438025712967, 1.7107576131820679, -1.0347357988357544, -55.471004486083984],
    [0.007912338711321354, 1.035241723060608, 1.7112019062042236, -99.13935089111328],
    [0.0, 0.0, 0.0, 1.0]
],
  "dcmmeta_reorient_transform": [
    [0.0, -1.0, 0.0, 103.0],
    [1.0, 0.0, 0.0, 0.0],
    [0.0, 0.0, 1.0, 0.0],
    [0.0, 0.0, 0.0, 1.0]
],
  "dcmmeta_shape": [104, 104, 60, 474],
  "dcmmeta_slice_dim": 2,
  "dcmmeta_version": 0.6,
  "global": {
    "const": {
      "AcquisitionMatrix": [104, 0, 0, 104],
      "AngioFlag": "N",
      "BitsAllocated": 16,
      "BitsStored": 16,
      "BodyPartExamined": "BRAIN",
      "Columns": 832,
      "EchoNumbers": 1,
      "EchoTime": 37.0,
      "EchoTrainLength": 104,
      "FlipAngle": 52.0,
      "HighBit": 15,
      "ImageOrientationPatient": [0.99966335675332, 0.02564218959752, 0.00395616952857, -0.0198926868321, 0.85537882277323, -0.5176208559957],
      "ImagePositionPatient": [-813.29952829469, -762.12033167295, 381.43843518677],
      "ImageType": [
        "ORIGINAL",
        "PRIMARY",
        "M",
        "MB",
        "ND",
        "MOSAIC"
],
      "ImagedNucleus": "1H",
      "ImagingFrequency": 123.259018,
      "InPlanePhaseEncodingDirection": "COL",
      "MRAcquisitionType": "2D",
      "MagneticFieldStrength": 3.0,
      "Manufacturer": "SIEMENS",
      "ManufacturerModelName": "Prisma_fit",
      "Modality": "MR",
      "NumberOfAverages": 1.0,
      "NumberOfPhaseEncodingSteps": 104,
      "PercentPhaseFieldOfView": 100.0,
      "PercentSampling": 100.0,
      "PerformedProcedureStepStartTime": "084818.891000",
      "PhotometricInterpretation": "MONOCHROME2",
      "PixelBandwidth": 2290.0,
      "PixelRepresentation": 0,
      "PixelSpacing": [2.0, 2.0],
      "ProtocolName": "func_task-friends-s05e03b",
      "RepetitionTime": 1490.0,
      "Rows": 832,
      "SAR": 0.0366416783702,
      "SamplesPerPixel": 1,
      "ScanOptions": "FS",
      "ScanningSequence": "EP",
      "SequenceName": "epfid2d1_104",
      "SequenceVariant": [
        "SK",
        "SS"
],
      "SeriesDescription": "func_task-friends-s05e03b",
      "SeriesNumber": 19,
      "SeriesTime": "102028.670000",
      "SliceLocation": -54.390413711853,
      "SliceThickness": 2.0,
      "SmallestImagePixelValue": 0,
      "SoftwareVersions": "syngo MR E11",
      "SpacingBetweenSlices": 1.9999999780186,
      "SpecificCharacterSet": "ISO_IR 100",
      "StudyID": "1",
      "StudyTime": "084818.766000",
      "TransmitCoilName": "Body",
      "VariableFlipAngleFlag": "N",
      "WindowCenterWidthExplanation": "Algo1",
      "dBdt": 0.0},
    "slices": {}
  },
  "time": {
    "samples": {
      "AcquisitionNumber": [1, 2, 3, 4, 5, 6, 7, 8, 9, 10, 11, 12, 13, 14, 15, 16, 17, 18, 19, 20, 21, 22, 23, 24, 25, 26, 27, 28, 29, 30, 31, 32, 33, 34, 35, 36, 37, 38, 39, 40, 41, 42, 43, 44, 45, 46, 47, 48, 49, 50, 51, 52, 53, 54, 55, 56, 57, 58, 59, 60, 61, 62, 63, 64, 65, 66, 67, 68, 69, 70, 71, 72, 73, 74, 75, 76, 77, 78, 79, 80, 81, 82, 83, 84, 85, 86, 87, 88, 89, 90, 91, 92, 93, 94, 95, 96, 97, 98, 99, 100, 101, 102, 103, 104, 105, 106, 107, 108, 109, 110, 111, 112, 113, 114, 115, 116, 117, 118, 119, 120, 121, 122, 123, 124, 125, 126, 127, 128, 129, 130, 131, 132, 133, 134, 135, 136, 137, 138, 139, 140, 141, 142, 143, 144, 145, 146, 147, 148, 149, 150, 151, 152, 153, 154, 155, 156, 157, 158, 159, 160, 161, 162, 163, 164, 165, 166, 167, 168, 169, 170, 171, 172, 173, 174, 175, 176, 177, 178, 179, 180, 181, 182, 183, 184, 185, 186, 187, 188, 189, 190, 191, 192, 193, 194, 195, 196, 197, 198, 199, 200, 201, 202, 203, 204, 205, 206, 207, 208, 209, 210, 211, 212, 213, 214, 215, 216, 217, 218, 219, 220, 221, 222, 223, 224, 225, 226, 227, 228, 229, 230, 231, 232, 233, 234, 235, 236, 237, 238, 239, 240, 241, 242, 243, 244, 245, 246, 247, 248, 249, 250, 251, 252, 253, 254, 255, 256, 257, 258, 259, 260, 261, 262, 263, 264, 265, 266, 267, 268, 269, 270, 271, 272, 273, 274, 275, 276, 277, 278, 279, 280, 281, 282, 283, 284, 285, 286, 287, 288, 289, 290, 291, 292, 293, 294, 295, 296, 297, 298, 299, 300, 301, 302, 303, 304, 305, 306, 307, 308, 309, 310, 311, 312, 313, 314, 315, 316, 317, 318, 319, 320, 321, 322, 323, 324, 325, 326, 327, 328, 329, 330, 331, 332, 333, 334, 335, 336, 337, 338, 339, 340, 341, 342, 343, 344, 345, 346, 347, 348, 349, 350, 351, 352, 353, 354, 355, 356, 357, 358, 359, 360, 361, 362, 363, 364, 365, 366, 367, 368, 369, 370, 371, 372, 373, 374, 375, 376, 377, 378, 379, 380, 381, 382, 383, 384, 385, 386, 387, 388, 389, 390, 391, 392, 393, 394, 395, 396, 397, 398, 399, 400, 401, 402, 403, 404, 405, 406, 407, 408, 409, 410, 411, 412, 413, 414, 415, 416, 417, 418, 419, 420, 421, 422, 423, 424, 425, 426, 427, 428, 429, 430, 431, 432, 433, 434, 435, 436, 437, 438, 439, 440, 441, 442, 443, 444, 445, 446, 447, 448, 449, 450, 451, 452, 453, 454, 455, 456, 457, 458, 459, 460, 461, 462, 463, 464, 465, 466, 467, 468, 469, 470, 471, 472, 473, 474],
      "AcquisitionTime": ["101901.867500", "101903.357500", "101904.847500", "101906.337500", "101907.827500", "101909.317500", "101910.807500", "101912.297500", "101913.787500", "101915.277500", "101916.767500", "101918.257500", "101919.747500", "101921.237500", "101922.727500", "101924.217500", "101925.707500", "101927.197500", "101928.687500", "101930.177500", "101931.667500", "101933.157500", "101934.647500", "101936.137500", "101937.627500", "101939.117500", "101940.607500", "101942.097500", "101943.587500", "101945.077500", "101946.567500", "101948.057500", "101949.547500", "101951.037500", "101952.527500", "101954.017500", "101955.507500", "101956.997500", "101958.487500", "101959.977500", "102001.467500", "102002.957500", "102004.447500", "102005.937500", "102007.427500", "102008.917500", "102010.407500", "102011.897500", "102013.387500", "102014.877500", "102016.367500", "102017.857500", "102019.347500", "102020.837500", "102022.327500", "102023.817500", "102025.307500", "102026.797500", "102028.287500", "102029.777500", "102031.267500", "102032.757500", "102034.247500", "102035.737500", "102037.227500", "102038.717500", "102040.207500", "102041.697500", "102043.187500", "102044.677500", "102046.167500", "102047.657500", "102049.147500", "102050.637500", "102052.127500", "102053.617500", "102055.107500", "102056.597500", "102058.087500", "102059.577500", "102101.067500", "102102.557500", "102104.047500", "102105.537500", "102107.027500", "102108.517500", "102110.007500", "102111.497500", "102112.987500", "102114.477500", "102115.967500", "102117.457500", "102118.947500", "102120.437500", "102121.927500", "102123.417500", "102124.907500", "102126.397500", "102127.887500", "102129.377500", "102130.867500", "102132.357500", "102133.847500", "102135.337500", "102136.827500", "102138.317500", "102139.807500", "102141.297500", "102142.787500", "102144.277500", "102145.767500", "102147.257500", "102148.747500", "102150.237500", "102151.727500", "102153.217500", "102154.707500", "102156.197500", "102157.687500", "102159.177500", "102200.667500", "102202.157500", "102203.647500", "102205.137500", "102206.627500", "102208.117500", "102209.607500", "102211.097500", "102212.587500", "102214.077500", "102215.567500", "102217.057500", "102218.547500", "102220.037500", "102221.527500", "102223.017500", "102224.507500", "102225.997500", "102227.487500", "102228.977500", "102230.467500", "102231.957500", "102233.447500", "102234.937500", "102236.427500", "102237.917500", "102239.407500", "102240.897500", "102242.387500", "102243.877500", "102245.367500", "102246.857500", "102248.347500", "102249.837500", "102251.327500", "102252.817500", "102254.307500", "102255.797500", "102257.287500", "102258.777500", "102300.267500", "102301.757500", "102303.247500", "102304.737500", "102306.227500", "102307.717500", "102309.207500", "102310.697500", "102312.187500", "102313.677500", "102315.167500", "102316.657500", "102318.147500", "102319.637500", "102321.127500", "102322.617500", "102324.107500", "102325.597500", "102327.087500", "102328.577500", "102330.067500", "102331.557500", "102333.047500", "102334.537500", "102336.027500", "102337.517500", "102339.007500", "102340.497500", "102341.987500", "102343.477500", "102344.967500", "102346.457500", "102347.947500", "102349.437500", "102350.927500", "102352.417500", "102353.907500", "102355.397500", "102356.887500", "102358.377500", "102359.867500", "102401.357500", "102402.847500", "102404.337500", "102405.827500", "102407.317500", "102408.807500", "102410.297500", "102411.787500", "102413.277500", "102414.767500", "102416.257500", "102417.747500", "102419.237500", "102420.727500", "102422.217500", "102423.707500", "102425.197500", "102426.687500", "102428.177500", "102429.667500", "102431.157500", "102432.647500", "102434.137500", "102435.627500", "102437.117500", "102438.607500", "102440.097500", "102441.587500", "102443.077500", "102444.567500", "102446.057500", "102447.547500", "102449.037500", "102450.527500", "102452.017500", "102453.507500", "102454.997500", "102456.487500", "102457.977500", "102459.467500", "102500.957500", "102502.447500", "102503.937500", "102505.427500", "102506.917500", "102508.407500", "102509.897500", "102511.387500", "102512.877500", "102514.367500", "102515.857500", "102517.347500", "102518.837500", "102520.327500", "102521.817500", "102523.307500", "102524.797500", "102526.287500", "102527.777500", "102529.267500", "102530.757500", "102532.247500", "102533.737500", "102535.227500", "102536.717500", "102538.207500", "102539.697500", "102541.187500", "102542.677500", "102544.167500", "102545.657500", "102547.147500", "102548.637500", "102550.127500", "102551.617500", "102553.107500", "102554.597500", "102556.087500", "102557.577500", "102559.067500", "102600.557500", "102602.047500", "102603.537500", "102605.027500", "102606.517500", "102608.007500", "102609.497500", "102610.987500", "102612.477500", "102613.967500", "102615.457500", "102616.947500", "102618.437500", "102619.927500", "102621.417500", "102622.907500", "102624.397500", "102625.887500", "102627.377500", "102628.867500", "102630.357500", "102631.847500", "102633.337500", "102634.827500", "102636.317500", "102637.807500", "102639.297500", "102640.787500", "102642.277500", "102643.767500", "102645.257500", "102646.747500", "102648.237500", "102649.727500", "102651.217500", "102652.707500", "102654.197500", "102655.687500", "102657.177500", "102658.667500", "102700.157500", "102701.647500", "102703.137500", "102704.627500", "102706.117500", "102707.607500", "102709.097500", "102710.587500", "102712.077500", "102713.567500", "102715.057500", "102716.547500", "102718.037500", "102719.527500", "102721.017500", "102722.507500", "102723.997500", "102725.487500", "102726.977500", "102728.467500", "102729.957500", "102731.447500", "102732.937500", "102734.427500", "102735.917500", "102737.407500", "102738.897500", "102740.387500", "102741.877500", "102743.367500", "102744.857500", "102746.347500", "102747.837500", "102749.327500", "102750.817500", "102752.307500", "102753.797500", "102755.287500", "102756.777500", "102758.267500", "102759.757500", "102801.247500", "102802.737500", "102804.227500", "102805.717500", "102807.207500", "102808.697500", "102810.187500", "102811.677500", "102813.167500", "102814.657500", "102816.147500", "102817.637500", "102819.127500", "102820.617500", "102822.107500", "102823.597500", "102825.087500", "102826.577500", "102828.067500", "102829.557500", "102831.047500", "102832.537500", "102834.027500", "102835.517500", "102837.007500", "102838.497500", "102839.987500", "102841.477500", "102842.967500", "102844.457500", "102845.947500", "102847.437500", "102848.927500", "102850.417500", "102851.907500", "102853.397500", "102854.887500", "102856.377500", "102857.867500", "102859.357500", "102900.847500", "102902.337500", "102903.827500", "102905.317500", "102906.807500", "102908.297500", "102909.787500", "102911.277500", "102912.767500", "102914.257500", "102915.747500", "102917.237500", "102918.727500", "102920.217500", "102921.707500", "102923.197500", "102924.687500", "102926.177500", "102927.667500", "102929.157500", "102930.647500", "102932.137500", "102933.627500", "102935.117500", "102936.607500", "102938.097500", "102939.587500", "102941.077500", "102942.567500", "102944.057500", "102945.547500", "102947.037500", "102948.527500", "102950.017500", "102951.507500", "102952.997500", "102954.487500", "102955.977500", "102957.467500", "102958.957500", "103000.447500", "103001.937500", "103003.427500", "103004.917500", "103006.407500", "103007.897500", "103009.387500", "103010.877500", "103012.367500", "103013.857500", "103015.347500", "103016.837500", "103018.327500", "103019.817500", "103021.307500", "103022.797500", "103024.287500", "103025.777500", "103027.267500", "103028.757500", "103030.247500", "103031.737500", "103033.227500", "103034.717500", "103036.207500", "103037.697500", "103039.187500", "103040.677500", "103042.167500", "103043.657500", "103045.147500", "103046.637500"],
      "ContentTime": ["102028.673000", "102028.676000", "102028.679000", "102028.682000", "102028.685000", "102028.687000", "102028.690000", "102028.693000", "102028.696000", "102028.699000", "102028.701000", "102028.704000", "102028.707000", "102028.710000", "102028.713000", "102028.716000", "102028.718000", "102028.721000", "102028.724000", "102028.727000", "102028.730000", "102028.732000", "102028.735000", "102028.738000", "102028.741000", "102028.744000", "102028.746000", "102028.749000", "102028.752000", "102028.755000", "102028.758000", "102028.760000", "102028.771000", "102048.639000", "102048.642000", "102048.645000", "102048.647000", "102048.650000", "102048.653000", "102048.656000", "102048.659000", "102048.661000", "102048.664000", "102048.667000", "102048.670000", "102048.673000", "102048.676000", "102048.678000", "102048.681000", "102048.684000", "102048.687000", "102048.690000", "102048.692000", "102108.638000", "102108.641000", "102108.644000", "102108.646000", "102108.649000", "102108.652000", "102108.655000", "102108.658000", "102108.661000", "102108.664000", "102108.666000", "102108.669000", "102108.672000", "102108.675000", "102108.678000", "102108.681000", "102108.683000", "102108.686000", "102108.689000", "102108.692000", "102128.638000", "102128.641000", "102128.644000", "102128.646000", "102128.649000", "102128.652000", "102128.655000", "102128.658000", "102128.660000", "102128.663000", "102128.666000", "102128.669000", "102128.672000", "102128.677000", "102128.681000", "102128.684000", "102128.687000", "102128.690000", "102128.693000", "102128.696000", "102208.638000", "102208.641000", "102208.644000", "102208.646000", "102208.649000", "102208.652000", "102208.655000", "102208.658000", "102208.660000", "102208.663000", "102208.666000", "102208.669000", "102208.671000", "102208.674000", "102208.677000", "102208.680000", "102208.683000", "102208.685000", "102208.688000", "102208.691000", "102208.694000", "102208.697000", "102208.699000", "102208.702000", "102208.705000", "102208.708000", "102208.711000", "102208.714000", "102208.717000", "102208.719000", "102208.722000", "102208.735000", "102248.639000", "102248.642000", "102248.644000", "102248.647000", "102248.650000", "102248.653000", "102248.656000", "102248.659000", "102248.661000", "102248.664000", "102248.667000", "102248.670000", "102248.673000", "102248.675000", "102248.678000", "102248.681000", "102248.684000", "102248.687000", "102248.690000", "102248.692000", "102248.695000", "102248.698000", "102248.701000", "102248.704000", "102248.707000", "102248.709000", "102248.712000", "102328.638000", "102328.641000", "102328.644000", "102328.647000", "102328.650000", "102328.652000", "102328.655000", "102328.658000", "102328.662000", "102328.671000", "102328.674000", "102328.677000", "102328.680000", "102328.682000", "102328.685000", "102328.688000", "102328.691000", "102328.694000", "102328.696000", "102328.699000", "102328.702000", "102328.705000", "102328.708000", "102328.711000", "102328.713000", "102328.716000", "102408.638000", "102408.641000", "102408.644000", "102408.647000", "102408.649000", "102408.652000", "102408.655000", "102408.658000", "102408.661000", "102408.664000", "102408.666000", "102408.669000", "102408.672000", "102408.675000", "102408.677000", "102408.680000", "102408.683000", "102408.686000", "102408.689000", "102408.692000", "102408.695000", "102408.698000", "102408.701000", "102408.705000", "102408.708000", "102408.712000", "102408.715000", "102428.638000", "102428.641000", "102428.644000", "102428.647000", "102428.649000", "102428.652000", "102428.655000", "102428.658000", "102428.661000", "102428.664000", "102428.666000", "102428.669000", "102428.672000", "102428.675000", "102508.639000", "102508.642000", "102508.645000", "102508.648000", "102508.650000", "102508.653000", "102508.656000", "102508.659000", "102508.662000", "102508.664000", "102508.667000", "102508.670000", "102508.673000", "102508.676000", "102508.679000", "102508.681000", "102508.684000", "102508.687000", "102508.690000", "102508.693000", "102508.695000", "102508.698000", "102508.701000", "102508.712000", "102508.715000", "102508.718000", "102508.720000", "102548.638000", "102548.641000", "102548.644000", "102548.647000", "102548.649000", "102548.652000", "102548.655000", "102548.658000", "102548.661000", "102548.664000", "102548.667000", "102548.669000", "102548.672000", "102548.675000", "102548.678000", "102548.681000", "102548.684000", "102548.687000", "102548.690000", "102548.692000", "102548.695000", "102548.698000", "102548.701000", "102548.704000", "102548.707000", "102548.709000", "102628.638000", "102628.641000", "102628.644000", "102628.647000", "102628.649000", "102628.652000", "102628.655000", "102628.658000", "102628.661000", "102628.664000", "102628.666000", "102628.669000", "102628.672000", "102628.675000", "102628.678000", "102628.681000", "102628.683000", "102628.686000", "102628.689000", "102628.692000", "102628.695000", "102628.697000", "102628.700000", "102628.703000", "102628.706000", "102628.709000", "102628.712000", "102708.638000", "102708.641000", "102708.644000", "102708.647000", "102708.649000", "102708.652000", "102708.655000", "102708.658000", "102708.661000", "102708.664000", "102708.666000", "102708.669000", "102708.672000", "102708.675000", "102708.678000", "102708.680000", "102708.683000", "102708.686000", "102708.689000", "102708.692000", "102708.695000", "102708.697000", "102708.700000", "102708.703000", "102708.706000", "102708.709000", "102708.711000", "102748.639000", "102748.642000", "102748.645000", "102748.648000", "102748.651000", "102748.653000", "102748.656000", "102748.659000", "102748.662000", "102748.665000", "102748.667000", "102748.670000", "102748.673000", "102748.676000", "102748.679000", "102748.682000", "102748.684000", "102748.687000", "102748.690000", "102748.693000", "102748.696000", "102748.699000", "102748.714000", "102748.717000", "102748.719000", "102748.722000", "102748.725000", "102828.638000", "102828.641000", "102828.644000", "102828.647000", "102828.650000", "102828.652000", "102828.655000", "102828.658000", "102828.661000", "102828.664000", "102828.667000", "102828.669000", "102828.672000", "102828.675000", "102828.678000", "102828.681000", "102828.683000", "102828.686000", "102828.689000", "102828.692000", "102828.695000", "102828.698000", "102828.701000", "102828.703000", "102828.706000", "102828.709000", "102828.712000", "102908.638000", "102908.641000", "102908.644000", "102908.647000", "102908.649000", "102908.652000", "102908.655000", "102908.658000", "102908.661000", "102908.664000", "102908.666000", "102908.669000", "102908.672000", "102908.675000", "102908.678000", "102908.680000", "102908.683000", "102908.686000", "102908.689000", "102908.692000", "102908.694000", "102908.697000", "102908.700000", "102908.703000", "102908.706000", "102908.715000", "102908.718000", "102948.639000", "102948.642000", "102948.645000", "102948.648000", "102948.651000", "102948.654000", "102948.656000", "102948.659000", "102948.662000", "102948.665000", "102948.668000", "102948.671000", "102948.674000", "102948.676000", "102948.679000", "102948.682000", "102948.685000", "102948.688000", "102948.691000", "102948.693000", "102948.696000", "102948.699000", "102948.702000", "102948.705000", "102948.707000", "102948.710000", "103028.638000", "103028.641000", "103028.644000", "103028.647000", "103028.649000", "103028.652000", "103028.655000", "103028.658000", "103028.661000", "103028.664000", "103028.667000", "103028.669000", "103028.672000", "103028.675000", "103028.678000", "103028.681000", "103028.684000", "103028.686000", "103028.689000", "103028.692000", "103028.695000", "103028.698000", "103028.701000", "103028.703000", "103028.706000", "103028.709000", "103028.712000", "103048.396000", "103048.399000", "103048.402000", "103048.405000", "103048.408000", "103048.411000", "103048.413000", "103048.416000", "103048.419000", "103048.422000", "103048.425000", "103048.428000", "103048.430000", "103048.433000"],
