{
  "AcquisitionMatrixPE": 104,
  "AcquisitionNumber": 1,
  "AcquisitionTime": "10:07:30.380000",
  "BandwidthPerPixelPhaseEncode": 17.17,
  "BaseResolution": 104,
  "BodyPartExamined": "BRAIN",
  "CoilString": "HC1-7;NC1_2",
  "ConsistencyInfo": "N4_VE11C_LATEST_20160120",
  "ConversionSoftware": "dcm2niix",
  "ConversionSoftwareVersion": "v1.0.20190902",
  "DerivedVendorReportedEchoSpacing": 0.000560011,
  "DeviceSerialNumber": "167006",
  "DwellTime": 2.1e-06,
  "EchoTime": 0.037,
  "EchoTrainLength": 104,
  "EffectiveEchoSpacing": 0.000560011,
  "FlipAngle": 52,
  "ImageComments": "Unaliased_MB4_PE3_LB",
  "ImageOrientationPatientDICOM": [0.999663, 0.0256422, 0.00395617, -0.0198927, 0.855379, -0.517621],
  "ImageType": [
    "ORIGINAL",
    "PRIMARY",
    "M",
    "MB",
    "ND",
    "MOSAIC"
],
  "ImagingFrequency": 123.259,
  "InPlanePhaseEncodingDirectionDICOM": "COL",
  "InstitutionAddress": "Chemin_Queen-Mary_4565_Montreal_District_CA_H3W_1W5",
  "InstitutionName": "IUGM",
  "InstitutionalDepartmentName": "Department",
  "MRAcquisitionType": "2D",
  "MagneticFieldStrength": 3,
  "Manufacturer": "Siemens",
  "ManufacturersModelName": "Prisma_fit",
  "Modality": "MR",
  "MultibandAccelerationFactor": 4,
  "PartialFourier": 1,
  "PatientPosition": "HFS",
  "PercentPhaseFOV": 100,
  "PhaseEncodingDirection": "j",
  "PhaseEncodingSteps": 104,
  "PhaseResolution": 1,
  "PixelBandwidth": 2290,
  "ProcedureStepDescription": "video_friends",
  "ProtocolName": "func_task-friends-s05e03a",
  "PulseSequenceDetails": "%CustomerSeq%_cmrr_mbep2d_bold",
  "ReceiveCoilActiveElements": "HC1-7;NC1,2",
  "ReceiveCoilName": "HeadNeck_64",
  "ReconMatrixPE": 104,
  "RepetitionTime": 1.49,
  "SAR": 0.0366314,
  "ScanOptions": "FS",
  "ScanningSequence": "EP",
  "SequenceName": "epfid2d1_104",
  "SequenceVariant": "SK_SS",
  "SeriesDescription": "func_task-friends-s05e03a",
  "SeriesNumber": 17,
  "ShimSetting": [630, -7196, -8862, 355, -22, -271, -20, 1],
  "SliceThickness": 2,
  "SliceTiming": [0, 0.7825, 0.0975, 0.8825, 0.195, 0.98, 0.2925, 1.0775, 0.3925, 1.175, 0.49, 1.2725, 0.5875, 1.3725, 0.685, 0, 0.7825, 0.0975, 0.8825, 0.195, 0.98, 0.2925, 1.0775, 0.3925, 1.175, 0.49, 1.2725, 0.5875, 1.3725, 0.685, 0, 0.7825, 0.0975, 0.8825, 0.195, 0.98, 0.2925, 1.0775, 0.3925, 1.175, 0.49, 1.2725, 0.5875, 1.3725, 0.685, 0, 0.7825, 0.0975, 0.8825, 0.195, 0.98, 0.2925, 1.0775, 0.3925, 1.175, 0.49, 1.2725, 0.5875, 1.3725, 0.685],
  "SoftwareVersions": "syngo_MR_E11",
  "SpacingBetweenSlices": 2,
  "StationName": "MRC35049",
  "TaskName": "s05e03a",
  "TotalReadoutTime": 0.0576811,
  "TxRefAmp": 251.677,
  "WipMemBlock": "9cfc2216-e020-44ae-8011-9d96ab850942||Sequence: R016 ve11c/master r/e634e98; Dec 19 2017 11:00:25 by eja",
  "dcmmeta_affine": [
    [-1.9993267059326172, -0.03978537395596504, 0.03331391140818596, 104.12437438964844],
    [-0.05128438025712967, 1.7107576131820679, -1.0347357988357544, -55.471004486083984],
    [0.007912338711321354, 1.035241723060608, 1.7112019062042236, -99.13935089111328],
    [0.0, 0.0, 0.0, 1.0]
],
  "dcmmeta_reorient_transform": [
    [0.0, -1.0, 0.0, 103.0],
    [1.0, 0.0, 0.0, 0.0],
    [0.0, 0.0, 1.0, 0.0],
    [0.0, 0.0, 0.0, 1.0]
],
  "dcmmeta_shape": [104, 104, 60, 444],
  "dcmmeta_slice_dim": 2,
  "dcmmeta_version": 0.6,
  "global": {
    "const": {
      "AcquisitionMatrix": [104, 0, 0, 104],
      "AngioFlag": "N",
      "BitsAllocated": 16,
      "BitsStored": 16,
      "BodyPartExamined": "BRAIN",
      "Columns": 832,
      "EchoNumbers": 1,
      "EchoTime": 37.0,
      "EchoTrainLength": 104,
      "FlipAngle": 52.0,
      "HighBit": 15,
      "ImageOrientationPatient": [0.99966335675332, 0.02564218959752, 0.00395616952857, -0.0198926868321, 0.85537882277323, -0.5176208559957],
      "ImagePositionPatient": [-813.29952829469, -762.12033167295, 381.43843518677],
      "ImageType": [
        "ORIGINAL",
        "PRIMARY",
        "M",
        "MB",
        "ND",
        "MOSAIC"
],
      "ImagedNucleus": "1H",
      "ImagingFrequency": 123.259019,
      "InPlanePhaseEncodingDirection": "COL",
      "MRAcquisitionType": "2D",
      "MagneticFieldStrength": 3.0,
      "Manufacturer": "SIEMENS",
      "ManufacturerModelName": "Prisma_fit",
      "Modality": "MR",
      "NumberOfAverages": 1.0,
      "NumberOfPhaseEncodingSteps": 104,
      "PercentPhaseFieldOfView": 100.0,
      "PercentSampling": 100.0,
      "PerformedProcedureStepStartTime": "084818.891000",
      "PhotometricInterpretation": "MONOCHROME2",
      "PixelBandwidth": 2290.0,
      "PixelRepresentation": 0,
      "PixelSpacing": [2.0, 2.0],
      "ProtocolName": "func_task-friends-s05e03a",
      "RepetitionTime": 1490.0,
      "Rows": 832,
      "SAR": 0.03663136440434,
      "SamplesPerPixel": 1,
      "ScanOptions": "FS",
      "ScanningSequence": "EP",
      "SequenceName": "epfid2d1_104",
      "SequenceVariant": [
        "SK",
        "SS"
],
      "SeriesDescription": "func_task-friends-s05e03a",
      "SeriesNumber": 17,
      "SeriesTime": "100848.872000",
      "SliceLocation": -54.390413711853,
      "SliceThickness": 2.0,
      "SmallestImagePixelValue": 0,
      "SoftwareVersions": "syngo MR E11",
      "SpacingBetweenSlices": 1.9999999780186,
      "SpecificCharacterSet": "ISO_IR 100",
      "StudyID": "1",
      "StudyTime": "084818.766000",
      "TransmitCoilName": "Body",
      "VariableFlipAngleFlag": "N",
      "WindowCenterWidthExplanation": "Algo1",
      "dBdt": 0.0},
    "slices": {}
  },
  "time": {
    "samples": {
      "AcquisitionNumber": [1, 2, 3, 4, 5, 6, 7, 8, 9, 10, 11, 12, 13, 14, 15, 16, 17, 18, 19, 20, 21, 22, 23, 24, 25, 26, 27, 28, 29, 30, 31, 32, 33, 34, 35, 36, 37, 38, 39, 40, 41, 42, 43, 44, 45, 46, 47, 48, 49, 50, 51, 52, 53, 54, 55, 56, 57, 58, 59, 60, 61, 62, 63, 64, 65, 66, 67, 68, 69, 70, 71, 72, 73, 74, 75, 76, 77, 78, 79, 80, 81, 82, 83, 84, 85, 86, 87, 88, 89, 90, 91, 92, 93, 94, 95, 96, 97, 98, 99, 100, 101, 102, 103, 104, 105, 106, 107, 108, 109, 110, 111, 112, 113, 114, 115, 116, 117, 118, 119, 120, 121, 122, 123, 124, 125, 126, 127, 128, 129, 130, 131, 132, 133, 134, 135, 136, 137, 138, 139, 140, 141, 142, 143, 144, 145, 146, 147, 148, 149, 150, 151, 152, 153, 154, 155, 156, 157, 158, 159, 160, 161, 162, 163, 164, 165, 166, 167, 168, 169, 170, 171, 172, 173, 174, 175, 176, 177, 178, 179, 180, 181, 182, 183, 184, 185, 186, 187, 188, 189, 190, 191, 192, 193, 194, 195, 196, 197, 198, 199, 200, 201, 202, 203, 204, 205, 206, 207, 208, 209, 210, 211, 212, 213, 214, 215, 216, 217, 218, 219, 220, 221, 222, 223, 224, 225, 226, 227, 228, 229, 230, 231, 232, 233, 234, 235, 236, 237, 238, 239, 240, 241, 242, 243, 244, 245, 246, 247, 248, 249, 250, 251, 252, 253, 254, 255, 256, 257, 258, 259, 260, 261, 262, 263, 264, 265, 266, 267, 268, 269, 270, 271, 272, 273, 274, 275, 276, 277, 278, 279, 280, 281, 282, 283, 284, 285, 286, 287, 288, 289, 290, 291, 292, 293, 294, 295, 296, 297, 298, 299, 300, 301, 302, 303, 304, 305, 306, 307, 308, 309, 310, 311, 312, 313, 314, 315, 316, 317, 318, 319, 320, 321, 322, 323, 324, 325, 326, 327, 328, 329, 330, 331, 332, 333, 334, 335, 336, 337, 338, 339, 340, 341, 342, 343, 344, 345, 346, 347, 348, 349, 350, 351, 352, 353, 354, 355, 356, 357, 358, 359, 360, 361, 362, 363, 364, 365, 366, 367, 368, 369, 370, 371, 372, 373, 374, 375, 376, 377, 378, 379, 380, 381, 382, 383, 384, 385, 386, 387, 388, 389, 390, 391, 392, 393, 394, 395, 396, 397, 398, 399, 400, 401, 402, 403, 404, 405, 406, 407, 408, 409, 410, 411, 412, 413, 414, 415, 416, 417, 418, 419, 420, 421, 422, 423, 424, 425, 426, 427, 428, 429, 430, 431, 432, 433, 434, 435, 436, 437, 438, 439, 440, 441, 442, 443, 444],
      "AcquisitionTime": ["100730.380000", "100731.870000", "100733.360000", "100734.850000", "100736.340000", "100737.830000", "100739.320000", "100740.810000", "100742.300000", "100743.790000", "100745.280000", "100746.770000", "100748.260000", "100749.750000", "100751.240000", "100752.730000", "100754.220000", "100755.710000", "100757.200000", "100758.690000", "100800.180000", "100801.670000", "100803.160000", "100804.650000", "100806.140000", "100807.630000", "100809.120000", "100810.610000", "100812.100000", "100813.590000", "100815.080000", "100816.570000", "100818.060000", "100819.550000", "100821.040000", "100822.530000", "100824.020000", "100825.510000", "100827.000000", "100828.490000", "100829.980000", "100831.470000", "100832.960000", "100834.450000", "100835.940000", "100837.430000", "100838.920000", "100840.410000", "100841.900000", "100843.390000", "100844.880000", "100846.370000", "100847.860000", "100849.350000", "100850.840000", "100852.330000", "100853.820000", "100855.310000", "100856.800000", "100858.290000", "100859.780000", "100901.270000", "100902.760000", "100904.250000", "100905.740000", "100907.230000", "100908.720000", "100910.210000", "100911.700000", "100913.190000", "100914.680000", "100916.170000", "100917.660000", "100919.150000", "100920.640000", "100922.130000", "100923.620000", "100925.110000", "100926.600000", "100928.090000", "100929.580000", "100931.070000", "100932.560000", "100934.050000", "100935.540000", "100937.030000", "100938.520000", "100940.010000", "100941.500000", "100942.990000", "100944.480000", "100945.970000", "100947.460000", "100948.950000", "100950.440000", "100951.930000", "100953.420000", "100954.910000", "100956.400000", "100957.890000", "100959.380000", "101000.870000", "101002.360000", "101003.850000", "101005.340000", "101006.830000", "101008.320000", "101009.810000", "101011.300000", "101012.790000", "101014.280000", "101015.770000", "101017.260000", "101018.750000", "101020.240000", "101021.730000", "101023.220000", "101024.710000", "101026.200000", "101027.690000", "101029.180000", "101030.670000", "101032.160000", "101033.650000", "101035.140000", "101036.630000", "101038.120000", "101039.610000", "101041.100000", "101042.590000", "101044.080000", "101045.570000", "101047.060000", "101048.550000", "101050.040000", "101051.530000", "101053.020000", "101054.510000", "101056.000000", "101057.490000", "101058.980000", "101100.470000", "101101.960000", "101103.450000", "101104.940000", "101106.430000", "101107.920000", "101109.410000", "101110.900000", "101112.390000", "101113.880000", "101115.370000", "101116.860000", "101118.350000", "101119.840000", "101121.330000", "101122.820000", "101124.310000", "101125.800000", "101127.290000", "101128.780000", "101130.270000", "101131.760000", "101133.250000", "101134.740000", "101136.230000", "101137.720000", "101139.210000", "101140.700000", "101142.190000", "101143.680000", "101145.170000", "101146.660000", "101148.150000", "101149.640000", "101151.130000", "101152.620000", "101154.110000", "101155.600000", "101157.090000", "101158.580000", "101200.070000", "101201.560000", "101203.050000", "101204.540000", "101206.030000", "101207.520000", "101209.010000", "101210.500000", "101211.990000", "101213.480000", "101214.970000", "101216.460000", "101217.950000", "101219.440000", "101220.930000", "101222.420000", "101223.910000", "101225.400000", "101226.890000", "101228.380000", "101229.870000", "101231.360000", "101232.850000", "101234.340000", "101235.830000", "101237.320000", "101238.810000", "101240.300000", "101241.790000", "101243.280000", "101244.770000", "101246.260000", "101247.750000", "101249.240000", "101250.730000", "101252.220000", "101253.710000", "101255.200000", "101256.690000", "101258.180000", "101259.670000", "101301.160000", "101302.650000", "101304.140000", "101305.630000", "101307.120000", "101308.610000", "101310.100000", "101311.590000", "101313.080000", "101314.570000", "101316.060000", "101317.550000", "101319.040000", "101320.530000", "101322.020000", "101323.510000", "101325.000000", "101326.490000", "101327.980000", "101329.470000", "101330.960000", "101332.450000", "101333.940000", "101335.430000", "101336.920000", "101338.410000", "101339.900000", "101341.390000", "101342.880000", "101344.370000", "101345.860000", "101347.350000", "101348.840000", "101350.330000", "101351.820000", "101353.310000", "101354.800000", "101356.290000", "101357.780000", "101359.270000", "101400.760000", "101402.250000", "101403.740000", "101405.230000", "101406.720000", "101408.210000", "101409.700000", "101411.190000", "101412.680000", "101414.170000", "101415.660000", "101417.150000", "101418.640000", "101420.130000", "101421.620000", "101423.110000", "101424.600000", "101426.090000", "101427.580000", "101429.070000", "101430.560000", "101432.050000", "101433.540000", "101435.030000", "101436.520000", "101438.010000", "101439.500000", "101440.990000", "101442.480000", "101443.970000", "101445.460000", "101446.950000", "101448.440000", "101449.930000", "101451.420000", "101452.910000", "101454.400000", "101455.890000", "101457.380000", "101458.870000", "101500.360000", "101501.850000", "101503.340000", "101504.830000", "101506.320000", "101507.810000", "101509.300000", "101510.790000", "101512.280000", "101513.770000", "101515.260000", "101516.750000", "101518.240000", "101519.730000", "101521.220000", "101522.710000", "101524.200000", "101525.690000", "101527.180000", "101528.670000", "101530.160000", "101531.650000", "101533.140000", "101534.630000", "101536.120000", "101537.610000", "101539.100000", "101540.590000", "101542.080000", "101543.570000", "101545.060000", "101546.550000", "101548.040000", "101549.530000", "101551.020000", "101552.510000", "101554.000000", "101555.490000", "101556.980000", "101558.470000", "101559.960000", "101601.450000", "101602.940000", "101604.430000", "101605.920000", "101607.410000", "101608.900000", "101610.390000", "101611.880000", "101613.370000", "101614.860000", "101616.350000", "101617.840000", "101619.330000", "101620.820000", "101622.310000", "101623.800000", "101625.290000", "101626.780000", "101628.270000", "101629.760000", "101631.250000", "101632.740000", "101634.230000", "101635.720000", "101637.210000", "101638.700000", "101640.190000", "101641.680000", "101643.170000", "101644.660000", "101646.150000", "101647.640000", "101649.130000", "101650.620000", "101652.110000", "101653.600000", "101655.090000", "101656.580000", "101658.070000", "101659.560000", "101701.050000", "101702.540000", "101704.030000", "101705.520000", "101707.010000", "101708.500000", "101709.990000", "101711.480000", "101712.970000", "101714.460000", "101715.950000", "101717.440000", "101718.930000", "101720.420000", "101721.910000", "101723.400000", "101724.890000", "101726.380000", "101727.870000", "101729.360000", "101730.850000", "101732.340000", "101733.830000", "101735.320000", "101736.810000", "101738.300000", "101739.790000", "101741.280000", "101742.770000", "101744.260000", "101745.750000", "101747.240000", "101748.730000", "101750.220000", "101751.710000", "101753.200000", "101754.690000", "101756.180000", "101757.670000", "101759.160000", "101800.650000", "101802.140000", "101803.630000", "101805.120000", "101806.610000", "101808.100000", "101809.590000", "101811.080000", "101812.570000", "101814.060000", "101815.550000", "101817.040000", "101818.530000", "101820.020000", "101821.510000", "101823.000000", "101824.490000", "101825.980000", "101827.470000", "101828.960000", "101830.450000"],
      "ContentTime": ["100848.875000", "100848.878000", "100848.886000", "100848.897000", "100848.900000", "100848.903000", "100848.906000", "100848.908000", "100848.911000", "100848.914000", "100848.917000", "100848.920000", "100848.923000", "100848.925000", "100848.928000", "100848.931000", "100848.934000", "100848.937000", "100848.939000", "100848.942000", "100848.945000", "100848.948000", "100848.951000", "100848.953000", "100848.956000", "100908.833000", "100908.836000", "100908.839000", "100908.841000", "100908.844000", "100908.847000", "100908.858000", "100908.861000", "100908.863000", "100908.866000", "100908.869000", "100908.872000", "100908.875000", "100908.877000", "100908.891000", "100908.893000", "100908.896000", "100908.899000", "100908.902000", "100908.905000", "100928.832000", "100928.835000", "100928.837000", "100928.840000", "100928.843000", "100928.856000", "100928.858000", "100928.861000", "100928.864000", "100928.867000", "100928.870000", "100928.872000", "100928.875000", "100928.878000", "100928.881000", "100928.884000", "100928.886000", "100928.889000", "100928.892000", "100928.895000", "100948.832000", "100948.835000", "100948.838000", "100948.840000", "100948.843000", "100948.846000", "100948.849000", "100948.852000", "100948.854000", "100948.865000", "100948.868000", "100948.871000", "100948.874000", "100948.876000", "100948.879000", "100948.882000", "100948.885000", "100948.888000", "100948.891000", "100948.893000", "100948.896000", "101028.832000", "101028.835000", "101028.838000", "101028.840000", "101028.843000", "101028.846000", "101028.849000", "101028.852000", "101028.855000", "101028.857000", "101028.860000", "101028.863000", "101028.866000", "101028.876000", "101028.879000", "101028.882000", "101028.885000", "101028.888000", "101028.890000", "101028.893000", "101028.896000", "101028.899000", "101028.902000", "101028.904000", "101028.907000", "101028.910000", "101028.913000", "101028.916000", "101028.918000", "101028.921000", "101028.924000", "101028.927000", "101028.930000", "101108.833000", "101108.836000", "101108.839000", "101108.841000", "101108.844000", "101108.847000", "101108.850000", "101108.853000", "101108.856000", "101108.858000", "101108.861000", "101108.864000", "101108.867000", "101108.870000", "101108.873000", "101108.876000", "101108.879000", "101108.881000", "101108.884000", "101108.888000", "101108.891000", "101108.894000", "101108.897000", "101108.900000", "101108.902000", "101108.905000", "101148.832000", "101148.835000", "101148.838000", "101148.841000", "101148.843000", "101148.846000", "101148.849000", "101148.852000", "101148.855000", "101148.857000", "101148.860000", "101148.863000", "101148.866000", "101148.877000", "101148.880000", "101148.883000", "101148.885000", "101148.888000", "101148.891000", "101148.894000", "101148.897000", "101148.899000", "101148.902000", "101148.905000", "101148.908000", "101148.911000", "101148.914000", "101228.832000", "101228.835000", "101228.838000", "101228.840000", "101228.843000", "101228.846000", "101228.849000", "101228.852000", "101228.855000", "101228.857000", "101228.860000", "101228.863000", "101228.866000", "101228.869000", "101228.872000", "101228.874000", "101228.877000", "101228.880000", "101228.883000", "101228.886000", "101228.889000", "101228.891000", "101228.894000", "101228.897000", "101228.900000", "101228.903000", "101228.905000", "101308.832000", "101308.835000", "101308.845000", "101308.848000", "101308.850000", "101308.853000", "101308.856000", "101308.859000", "101308.862000", "101308.864000", "101308.867000", "101308.870000", "101308.873000", "101308.876000", "101308.879000", "101308.882000", "101308.885000", "101308.888000", "101308.890000", "101308.893000", "101308.896000", "101308.899000", "101308.902000", "101308.904000", "101308.907000", "101308.910000", "101308.913000", "101348.833000", "101348.836000", "101348.839000", "101348.842000", "101348.844000", "101348.847000", "101348.858000", "101348.861000", "101348.864000", "101348.866000", "101348.869000", "101348.872000", "101348.875000", "101348.878000", "101348.894000", "101348.897000", "101348.900000", "101348.903000", "101348.906000", "101348.908000", "101348.911000", "101348.914000", "101348.917000", "101348.920000", "101348.923000", "101348.925000", "101348.928000", "101428.832000", "101428.835000", "101428.838000", "101428.840000", "101428.843000", "101428.846000", "101428.849000", "101428.852000", "101428.854000", "101428.857000", "101428.860000", "101428.863000", "101428.866000", "101428.869000", "101428.872000", "101428.874000", "101428.877000", "101428.880000", "101428.883000", "101428.886000", "101428.889000", "101428.891000", "101428.894000", "101428.897000", "101428.900000", "101428.903000", "101428.905000", "101508.832000", "101508.835000", "101508.838000", "101508.841000", "101508.843000", "101508.846000", "101508.849000", "101508.852000", "101508.855000", "101508.858000", "101508.860000", "101508.863000", "101508.866000", "101508.869000", "101508.872000", "101508.875000", "101508.877000", "101508.880000", "101508.883000", "101508.886000", "101508.889000", "101508.891000", "101508.894000", "101508.897000", "101508.900000", "101508.903000", "101508.905000", "101548.833000", "101548.836000", "101548.839000", "101548.841000", "101548.844000", "101548.847000", "101548.850000", "101548.853000", "101548.860000", "101548.863000", "101548.866000", "101548.869000", "101548.873000", "101548.876000", "101548.879000", "101548.882000", "101548.884000", "101548.887000", "101548.890000", "101548.893000", "101548.896000", "101548.898000", "101548.901000", "101548.904000", "101548.907000", "101548.910000", "101628.832000", "101628.835000", "101628.838000", "101628.841000", "101628.843000", "101628.846000", "101628.849000", "101628.852000", "101628.855000", "101628.858000", "101628.860000", "101628.863000", "101628.866000", "101628.869000", "101628.872000", "101628.875000", "101628.878000", "101628.880000", "101628.883000", "101628.886000", "101628.889000", "101628.892000", "101628.894000", "101628.897000", "101628.900000", "101628.903000", "101628.906000", "101708.832000", "101708.835000", "101708.838000", "101708.841000", "101708.843000", "101708.846000", "101708.849000", "101708.852000", "101708.855000", "101708.857000", "101708.860000", "101708.863000", "101708.866000", "101708.869000", "101708.872000", "101708.875000", "101708.877000", "101708.880000", "101708.883000", "101708.886000", "101708.889000", "101708.892000", "101708.895000", "101708.898000", "101708.900000", "101708.903000", "101708.906000", "101748.832000", "101748.835000", "101748.838000", "101748.840000", "101748.843000", "101748.846000", "101748.849000", "101748.852000", "101748.855000", "101748.857000", "101748.860000", "101748.863000", "101748.866000", "101748.869000", "101748.872000", "101748.874000", "101748.877000", "101748.880000", "101748.883000", "101748.886000", "101748.888000", "101748.891000", "101748.894000", "101748.897000", "101748.900000", "101748.903000", "101748.905000", "101828.833000", "101828.853000", "101828.856000", "101828.859000", "101828.862000", "101828.865000", "101828.868000", "101828.870000", "101828.873000", "101828.876000", "101828.879000", "101828.882000", "101828.885000", "101828.887000", "101828.890000", "101828.893000", "101828.896000", "101828.899000", "101828.902000", "101828.905000", "101828.907000", "101828.910000", "101828.913000", "101828.916000", "101828.919000", "101828.921000", "101828.924000", "101832.959000", "101832.962000", "101832.965000"],
