{
  "AcquisitionMatrixPE": 104,
  "AcquisitionNumber": 1,
  "AcquisitionTime": "09:28:38.567500",
  "BandwidthPerPixelPhaseEncode": 17.17,
  "BaseResolution": 104,
  "BodyPartExamined": "BRAIN",
  "CoilString": "HC1-7;NC1_2",
  "ConsistencyInfo": "N4_VE11C_LATEST_20160120",
  "ConversionSoftware": "dcm2niix",
  "ConversionSoftwareVersion": "v1.0.20190902",
  "DerivedVendorReportedEchoSpacing": 0.000560011,
  "DeviceSerialNumber": "167006",
  "DwellTime": 2.1e-06,
  "EchoTime": 0.037,
  "EchoTrainLength": 104,
  "EffectiveEchoSpacing": 0.000560011,
  "FlipAngle": 52,
  "ImageComments": "Unaliased_MB4_PE3_LB",
  "ImageOrientationPatientDICOM": [0.999663, 0.0256422, 0.00395617, -0.0198927, 0.855379, -0.517621],
  "ImageType": [
    "ORIGINAL",
    "PRIMARY",
    "M",
    "MB",
    "ND",
    "MOSAIC"
],
  "ImagingFrequency": 123.259,
  "InPlanePhaseEncodingDirectionDICOM": "COL",
  "InstitutionAddress": "Chemin_Queen-Mary_4565_Montreal_District_CA_H3W_1W5",
  "InstitutionName": "IUGM",
  "InstitutionalDepartmentName": "Department",
  "MRAcquisitionType": "2D",
  "MagneticFieldStrength": 3,
  "Manufacturer": "Siemens",
  "ManufacturersModelName": "Prisma_fit",
  "Modality": "MR",
  "MultibandAccelerationFactor": 4,
  "PartialFourier": 1,
  "PatientPosition": "HFS",
  "PercentPhaseFOV": 100,
  "PhaseEncodingDirection": "j",
  "PhaseEncodingSteps": 104,
  "PhaseResolution": 1,
  "PixelBandwidth": 2290,
  "ProcedureStepDescription": "video_friends",
  "ProtocolName": "func_task-friends-s05e01b",
  "PulseSequenceDetails": "%CustomerSeq%_cmrr_mbep2d_bold",
  "ReceiveCoilActiveElements": "HC1-7;NC1,2",
  "ReceiveCoilName": "HeadNeck_64",
  "ReconMatrixPE": 104,
  "RepetitionTime": 1.49,
  "SAR": 0.0366417,
  "ScanOptions": "FS",
  "ScanningSequence": "EP",
  "SequenceName": "epfid2d1_104",
  "SequenceVariant": "SK_SS",
  "SeriesDescription": "func_task-friends-s05e01b",
  "SeriesNumber": 11,
  "ShimSetting": [630, -7196, -8862, 355, -22, -271, -20, 1],
  "SliceThickness": 2,
  "SliceTiming": [0, 0.785, 0.1, 0.8825, 0.1975, 0.98, 0.295, 1.08, 0.3925, 1.1775, 0.49, 1.275, 0.59, 1.3725, 0.6875, 0, 0.785, 0.1, 0.8825, 0.1975, 0.98, 0.295, 1.08, 0.3925, 1.1775, 0.49, 1.275, 0.59, 1.3725, 0.6875, 0, 0.785, 0.1, 0.8825, 0.1975, 0.98, 0.295, 1.08, 0.3925, 1.1775, 0.49, 1.275, 0.59, 1.3725, 0.6875, 0, 0.785, 0.1, 0.8825, 0.1975, 0.98, 0.295, 1.08, 0.3925, 1.1775, 0.49, 1.275, 0.59, 1.3725, 0.6875],
  "SoftwareVersions": "syngo_MR_E11",
  "SpacingBetweenSlices": 2,
  "StationName": "MRC35049",
  "TaskName": "s05e01b",
  "TotalReadoutTime": 0.0576811,
  "TxRefAmp": 251.677,
  "WipMemBlock": "3aa87936-9ea5-4751-baa1-80ef1dff31ca||Sequence: R016 ve11c/master r/e634e98; Dec 19 2017 11:00:25 by eja",
  "dcmmeta_affine": [
    [-1.9993267059326172, -0.03978537395596504, 0.03331391140818596, 104.12437438964844],
    [-0.05128438025712967, 1.7107576131820679, -1.0347357988357544, -55.471004486083984],
    [0.007912338711321354, 1.035241723060608, 1.7112019062042236, -99.13935089111328],
    [0.0, 0.0, 0.0, 1.0]
],
  "dcmmeta_reorient_transform": [
    [0.0, -1.0, 0.0, 103.0],
    [1.0, 0.0, 0.0, 0.0],
    [0.0, 0.0, 1.0, 0.0],
    [0.0, 0.0, 0.0, 1.0]
],
  "dcmmeta_shape": [104, 104, 60, 474],
  "dcmmeta_slice_dim": 2,
  "dcmmeta_version": 0.6,
  "global": {
    "const": {
      "AcquisitionMatrix": [104, 0, 0, 104],
      "AngioFlag": "N",
      "BitsAllocated": 16,
      "BitsStored": 16,
      "BodyPartExamined": "BRAIN",
      "Columns": 832,
      "EchoNumbers": 1,
      "EchoTime": 37.0,
      "EchoTrainLength": 104,
      "FlipAngle": 52.0,
      "HighBit": 15,
      "ImageOrientationPatient": [0.99966335675332, 0.02564218959752, 0.00395616952857, -0.0198926868321, 0.85537882277323, -0.5176208559957],
      "ImagePositionPatient": [-813.29952829469, -762.12033167295, 381.43843518677],
      "ImageType": [
        "ORIGINAL",
        "PRIMARY",
        "M",
        "MB",
        "ND",
        "MOSAIC"
],
      "ImagedNucleus": "1H",
      "ImagingFrequency": 123.259001,
      "InPlanePhaseEncodingDirection": "COL",
      "MRAcquisitionType": "2D",
      "MagneticFieldStrength": 3.0,
      "Manufacturer": "SIEMENS",
      "ManufacturerModelName": "Prisma_fit",
      "Modality": "MR",
      "NumberOfAverages": 1.0,
      "NumberOfPhaseEncodingSteps": 104,
      "PercentPhaseFieldOfView": 100.0,
      "PercentSampling": 100.0,
      "PerformedProcedureStepStartTime": "084818.891000",
      "PhotometricInterpretation": "MONOCHROME2",
      "PixelBandwidth": 2290.0,
      "PixelRepresentation": 0,
      "PixelSpacing": [2.0, 2.0],
      "ProtocolName": "func_task-friends-s05e01b",
      "RepetitionTime": 1490.0,
      "Rows": 832,
      "SAR": 0.0366416783702,
      "SamplesPerPixel": 1,
      "ScanOptions": "FS",
      "ScanningSequence": "EP",
      "SequenceName": "epfid2d1_104",
      "SequenceVariant": [
        "SK",
        "SS"
],
      "SeriesDescription": "func_task-friends-s05e01b",
      "SeriesNumber": 11,
      "SeriesTime": "093008.870000",
      "SliceLocation": -54.390413711853,
      "SliceThickness": 2.0,
      "SmallestImagePixelValue": 0,
      "SoftwareVersions": "syngo MR E11",
      "SpacingBetweenSlices": 1.9999999780186,
      "SpecificCharacterSet": "ISO_IR 100",
      "StudyID": "1",
      "StudyTime": "084818.766000",
      "TransmitCoilName": "Body",
      "VariableFlipAngleFlag": "N",
      "WindowCenterWidthExplanation": "Algo1",
      "dBdt": 0.0},
    "slices": {}
  },
  "time": {
    "samples": {
      "AcquisitionNumber": [1, 2, 3, 4, 5, 6, 7, 8, 9, 10, 11, 12, 13, 14, 15, 16, 17, 18, 19, 20, 21, 22, 23, 24, 25, 26, 27, 28, 29, 30, 31, 32, 33, 34, 35, 36, 37, 38, 39, 40, 41, 42, 43, 44, 45, 46, 47, 48, 49, 50, 51, 52, 53, 54, 55, 56, 57, 58, 59, 60, 61, 62, 63, 64, 65, 66, 67, 68, 69, 70, 71, 72, 73, 74, 75, 76, 77, 78, 79, 80, 81, 82, 83, 84, 85, 86, 87, 88, 89, 90, 91, 92, 93, 94, 95, 96, 97, 98, 99, 100, 101, 102, 103, 104, 105, 106, 107, 108, 109, 110, 111, 112, 113, 114, 115, 116, 117, 118, 119, 120, 121, 122, 123, 124, 125, 126, 127, 128, 129, 130, 131, 132, 133, 134, 135, 136, 137, 138, 139, 140, 141, 142, 143, 144, 145, 146, 147, 148, 149, 150, 151, 152, 153, 154, 155, 156, 157, 158, 159, 160, 161, 162, 163, 164, 165, 166, 167, 168, 169, 170, 171, 172, 173, 174, 175, 176, 177, 178, 179, 180, 181, 182, 183, 184, 185, 186, 187, 188, 189, 190, 191, 192, 193, 194, 195, 196, 197, 198, 199, 200, 201, 202, 203, 204, 205, 206, 207, 208, 209, 210, 211, 212, 213, 214, 215, 216, 217, 218, 219, 220, 221, 222, 223, 224, 225, 226, 227, 228, 229, 230, 231, 232, 233, 234, 235, 236, 237, 238, 239, 240, 241, 242, 243, 244, 245, 246, 247, 248, 249, 250, 251, 252, 253, 254, 255, 256, 257, 258, 259, 260, 261, 262, 263, 264, 265, 266, 267, 268, 269, 270, 271, 272, 273, 274, 275, 276, 277, 278, 279, 280, 281, 282, 283, 284, 285, 286, 287, 288, 289, 290, 291, 292, 293, 294, 295, 296, 297, 298, 299, 300, 301, 302, 303, 304, 305, 306, 307, 308, 309, 310, 311, 312, 313, 314, 315, 316, 317, 318, 319, 320, 321, 322, 323, 324, 325, 326, 327, 328, 329, 330, 331, 332, 333, 334, 335, 336, 337, 338, 339, 340, 341, 342, 343, 344, 345, 346, 347, 348, 349, 350, 351, 352, 353, 354, 355, 356, 357, 358, 359, 360, 361, 362, 363, 364, 365, 366, 367, 368, 369, 370, 371, 372, 373, 374, 375, 376, 377, 378, 379, 380, 381, 382, 383, 384, 385, 386, 387, 388, 389, 390, 391, 392, 393, 394, 395, 396, 397, 398, 399, 400, 401, 402, 403, 404, 405, 406, 407, 408, 409, 410, 411, 412, 413, 414, 415, 416, 417, 418, 419, 420, 421, 422, 423, 424, 425, 426, 427, 428, 429, 430, 431, 432, 433, 434, 435, 436, 437, 438, 439, 440, 441, 442, 443, 444, 445, 446, 447, 448, 449, 450, 451, 452, 453, 454, 455, 456, 457, 458, 459, 460, 461, 462, 463, 464, 465, 466, 467, 468, 469, 470, 471, 472, 473, 474],
      "AcquisitionTime": ["092838.567500", "092840.057500", "092841.547500", "092843.037500", "092844.527500", "092846.017500", "092847.507500", "092848.997500", "092850.487500", "092851.977500", "092853.467500", "092854.957500", "092856.447500", "092857.937500", "092859.427500", "092900.917500", "092902.407500", "092903.897500", "092905.387500", "092906.877500", "092908.367500", "092909.857500", "092911.347500", "092912.837500", "092914.327500", "092915.817500", "092917.307500", "092918.797500", "092920.287500", "092921.777500", "092923.267500", "092924.757500", "092926.247500", "092927.737500", "092929.227500", "092930.717500", "092932.207500", "092933.697500", "092935.187500", "092936.677500", "092938.167500", "092939.657500", "092941.147500", "092942.637500", "092944.127500", "092945.617500", "092947.107500", "092948.597500", "092950.087500", "092951.577500", "092953.067500", "092954.557500", "092956.047500", "092957.537500", "092959.027500", "093000.517500", "093002.007500", "093003.497500", "093004.987500", "093006.477500", "093007.967500", "093009.457500", "093010.947500", "093012.437500", "093013.927500", "093015.417500", "093016.907500", "093018.397500", "093019.887500", "093021.377500", "093022.867500", "093024.357500", "093025.847500", "093027.337500", "093028.827500", "093030.317500", "093031.807500", "093033.297500", "093034.787500", "093036.277500", "093037.767500", "093039.257500", "093040.747500", "093042.237500", "093043.727500", "093045.217500", "093046.707500", "093048.197500", "093049.687500", "093051.177500", "093052.667500", "093054.157500", "093055.647500", "093057.137500", "093058.627500", "093100.117500", "093101.607500", "093103.097500", "093104.587500", "093106.077500", "093107.567500", "093109.057500", "093110.547500", "093112.037500", "093113.527500", "093115.017500", "093116.507500", "093117.997500", "093119.487500", "093120.977500", "093122.467500", "093123.957500", "093125.447500", "093126.937500", "093128.427500", "093129.917500", "093131.407500", "093132.897500", "093134.387500", "093135.877500", "093137.367500", "093138.857500", "093140.347500", "093141.837500", "093143.327500", "093144.817500", "093146.307500", "093147.797500", "093149.287500", "093150.777500", "093152.267500", "093153.757500", "093155.247500", "093156.737500", "093158.227500", "093159.717500", "093201.207500", "093202.697500", "093204.187500", "093205.677500", "093207.167500", "093208.657500", "093210.147500", "093211.637500", "093213.127500", "093214.617500", "093216.107500", "093217.597500", "093219.087500", "093220.577500", "093222.067500", "093223.557500", "093225.047500", "093226.537500", "093228.027500", "093229.517500", "093231.007500", "093232.497500", "093233.987500", "093235.477500", "093236.967500", "093238.457500", "093239.947500", "093241.437500", "093242.927500", "093244.417500", "093245.907500", "093247.397500", "093248.887500", "093250.377500", "093251.867500", "093253.357500", "093254.847500", "093256.337500", "093257.827500", "093259.317500", "093300.807500", "093302.297500", "093303.787500", "093305.277500", "093306.767500", "093308.257500", "093309.747500", "093311.237500", "093312.727500", "093314.217500", "093315.707500", "093317.197500", "093318.687500", "093320.177500", "093321.667500", "093323.157500", "093324.647500", "093326.137500", "093327.627500", "093329.117500", "093330.607500", "093332.097500", "093333.587500", "093335.077500", "093336.567500", "093338.057500", "093339.547500", "093341.037500", "093342.527500", "093344.017500", "093345.507500", "093346.997500", "093348.487500", "093349.977500", "093351.467500", "093352.957500", "093354.447500", "093355.937500", "093357.427500", "093358.917500", "093400.407500", "093401.897500", "093403.387500", "093404.877500", "093406.367500", "093407.857500", "093409.347500", "093410.837500", "093412.327500", "093413.817500", "093415.307500", "093416.797500", "093418.287500", "093419.777500", "093421.267500", "093422.757500", "093424.247500", "093425.737500", "093427.227500", "093428.717500", "093430.207500", "093431.697500", "093433.187500", "093434.677500", "093436.167500", "093437.657500", "093439.147500", "093440.637500", "093442.127500", "093443.617500", "093445.107500", "093446.597500", "093448.087500", "093449.577500", "093451.067500", "093452.557500", "093454.047500", "093455.537500", "093457.027500", "093458.517500", "093500.007500", "093501.497500", "093502.987500", "093504.477500", "093505.967500", "093507.457500", "093508.947500", "093510.437500", "093511.927500", "093513.417500", "093514.907500", "093516.397500", "093517.887500", "093519.377500", "093520.867500", "093522.357500", "093523.847500", "093525.337500", "093526.827500", "093528.317500", "093529.807500", "093531.297500", "093532.787500", "093534.277500", "093535.767500", "093537.257500", "093538.747500", "093540.237500", "093541.727500", "093543.217500", "093544.707500", "093546.197500", "093547.687500", "093549.177500", "093550.667500", "093552.157500", "093553.647500", "093555.137500", "093556.627500", "093558.117500", "093559.607500", "093601.097500", "093602.587500", "093604.077500", "093605.567500", "093607.057500", "093608.547500", "093610.037500", "093611.527500", "093613.017500", "093614.507500", "093615.997500", "093617.487500", "093618.977500", "093620.467500", "093621.957500", "093623.447500", "093624.937500", "093626.427500", "093627.917500", "093629.407500", "093630.897500", "093632.387500", "093633.877500", "093635.367500", "093636.857500", "093638.347500", "093639.837500", "093641.327500", "093642.817500", "093644.307500", "093645.797500", "093647.287500", "093648.777500", "093650.267500", "093651.757500", "093653.247500", "093654.737500", "093656.227500", "093657.717500", "093659.207500", "093700.697500", "093702.187500", "093703.677500", "093705.167500", "093706.657500", "093708.147500", "093709.637500", "093711.127500", "093712.617500", "093714.107500", "093715.597500", "093717.087500", "093718.577500", "093720.067500", "093721.557500", "093723.047500", "093724.537500", "093726.027500", "093727.517500", "093729.007500", "093730.497500", "093731.987500", "093733.477500", "093734.967500", "093736.457500", "093737.947500", "093739.437500", "093740.927500", "093742.417500", "093743.907500", "093745.397500", "093746.887500", "093748.377500", "093749.867500", "093751.357500", "093752.847500", "093754.337500", "093755.827500", "093757.317500", "093758.807500", "093800.297500", "093801.787500", "093803.277500", "093804.767500", "093806.257500", "093807.747500", "093809.237500", "093810.727500", "093812.217500", "093813.707500", "093815.197500", "093816.687500", "093818.177500", "093819.667500", "093821.157500", "093822.647500", "093824.137500", "093825.627500", "093827.117500", "093828.607500", "093830.097500", "093831.587500", "093833.077500", "093834.567500", "093836.057500", "093837.547500", "093839.037500", "093840.527500", "093842.017500", "093843.507500", "093844.997500", "093846.487500", "093847.977500", "093849.467500", "093850.957500", "093852.447500", "093853.937500", "093855.427500", "093856.917500", "093858.407500", "093859.897500", "093901.387500", "093902.877500", "093904.367500", "093905.857500", "093907.347500", "093908.837500", "093910.327500", "093911.817500", "093913.307500", "093914.797500", "093916.287500", "093917.777500", "093919.267500", "093920.757500", "093922.247500", "093923.737500", "093925.227500", "093926.717500", "093928.207500", "093929.697500", "093931.187500", "093932.677500", "093934.167500", "093935.657500", "093937.147500", "093938.637500", "093940.127500", "093941.617500", "093943.107500", "093944.597500", "093946.087500", "093947.577500", "093949.067500", "093950.557500", "093952.047500", "093953.537500", "093955.027500", "093956.517500", "093958.007500", "093959.497500", "094000.987500", "094002.477500", "094003.967500", "094005.457500", "094006.947500", "094008.437500", "094009.927500", "094011.417500", "094012.907500", "094014.397500", "094015.887500", "094017.377500", "094018.867500", "094020.357500", "094021.847500", "094023.337500"],
      "ContentTime": ["093008.873000", "093008.877000", "093008.880000", "093008.884000", "093008.887000", "093008.890000", "093008.893000", "093008.895000", "093008.898000", "093008.901000", "093008.904000", "093008.907000", "093008.909000", "093008.912000", "093008.915000", "093008.918000", "093008.921000", "093008.924000", "093008.926000", "093008.929000", "093008.932000", "093008.935000", "093008.937000", "093008.950000", "093008.953000", "093008.955000", "093008.958000", "093008.961000", "093008.964000", "093008.981000", "093008.984000", "093008.986000", "093008.989000", "093008.992000", "093008.995000", "093008.998000", "093028.832000", "093028.835000", "093028.838000", "093028.855000", "093028.858000", "093028.861000", "093028.863000", "093028.866000", "093028.869000", "093028.872000", "093028.875000", "093028.878000", "093028.880000", "093028.883000", "093028.886000", "093028.889000", "093028.892000", "093028.894000", "093028.897000", "093028.900000", "093048.832000", "093048.835000", "093048.837000", "093048.840000", "093048.843000", "093048.846000", "093048.849000", "093048.851000", "093048.854000", "093048.857000", "093048.860000", "093048.863000", "093048.866000", "093048.868000", "093048.871000", "093048.874000", "093048.877000", "093048.880000", "093048.883000", "093048.885000", "093108.832000", "093108.835000", "093108.838000", "093108.840000", "093108.843000", "093108.846000", "093108.849000", "093108.852000", "093108.855000", "093108.857000", "093108.860000", "093108.863000", "093108.866000", "093108.869000", "093108.872000", "093108.874000", "093108.877000", "093108.880000", "093108.883000", "093108.886000", "093108.889000", "093148.833000", "093148.836000", "093148.839000", "093148.841000", "093148.844000", "093148.847000", "093148.850000", "093148.853000", "093148.856000", "093148.858000", "093148.861000", "093148.864000", "093148.867000", "093148.870000", "093148.872000", "093148.875000", "093148.878000", "093148.881000", "093148.884000", "093148.886000", "093148.889000", "093148.892000", "093148.895000", "093148.898000", "093148.901000", "093148.903000", "093148.906000", "093148.909000", "093148.912000", "093148.914000", "093228.832000", "093228.835000", "093228.838000", "093228.840000", "093228.843000", "093228.846000", "093228.849000", "093228.852000", "093228.855000", "093228.857000", "093228.860000", "093228.863000", "093228.866000", "093228.869000", "093228.872000", "093228.874000", "093228.877000", "093228.880000", "093228.883000", "093228.886000", "093228.889000", "093228.891000", "093228.894000", "093228.897000", "093228.900000", "093228.903000", "093228.905000", "093308.832000", "093308.835000", "093308.838000", "093308.841000", "093308.843000", "093308.846000", "093308.849000", "093308.852000", "093308.855000", "093308.857000", "093308.860000", "093308.863000", "093308.866000", "093308.869000", "093308.879000", "093308.882000", "093308.885000", "093308.887000", "093308.890000", "093308.893000", "093308.896000", "093308.899000", "093308.902000", "093308.904000", "093308.907000", "093308.910000", "093308.913000", "093348.832000", "093348.835000", "093348.838000", "093348.841000", "093348.843000", "093348.846000", "093348.849000", "093348.852000", "093348.855000", "093348.858000", "093348.861000", "093348.863000", "093348.866000", "093348.869000", "093348.872000", "093348.875000", "093348.877000", "093348.880000", "093348.883000", "093348.886000", "093348.889000", "093348.892000", "093348.894000", "093348.897000", "093348.900000", "093348.903000", "093348.906000", "093428.833000", "093428.836000", "093428.839000", "093428.841000", "093428.844000", "093428.847000", "093428.850000", "093428.853000", "093428.856000", "093428.858000", "093428.861000", "093428.864000", "093428.867000", "093428.870000", "093428.872000", "093428.875000", "093428.878000", "093428.881000", "093428.884000", "093428.887000", "093428.889000", "093428.892000", "093428.896000", "093428.899000", "093428.902000", "093428.905000", "093508.832000", "093508.878000", "093508.881000", "093508.884000", "093508.887000", "093508.889000", "093508.909000", "093508.912000", "093508.914000", "093508.917000", "093508.920000", "093508.923000", "093508.926000", "093508.929000", "093508.931000", "093508.934000", "093508.944000", "093508.947000", "093508.950000", "093508.952000", "093508.955000", "093508.958000", "093508.961000", "093508.964000", "093508.967000", "093508.969000", "093508.972000", "093548.832000", "093548.835000", "093548.838000", "093548.841000", "093548.844000", "093548.847000", "093548.850000", "093548.853000", "093548.856000", "093548.859000", "093548.862000", "093548.865000", "093548.868000", "093548.871000", "093548.874000", "093548.877000", "093548.879000", "093548.882000", "093548.885000", "093548.888000", "093548.891000", "093548.894000", "093548.897000", "093548.900000", "093548.903000", "093548.906000", "093548.909000", "093628.833000", "093628.836000", "093628.839000", "093628.842000", "093628.844000", "093628.847000", "093628.850000", "093628.853000", "093628.856000", "093628.859000", "093628.861000", "093628.864000", "093628.867000", "093628.870000", "093628.873000", "093628.876000", "093628.878000", "093628.881000", "093628.884000", "093628.887000", "093628.890000", "093628.893000", "093628.895000", "093628.898000", "093628.901000", "093628.904000", "093628.907000", "093708.832000", "093708.835000", "093708.838000", "093708.841000", "093708.844000", "093708.846000", "093708.849000", "093708.852000", "093708.855000", "093708.858000", "093708.861000", "093708.863000", "093708.866000", "093708.869000", "093708.872000", "093708.875000", "093708.878000", "093708.880000", "093708.883000", "093708.886000", "093708.889000", "093708.892000", "093708.895000", "093708.897000", "093708.900000", "093708.903000", "093708.906000", "093748.832000", "093748.835000", "093748.838000", "093748.841000", "093748.843000", "093748.846000", "093748.849000", "093748.852000", "093748.855000", "093748.858000", "093748.860000", "093748.863000", "093748.866000", "093748.869000", "093748.872000", "093748.874000", "093748.877000", "093748.880000", "093748.883000", "093748.886000", "093748.889000", "093748.892000", "093748.894000", "093748.897000", "093748.900000", "093748.903000", "093748.906000", "093828.832000", "093828.835000", "093828.838000", "093828.841000", "093828.844000", "093828.847000", "093828.850000", "093828.852000", "093828.855000", "093828.858000", "093828.861000", "093828.864000", "093828.866000", "093828.869000", "093828.872000", "093828.875000", "093828.878000", "093828.881000", "093828.884000", "093828.886000", "093828.889000", "093828.892000", "093828.895000", "093828.898000", "093828.901000", "093828.904000", "093908.833000", "093908.836000", "093908.839000", "093908.842000", "093908.845000", "093908.847000", "093908.850000", "093908.853000", "093908.856000", "093908.859000", "093908.862000", "093908.864000", "093908.867000", "093908.870000", "093908.873000", "093908.876000", "093908.878000", "093908.881000", "093908.884000", "093908.887000", "093908.890000", "093908.893000", "093908.896000", "093908.898000", "093908.901000", "093908.904000", "093908.907000", "093948.832000", "093948.835000", "093948.838000", "093948.841000", "093948.843000", "093948.846000", "093948.849000", "093948.868000", "093948.871000", "093948.874000", "093948.877000", "093948.880000", "093948.882000", "093948.885000", "093948.888000", "093948.891000", "093948.894000", "093948.897000", "093948.899000", "093948.902000", "093948.905000", "093948.908000", "093948.911000", "093948.914000", "093948.916000", "093948.919000", "093948.922000", "094025.187000", "094025.190000", "094025.193000", "094025.196000", "094025.199000", "094025.202000", "094025.205000", "094025.208000", "094025.211000", "094025.213000", "094025.216000", "094025.219000", "094025.222000", "094025.225000", "094025.228000", "094025.231000", "094025.234000", "094025.237000", "094025.240000", "094025.243000", "094025.246000", "094025.249000", "094025.252000", "094025.254000", "094025.257000"],
