{
  "AcquisitionMatrixPE": 104,
  "AcquisitionNumber": 1,
  "AcquisitionTime": "13:49:52.697500",
  "BandwidthPerPixelPhaseEncode": 17.17,
  "BaseResolution": 104,
  "BodyPartExamined": "BRAIN",
  "CoilString": "HC1-7;NC1_2",
  "ConsistencyInfo": "N4_VE11C_LATEST_20160120",
  "ConversionSoftware": "dcm2niix",
  "ConversionSoftwareVersion": "v1.0.20190902",
  "DerivedVendorReportedEchoSpacing": 0.000560011,
  "DeviceSerialNumber": "167006",
  "DwellTime": 2.1e-06,
  "EchoTime": 0.037,
  "EchoTrainLength": 104,
  "EffectiveEchoSpacing": 0.000560011,
  "FlipAngle": 52,
  "HeudiconvVersion": "0.10.0",
  "ImageComments": "Unaliased_MB4_PE3_LB",
  "ImageOrientationPatientDICOM": [0.999879, 0.0146459, 0.00521846, -0.0130892, 0.974074, -0.225851],
  "ImageType": [
    "ORIGINAL",
    "PRIMARY",
    "M",
    "MB",
    "ND",
    "MOSAIC"
],
  "ImagingFrequency": 123.259,
  "InPlanePhaseEncodingDirectionDICOM": "COL",
  "InstitutionAddress": "Chemin_Queen-Mary_4565_Montreal_District_CA_H3W_1W5",
  "InstitutionName": "IUGM",
  "InstitutionalDepartmentName": "Department",
  "MRAcquisitionType": "2D",
  "MagneticFieldStrength": 3,
  "Manufacturer": "Siemens",
  "ManufacturersModelName": "Prisma_fit",
  "Modality": "MR",
  "MultibandAccelerationFactor": 4,
  "PartialFourier": 1,
  "PatientPosition": "HFS",
  "PercentPhaseFOV": 100,
  "PhaseEncodingDirection": "j",
  "PhaseEncodingSteps": 104,
  "PhaseResolution": 1,
  "PixelBandwidth": 2290,
  "ProcedureStepDescription": "video_friends",
  "ProtocolName": "func_task-friends-s06e04a",
  "PulseSequenceDetails": "%CustomerSeq%_cmrr_mbep2d_bold",
  "ReceiveCoilActiveElements": "HC1-7;NC1,2",
  "ReceiveCoilName": "HeadNeck_64",
  "ReconMatrixPE": 104,
  "RepetitionTime": 1.49,
  "SAR": 0.0372197,
  "ScanOptions": "FS",
  "ScanningSequence": "EP",
  "SequenceName": "epfid2d1_104",
  "SequenceVariant": "SK_SS",
  "SeriesDescription": "func_task-friends-s06e04a",
  "SeriesNumber": 13,
  "ShimSetting": [635, -7219, -8788, 742, 37, -26, 86, -23],
  "SliceThickness": 2,
  "SliceTiming": [0, 0.785, 0.0975, 0.8825, 0.195, 0.98, 0.295, 1.0775, 0.3925, 1.175, 0.49, 1.275, 0.5875, 1.3725, 0.685, 0, 0.785, 0.0975, 0.8825, 0.195, 0.98, 0.295, 1.0775, 0.3925, 1.175, 0.49, 1.275, 0.5875, 1.3725, 0.685, 0, 0.785, 0.0975, 0.8825, 0.195, 0.98, 0.295, 1.0775, 0.3925, 1.175, 0.49, 1.275, 0.5875, 1.3725, 0.685, 0, 0.785, 0.0975, 0.8825, 0.195, 0.98, 0.295, 1.0775, 0.3925, 1.175, 0.49, 1.275, 0.5875, 1.3725, 0.685],
  "SoftwareVersions": "syngo_MR_E11",
  "SpacingBetweenSlices": 2,
  "StationName": "MRC35049",
  "TaskName": "s06e04a",
  "TotalReadoutTime": 0.0576811,
  "TxRefAmp": 211.283,
  "WipMemBlock": "605adf24-51af-4d36-a986-7c6c16263d19||Sequence: R016 ve11c/master r/e634e98; Dec 19 2017 11:00:25 by eja",
  "dcmmeta_affine": [
    [-1.999758243560791, -0.026178305968642235, 0.016781900078058243, 105.81230163574219],
    [-0.029291749000549316, 1.9481478929519653, -0.4515105187892914, -83.44927215576172],
    [0.010436922311782837, 0.45170173048973083, 1.9482958316802979, -58.57065200805664],
    [0.0, 0.0, 0.0, 1.0]
],
  "dcmmeta_reorient_transform": [
    [0.0, -1.0, 0.0, 103.0],
    [1.0, 0.0, 0.0, 0.0],
    [0.0, 0.0, 1.0, 0.0],
    [0.0, 0.0, 0.0, 1.0]
],
  "dcmmeta_shape": [104, 104, 60, 439],
  "dcmmeta_slice_dim": 2,
  "dcmmeta_version": 0.6,
  "global": {
    "const": {
      "AcquisitionMatrix": [104, 0, 0, 104],
      "AngioFlag": "N",
      "BitsAllocated": 16,
      "BitsStored": 16,
      "BodyPartExamined": "BRAIN",
      "Columns": 832,
      "EchoNumbers": 1,
      "EchoTime": 37.0,
      "EchoTrainLength": 104,
      "FlipAngle": 52.0,
      "HighBit": 15,
      "ImageOrientationPatient": [0.99987912571172, 0.01464587421296, 0.00521846093281, -0.0130891527567, 0.97407394982808, -0.225850867491],
      "ImagePositionPatient": [-821.49904021939, -836.99799315811, 148.57501998348],
      "ImageType": [
        "ORIGINAL",
        "PRIMARY",
        "M",
        "MB",
        "ND",
        "MOSAIC"
],
      "ImagedNucleus": "1H",
      "ImagingFrequency": 123.258873,
      "InPlanePhaseEncodingDirection": "COL",
      "MRAcquisitionType": "2D",
      "MagneticFieldStrength": 3.0,
      "Manufacturer": "SIEMENS",
      "ManufacturerModelName": "Prisma_fit",
      "Modality": "MR",
      "NumberOfAverages": 1.0,
      "NumberOfPhaseEncodingSteps": 104,
      "PercentPhaseFieldOfView": 100.0,
      "PercentSampling": 100.0,
      "PerformedProcedureStepStartTime": "125938.435000",
      "PhotometricInterpretation": "MONOCHROME2",
      "PixelBandwidth": 2290.0,
      "PixelRepresentation": 0,
      "PixelSpacing": [2.0, 2.0],
      "ProtocolName": "func_task-friends-s06e04a",
      "RepetitionTime": 1490.0,
      "Rows": 832,
      "SAR": 0.03721969982043,
      "SamplesPerPixel": 1,
      "ScanOptions": "FS",
      "ScanningSequence": "EP",
      "SequenceName": "epfid2d1_104",
      "SequenceVariant": [
        "SK",
        "SS"
],
      "SeriesDescription": "func_task-friends-s06e04a",
      "SeriesNumber": 13,
      "SeriesTime": "135114.223000",
      "SliceLocation": -37.329498839501,
      "SliceThickness": 2.0,
      "SmallestImagePixelValue": 0,
      "SoftwareVersions": "syngo MR E11",
      "SpacingBetweenSlices": 2.0000000283912,
      "SpecificCharacterSet": "ISO_IR 100",
      "StudyID": "1",
      "StudyTime": "125938.347000",
      "TransmitCoilName": "Body",
      "VariableFlipAngleFlag": "N",
      "WindowCenterWidthExplanation": "Algo1",
      "dBdt": 0.0},
    "slices": {}
  },
  "time": {
    "samples": {
      "AcquisitionNumber": [1, 2, 3, 4, 5, 6, 7, 8, 9, 10, 11, 12, 13, 14, 15, 16, 17, 18, 19, 20, 21, 22, 23, 24, 25, 26, 27, 28, 29, 30, 31, 32, 33, 34, 35, 36, 37, 38, 39, 40, 41, 42, 43, 44, 45, 46, 47, 48, 49, 50, 51, 52, 53, 54, 55, 56, 57, 58, 59, 60, 61, 62, 63, 64, 65, 66, 67, 68, 69, 70, 71, 72, 73, 74, 75, 76, 77, 78, 79, 80, 81, 82, 83, 84, 85, 86, 87, 88, 89, 90, 91, 92, 93, 94, 95, 96, 97, 98, 99, 100, 101, 102, 103, 104, 105, 106, 107, 108, 109, 110, 111, 112, 113, 114, 115, 116, 117, 118, 119, 120, 121, 122, 123, 124, 125, 126, 127, 128, 129, 130, 131, 132, 133, 134, 135, 136, 137, 138, 139, 140, 141, 142, 143, 144, 145, 146, 147, 148, 149, 150, 151, 152, 153, 154, 155, 156, 157, 158, 159, 160, 161, 162, 163, 164, 165, 166, 167, 168, 169, 170, 171, 172, 173, 174, 175, 176, 177, 178, 179, 180, 181, 182, 183, 184, 185, 186, 187, 188, 189, 190, 191, 192, 193, 194, 195, 196, 197, 198, 199, 200, 201, 202, 203, 204, 205, 206, 207, 208, 209, 210, 211, 212, 213, 214, 215, 216, 217, 218, 219, 220, 221, 222, 223, 224, 225, 226, 227, 228, 229, 230, 231, 232, 233, 234, 235, 236, 237, 238, 239, 240, 241, 242, 243, 244, 245, 246, 247, 248, 249, 250, 251, 252, 253, 254, 255, 256, 257, 258, 259, 260, 261, 262, 263, 264, 265, 266, 267, 268, 269, 270, 271, 272, 273, 274, 275, 276, 277, 278, 279, 280, 281, 282, 283, 284, 285, 286, 287, 288, 289, 290, 291, 292, 293, 294, 295, 296, 297, 298, 299, 300, 301, 302, 303, 304, 305, 306, 307, 308, 309, 310, 311, 312, 313, 314, 315, 316, 317, 318, 319, 320, 321, 322, 323, 324, 325, 326, 327, 328, 329, 330, 331, 332, 333, 334, 335, 336, 337, 338, 339, 340, 341, 342, 343, 344, 345, 346, 347, 348, 349, 350, 351, 352, 353, 354, 355, 356, 357, 358, 359, 360, 361, 362, 363, 364, 365, 366, 367, 368, 369, 370, 371, 372, 373, 374, 375, 376, 377, 378, 379, 380, 381, 382, 383, 384, 385, 386, 387, 388, 389, 390, 391, 392, 393, 394, 395, 396, 397, 398, 399, 400, 401, 402, 403, 404, 405, 406, 407, 408, 409, 410, 411, 412, 413, 414, 415, 416, 417, 418, 419, 420, 421, 422, 423, 424, 425, 426, 427, 428, 429, 430, 431, 432, 433, 434, 435, 436, 437, 438, 439],
      "AcquisitionTime": ["134952.697500", "134954.187500", "134955.677500", "134957.167500", "134958.657500", "135000.147500", "135001.637500", "135003.127500", "135004.617500", "135006.107500", "135007.597500", "135009.087500", "135010.577500", "135012.067500", "135013.557500", "135015.047500", "135016.537500", "135018.027500", "135019.517500", "135021.007500", "135022.497500", "135023.987500", "135025.477500", "135026.967500", "135028.457500", "135029.947500", "135031.437500", "135032.927500", "135034.417500", "135035.907500", "135037.397500", "135038.887500", "135040.377500", "135041.867500", "135043.357500", "135044.847500", "135046.337500", "135047.827500", "135049.317500", "135050.807500", "135052.297500", "135053.787500", "135055.277500", "135056.767500", "135058.257500", "135059.747500", "135101.237500", "135102.727500", "135104.217500", "135105.707500", "135107.197500", "135108.687500", "135110.177500", "135111.667500", "135113.157500", "135114.647500", "135116.137500", "135117.627500", "135119.117500", "135120.607500", "135122.097500", "135123.587500", "135125.077500", "135126.567500", "135128.057500", "135129.547500", "135131.037500", "135132.527500", "135134.017500", "135135.507500", "135136.997500", "135138.487500", "135139.977500", "135141.467500", "135142.957500", "135144.447500", "135145.937500", "135147.427500", "135148.917500", "135150.407500", "135151.897500", "135153.387500", "135154.877500", "135156.367500", "135157.857500", "135159.347500", "135200.837500", "135202.327500", "135203.817500", "135205.307500", "135206.797500", "135208.287500", "135209.777500", "135211.267500", "135212.757500", "135214.247500", "135215.737500", "135217.227500", "135218.717500", "135220.207500", "135221.697500", "135223.187500", "135224.677500", "135226.167500", "135227.657500", "135229.147500", "135230.637500", "135232.127500", "135233.617500", "135235.107500", "135236.597500", "135238.087500", "135239.577500", "135241.067500", "135242.557500", "135244.047500", "135245.537500", "135247.027500", "135248.517500", "135250.007500", "135251.497500", "135252.987500", "135254.477500", "135255.967500", "135257.457500", "135258.947500", "135300.437500", "135301.927500", "135303.417500", "135304.907500", "135306.397500", "135307.887500", "135309.377500", "135310.867500", "135312.357500", "135313.847500", "135315.337500", "135316.827500", "135318.317500", "135319.807500", "135321.297500", "135322.787500", "135324.277500", "135325.767500", "135327.257500", "135328.747500", "135330.237500", "135331.727500", "135333.217500", "135334.707500", "135336.197500", "135337.687500", "135339.177500", "135340.667500", "135342.157500", "135343.647500", "135345.137500", "135346.627500", "135348.117500", "135349.607500", "135351.097500", "135352.587500", "135354.077500", "135355.567500", "135357.057500", "135358.547500", "135400.037500", "135401.527500", "135403.017500", "135404.507500", "135405.997500", "135407.487500", "135408.977500", "135410.467500", "135411.957500", "135413.447500", "135414.937500", "135416.427500", "135417.917500", "135419.407500", "135420.897500", "135422.387500", "135423.877500", "135425.367500", "135426.857500", "135428.347500", "135429.837500", "135431.327500", "135432.817500", "135434.307500", "135435.797500", "135437.287500", "135438.777500", "135440.267500", "135441.757500", "135443.247500", "135444.737500", "135446.227500", "135447.717500", "135449.207500", "135450.697500", "135452.187500", "135453.677500", "135455.167500", "135456.657500", "135458.147500", "135459.637500", "135501.127500", "135502.617500", "135504.107500", "135505.597500", "135507.087500", "135508.577500", "135510.067500", "135511.557500", "135513.047500", "135514.537500", "135516.027500", "135517.517500", "135519.007500", "135520.497500", "135521.987500", "135523.477500", "135524.967500", "135526.457500", "135527.947500", "135529.437500", "135530.927500", "135532.417500", "135533.907500", "135535.397500", "135536.887500", "135538.377500", "135539.867500", "135541.357500", "135542.847500", "135544.337500", "135545.827500", "135547.317500", "135548.807500", "135550.297500", "135551.787500", "135553.277500", "135554.767500", "135556.257500", "135557.747500", "135559.237500", "135600.727500", "135602.217500", "135603.707500", "135605.197500", "135606.687500", "135608.177500", "135609.667500", "135611.157500", "135612.647500", "135614.137500", "135615.627500", "135617.117500", "135618.607500", "135620.097500", "135621.587500", "135623.077500", "135624.567500", "135626.057500", "135627.547500", "135629.037500", "135630.527500", "135632.017500", "135633.507500", "135634.997500", "135636.487500", "135637.977500", "135639.467500", "135640.957500", "135642.447500", "135643.937500", "135645.427500", "135646.917500", "135648.407500", "135649.897500", "135651.387500", "135652.877500", "135654.367500", "135655.857500", "135657.347500", "135658.837500", "135700.327500", "135701.817500", "135703.307500", "135704.797500", "135706.287500", "135707.777500", "135709.267500", "135710.757500", "135712.247500", "135713.737500", "135715.227500", "135716.717500", "135718.207500", "135719.697500", "135721.187500", "135722.677500", "135724.167500", "135725.657500", "135727.147500", "135728.637500", "135730.127500", "135731.617500", "135733.107500", "135734.597500", "135736.087500", "135737.577500", "135739.067500", "135740.557500", "135742.047500", "135743.537500", "135745.027500", "135746.517500", "135748.007500", "135749.497500", "135750.987500", "135752.477500", "135753.967500", "135755.457500", "135756.947500", "135758.437500", "135759.927500", "135801.417500", "135802.907500", "135804.397500", "135805.887500", "135807.377500", "135808.867500", "135810.357500", "135811.847500", "135813.337500", "135814.827500", "135816.317500", "135817.807500", "135819.297500", "135820.787500", "135822.277500", "135823.767500", "135825.257500", "135826.747500", "135828.237500", "135829.727500", "135831.217500", "135832.707500", "135834.197500", "135835.687500", "135837.177500", "135838.667500", "135840.157500", "135841.647500", "135843.137500", "135844.627500", "135846.117500", "135847.607500", "135849.097500", "135850.587500", "135852.077500", "135853.567500", "135855.057500", "135856.547500", "135858.037500", "135859.527500", "135901.017500", "135902.507500", "135903.997500", "135905.487500", "135906.977500", "135908.467500", "135909.957500", "135911.447500", "135912.937500", "135914.427500", "135915.917500", "135917.407500", "135918.897500", "135920.387500", "135921.877500", "135923.367500", "135924.857500", "135926.347500", "135927.837500", "135929.327500", "135930.817500", "135932.307500", "135933.797500", "135935.287500", "135936.777500", "135938.267500", "135939.757500", "135941.247500", "135942.737500", "135944.227500", "135945.717500", "135947.207500", "135948.697500", "135950.187500", "135951.677500", "135953.167500", "135954.657500", "135956.147500", "135957.637500", "135959.127500", "140000.617500", "140002.107500", "140003.597500", "140005.087500", "140006.577500", "140008.067500", "140009.557500", "140011.047500", "140012.537500", "140014.027500", "140015.517500", "140017.007500", "140018.497500", "140019.987500", "140021.477500", "140022.967500", "140024.457500", "140025.947500", "140027.437500", "140028.927500", "140030.417500", "140031.907500", "140033.397500", "140034.887500", "140036.377500", "140037.867500", "140039.357500", "140040.847500", "140042.337500", "140043.827500", "140045.317500"],
      "ContentTime": ["135114.226000", "135114.229000", "135114.232000", "135114.235000", "135114.246000", "135114.249000", "135114.251000", "135114.254000", "135114.257000", "135114.266000", "135114.269000", "135114.272000", "135114.275000", "135114.277000", "135114.280000", "135114.283000", "135114.286000", "135114.289000", "135114.292000", "135114.295000", "135114.298000", "135114.300000", "135114.303000", "135114.306000", "135114.309000", "135114.312000", "135114.315000", "135114.318000", "135134.177000", "135134.180000", "135134.183000", "135134.186000", "135134.189000", "135134.192000", "135134.195000", "135134.198000", "135134.200000", "135134.203000", "135134.206000", "135134.209000", "135134.212000", "135134.215000", "135134.218000", "135134.221000", "135134.224000", "135134.226000", "135134.229000", "135134.232000", "135154.177000", "135154.180000", "135154.183000", "135154.191000", "135154.194000", "135154.197000", "135154.200000", "135154.202000", "135154.211000", "135154.214000", "135154.217000", "135154.220000", "135154.222000", "135154.225000", "135154.228000", "135154.231000", "135154.234000", "135154.237000", "135154.240000", "135154.243000", "135214.177000", "135214.180000", "135214.183000", "135214.186000", "135214.189000", "135214.196000", "135214.199000", "135214.202000", "135214.205000", "135214.208000", "135214.210000", "135214.213000", "135214.216000", "135214.219000", "135214.222000", "135214.234000", "135214.236000", "135214.239000", "135214.242000", "135214.245000", "135254.178000", "135254.181000", "135254.184000", "135254.187000", "135254.190000", "135254.197000", "135254.200000", "135254.203000", "135254.205000", "135254.208000", "135254.211000", "135254.214000", "135254.217000", "135254.220000", "135254.223000", "135254.226000", "135254.229000", "135254.231000", "135254.234000", "135254.237000", "135254.240000", "135254.243000", "135254.246000", "135254.249000", "135254.252000", "135254.255000", "135254.257000", "135254.260000", "135254.281000", "135254.283000", "135254.286000", "135254.289000", "135254.292000", "135334.177000", "135334.180000", "135334.183000", "135334.186000", "135334.189000", "135334.191000", "135334.194000", "135334.197000", "135334.200000", "135334.203000", "135334.206000", "135334.215000", "135334.218000", "135334.221000", "135334.224000", "135334.227000", "135334.230000", "135334.233000", "135334.235000", "135334.238000", "135334.241000", "135334.244000", "135334.247000", "135334.250000", "135334.253000", "135334.256000", "135334.259000", "135414.177000", "135414.180000", "135414.183000", "135414.186000", "135414.189000", "135414.192000", "135414.194000", "135414.197000", "135414.200000", "135414.204000", "135414.207000", "135414.210000", "135414.213000", "135414.216000", "135414.219000", "135414.222000", "135414.225000", "135414.228000", "135414.231000", "135414.233000", "135414.236000", "135414.239000", "135414.242000", "135414.245000", "135414.248000", "135414.251000", "135414.254000", "135454.178000", "135454.181000", "135454.184000", "135454.187000", "135454.190000", "135454.193000", "135454.195000", "135454.198000", "135454.201000", "135454.204000", "135454.207000", "135454.210000", "135454.213000", "135454.216000", "135454.219000", "135454.221000", "135454.224000", "135454.227000", "135454.230000", "135454.233000", "135454.236000", "135454.239000", "135454.242000", "135454.246000", "135454.249000", "135454.252000", "135534.178000", "135534.181000", "135534.184000", "135534.187000", "135534.190000", "135534.193000", "135534.195000", "135534.198000", "135534.201000", "135534.204000", "135534.207000", "135534.210000", "135534.213000", "135534.216000", "135534.219000", "135534.222000", "135534.224000", "135534.227000", "135534.230000", "135534.233000", "135534.236000", "135534.244000", "135534.247000", "135534.249000", "135534.252000", "135534.255000", "135534.258000", "135614.177000", "135614.180000", "135614.183000", "135614.186000", "135614.189000", "135614.191000", "135614.194000", "135614.197000", "135614.200000", "135614.203000", "135614.206000", "135614.209000", "135614.212000", "135614.215000", "135614.218000", "135614.221000", "135614.224000", "135614.226000", "135614.229000", "135614.232000", "135614.235000", "135614.238000", "135614.241000", "135614.245000", "135614.248000", "135614.251000", "135614.261000", "135654.177000", "135654.180000", "135654.183000", "135654.186000", "135654.189000", "135654.192000", "135654.195000", "135654.216000", "135654.218000", "135654.221000", "135654.224000", "135654.227000", "135654.230000", "135654.233000", "135654.236000", "135654.239000", "135654.242000", "135654.245000", "135654.247000", "135654.250000", "135654.253000", "135654.256000", "135654.259000", "135654.262000", "135654.265000", "135654.268000", "135654.271000", "135734.178000", "135734.181000", "135734.184000", "135734.187000", "135734.190000", "135734.193000", "135734.196000", "135734.198000", "135734.201000", "135734.204000", "135734.207000", "135734.210000", "135734.213000", "135734.216000", "135734.219000", "135734.222000", "135734.224000", "135734.227000", "135734.230000", "135734.233000", "135734.236000", "135734.239000", "135734.242000", "135734.252000", "135734.255000", "135734.257000", "135734.260000", "135754.178000", "135754.181000", "135754.184000", "135754.187000", "135754.190000", "135754.193000", "135754.196000", "135754.199000", "135754.201000", "135754.204000", "135754.207000", "135754.210000", "135754.213000", "135834.177000", "135834.180000", "135834.183000", "135834.186000", "135834.189000", "135834.192000", "135834.195000", "135834.198000", "135834.200000", "135834.203000", "135834.206000", "135834.209000", "135834.212000", "135834.215000", "135834.218000", "135834.221000", "135834.224000", "135834.227000", "135834.230000", "135834.232000", "135834.235000", "135834.238000", "135834.241000", "135834.244000", "135834.247000", "135834.250000", "135834.253000", "135914.177000", "135914.180000", "135914.183000", "135914.186000", "135914.189000", "135914.192000", "135914.195000", "135914.197000", "135914.200000", "135914.203000", "135914.206000", "135914.209000", "135914.212000", "135914.215000", "135914.218000", "135914.229000", "135914.232000", "135914.235000", "135914.238000", "135914.241000", "135914.244000", "135914.246000", "135914.249000", "135914.252000", "135914.255000", "135914.258000", "135914.261000", "135954.178000", "135954.181000", "135954.184000", "135954.187000", "135954.190000", "135954.193000", "135954.196000", "135954.199000", "135954.201000", "135954.204000", "135954.207000", "135954.210000", "135954.213000", "135954.216000", "135954.219000", "135954.222000", "135954.225000", "135954.228000", "135954.231000", "135954.240000", "135954.243000", "135954.246000", "135954.249000", "135954.252000", "135954.255000", "135954.258000", "135954.261000", "140034.177000", "140034.180000", "140034.183000", "140034.186000", "140034.189000", "140034.192000", "140034.195000", "140034.197000", "140034.200000", "140034.203000", "140034.206000", "140034.209000", "140034.212000", "140034.215000", "140034.218000", "140034.221000", "140034.224000", "140034.227000", "140034.230000", "140034.232000", "140034.235000", "140034.238000", "140034.241000", "140034.244000", "140034.247000", "140034.250000", "140034.253000", "140047.556000", "140047.559000", "140047.563000", "140047.566000", "140047.569000", "140047.572000", "140047.575000", "140047.579000", "140047.582000"],
