{
  "AcquisitionMatrixPE": 104,
  "AcquisitionNumber": 1,
  "AcquisitionTime": "13:36:43.272500",
  "BandwidthPerPixelPhaseEncode": 17.17,
  "BaseResolution": 104,
  "BodyPartExamined": "BRAIN",
  "CoilString": "HC1-7;NC1_2",
  "ConsistencyInfo": "N4_VE11C_LATEST_20160120",
  "ConversionSoftware": "dcm2niix",
  "ConversionSoftwareVersion": "v1.0.20190902",
  "DerivedVendorReportedEchoSpacing": 0.000560011,
  "DeviceSerialNumber": "167006",
  "DwellTime": 2.1e-06,
  "EchoTime": 0.037,
  "EchoTrainLength": 104,
  "EffectiveEchoSpacing": 0.000560011,
  "FlipAngle": 52,
  "HeudiconvVersion": "0.10.0",
  "ImageComments": "Unaliased_MB4_PE3_LB",
  "ImageOrientationPatientDICOM": [0.999879, 0.0146459, 0.00521846, -0.0130892, 0.974074, -0.225851],
  "ImageType": [
    "ORIGINAL",
    "PRIMARY",
    "M",
    "MB",
    "ND",
    "MOSAIC"
],
  "ImagingFrequency": 123.259,
  "InPlanePhaseEncodingDirectionDICOM": "COL",
  "InstitutionAddress": "Chemin_Queen-Mary_4565_Montreal_District_CA_H3W_1W5",
  "InstitutionName": "IUGM",
  "InstitutionalDepartmentName": "Department",
  "MRAcquisitionType": "2D",
  "MagneticFieldStrength": 3,
  "Manufacturer": "Siemens",
  "ManufacturersModelName": "Prisma_fit",
  "Modality": "MR",
  "MultibandAccelerationFactor": 4,
  "PartialFourier": 1,
  "PatientPosition": "HFS",
  "PercentPhaseFOV": 100,
  "PhaseEncodingDirection": "j",
  "PhaseEncodingSteps": 104,
  "PhaseResolution": 1,
  "PixelBandwidth": 2290,
  "ProcedureStepDescription": "video_friends",
  "ProtocolName": "func_task-friends-s06e03b",
  "PulseSequenceDetails": "%CustomerSeq%_cmrr_mbep2d_bold",
  "ReceiveCoilActiveElements": "HC1-7;NC1,2",
  "ReceiveCoilName": "HeadNeck_64",
  "ReconMatrixPE": 104,
  "RepetitionTime": 1.49,
  "SAR": 0.0372317,
  "ScanOptions": "FS",
  "ScanningSequence": "EP",
  "SequenceName": "epfid2d1_104",
  "SequenceVariant": "SK_SS",
  "SeriesDescription": "func_task-friends-s06e03b",
  "SeriesNumber": 11,
  "ShimSetting": [635, -7219, -8788, 742, 37, -26, 86, -23],
  "SliceThickness": 2,
  "SliceTiming": [0, 0.785, 0.1, 0.8825, 0.1975, 0.98, 0.295, 1.08, 0.3925, 1.1775, 0.49, 1.275, 0.59, 1.3725, 0.6875, 0, 0.785, 0.1, 0.8825, 0.1975, 0.98, 0.295, 1.08, 0.3925, 1.1775, 0.49, 1.275, 0.59, 1.3725, 0.6875, 0, 0.785, 0.1, 0.8825, 0.1975, 0.98, 0.295, 1.08, 0.3925, 1.1775, 0.49, 1.275, 0.59, 1.3725, 0.6875, 0, 0.785, 0.1, 0.8825, 0.1975, 0.98, 0.295, 1.08, 0.3925, 1.1775, 0.49, 1.275, 0.59, 1.3725, 0.6875],
  "SoftwareVersions": "syngo_MR_E11",
  "SpacingBetweenSlices": 2,
  "StationName": "MRC35049",
  "TaskName": "s06e03b",
  "TotalReadoutTime": 0.0576811,
  "TxRefAmp": 211.283,
  "WipMemBlock": "5ea06f9d-91cc-4a5c-aa72-b04774c2c757||Sequence: R016 ve11c/master r/e634e98; Dec 19 2017 11:00:25 by eja",
  "dcmmeta_affine": [
    [-1.999758243560791, -0.026178305968642235, 0.016781900078058243, 105.81230163574219],
    [-0.029291749000549316, 1.9481478929519653, -0.4515105187892914, -83.44927215576172],
    [0.010436922311782837, 0.45170173048973083, 1.9482958316802979, -58.57065200805664],
    [0.0, 0.0, 0.0, 1.0]
],
  "dcmmeta_reorient_transform": [
    [0.0, -1.0, 0.0, 103.0],
    [1.0, 0.0, 0.0, 0.0],
    [0.0, 0.0, 1.0, 0.0],
    [0.0, 0.0, 0.0, 1.0]
],
  "dcmmeta_shape": [104, 104, 60, 473],
  "dcmmeta_slice_dim": 2,
  "dcmmeta_version": 0.6,
  "global": {
    "const": {
      "AcquisitionMatrix": [104, 0, 0, 104],
      "AngioFlag": "N",
      "BitsAllocated": 16,
      "BitsStored": 16,
      "BodyPartExamined": "BRAIN",
      "Columns": 832,
      "EchoNumbers": 1,
      "EchoTime": 37.0,
      "EchoTrainLength": 104,
      "FlipAngle": 52.0,
      "HighBit": 15,
      "ImageOrientationPatient": [0.99987912571172, 0.01464587421296, 0.00521846093281, -0.0130891527567, 0.97407394982808, -0.225850867491],
      "ImagePositionPatient": [-821.49904021939, -836.99799315811, 148.57501998348],
      "ImageType": [
        "ORIGINAL",
        "PRIMARY",
        "M",
        "MB",
        "ND",
        "MOSAIC"
],
      "ImagedNucleus": "1H",
      "ImagingFrequency": 123.258866,
      "InPlanePhaseEncodingDirection": "COL",
      "MRAcquisitionType": "2D",
      "MagneticFieldStrength": 3.0,
      "Manufacturer": "SIEMENS",
      "ManufacturerModelName": "Prisma_fit",
      "Modality": "MR",
      "NumberOfAverages": 1.0,
      "NumberOfPhaseEncodingSteps": 104,
      "PercentPhaseFieldOfView": 100.0,
      "PercentSampling": 100.0,
      "PerformedProcedureStepStartTime": "125938.435000",
      "PhotometricInterpretation": "MONOCHROME2",
      "PixelBandwidth": 2290.0,
      "PixelRepresentation": 0,
      "PixelSpacing": [2.0, 2.0],
      "ProtocolName": "func_task-friends-s06e03b",
      "RepetitionTime": 1490.0,
      "Rows": 832,
      "SAR": 0.03723172967787,
      "SamplesPerPixel": 1,
      "ScanOptions": "FS",
      "ScanningSequence": "EP",
      "SequenceName": "epfid2d1_104",
      "SequenceVariant": [
        "SK",
        "SS"
],
      "SeriesDescription": "func_task-friends-s06e03b",
      "SeriesNumber": 11,
      "SeriesTime": "133758.158000",
      "SliceLocation": -37.329498839501,
      "SliceThickness": 2.0,
      "SmallestImagePixelValue": 0,
      "SoftwareVersions": "syngo MR E11",
      "SpacingBetweenSlices": 2.0000000283912,
      "SpecificCharacterSet": "ISO_IR 100",
      "StudyID": "1",
      "StudyTime": "125938.347000",
      "TransmitCoilName": "Body",
      "VariableFlipAngleFlag": "N",
      "WindowCenterWidthExplanation": "Algo1",
      "dBdt": 0.0},
    "slices": {}
  },
  "time": {
    "samples": {
      "AcquisitionNumber": [1, 2, 3, 4, 5, 6, 7, 8, 9, 10, 11, 12, 13, 14, 15, 16, 17, 18, 19, 20, 21, 22, 23, 24, 25, 26, 27, 28, 29, 30, 31, 32, 33, 34, 35, 36, 37, 38, 39, 40, 41, 42, 43, 44, 45, 46, 47, 48, 49, 50, 51, 52, 53, 54, 55, 56, 57, 58, 59, 60, 61, 62, 63, 64, 65, 66, 67, 68, 69, 70, 71, 72, 73, 74, 75, 76, 77, 78, 79, 80, 81, 82, 83, 84, 85, 86, 87, 88, 89, 90, 91, 92, 93, 94, 95, 96, 97, 98, 99, 100, 101, 102, 103, 104, 105, 106, 107, 108, 109, 110, 111, 112, 113, 114, 115, 116, 117, 118, 119, 120, 121, 122, 123, 124, 125, 126, 127, 128, 129, 130, 131, 132, 133, 134, 135, 136, 137, 138, 139, 140, 141, 142, 143, 144, 145, 146, 147, 148, 149, 150, 151, 152, 153, 154, 155, 156, 157, 158, 159, 160, 161, 162, 163, 164, 165, 166, 167, 168, 169, 170, 171, 172, 173, 174, 175, 176, 177, 178, 179, 180, 181, 182, 183, 184, 185, 186, 187, 188, 189, 190, 191, 192, 193, 194, 195, 196, 197, 198, 199, 200, 201, 202, 203, 204, 205, 206, 207, 208, 209, 210, 211, 212, 213, 214, 215, 216, 217, 218, 219, 220, 221, 222, 223, 224, 225, 226, 227, 228, 229, 230, 231, 232, 233, 234, 235, 236, 237, 238, 239, 240, 241, 242, 243, 244, 245, 246, 247, 248, 249, 250, 251, 252, 253, 254, 255, 256, 257, 258, 259, 260, 261, 262, 263, 264, 265, 266, 267, 268, 269, 270, 271, 272, 273, 274, 275, 276, 277, 278, 279, 280, 281, 282, 283, 284, 285, 286, 287, 288, 289, 290, 291, 292, 293, 294, 295, 296, 297, 298, 299, 300, 301, 302, 303, 304, 305, 306, 307, 308, 309, 310, 311, 312, 313, 314, 315, 316, 317, 318, 319, 320, 321, 322, 323, 324, 325, 326, 327, 328, 329, 330, 331, 332, 333, 334, 335, 336, 337, 338, 339, 340, 341, 342, 343, 344, 345, 346, 347, 348, 349, 350, 351, 352, 353, 354, 355, 356, 357, 358, 359, 360, 361, 362, 363, 364, 365, 366, 367, 368, 369, 370, 371, 372, 373, 374, 375, 376, 377, 378, 379, 380, 381, 382, 383, 384, 385, 386, 387, 388, 389, 390, 391, 392, 393, 394, 395, 396, 397, 398, 399, 400, 401, 402, 403, 404, 405, 406, 407, 408, 409, 410, 411, 412, 413, 414, 415, 416, 417, 418, 419, 420, 421, 422, 423, 424, 425, 426, 427, 428, 429, 430, 431, 432, 433, 434, 435, 436, 437, 438, 439, 440, 441, 442, 443, 444, 445, 446, 447, 448, 449, 450, 451, 452, 453, 454, 455, 456, 457, 458, 459, 460, 461, 462, 463, 464, 465, 466, 467, 468, 469, 470, 471, 472, 473],
      "AcquisitionTime": ["133643.272500", "133644.762500", "133646.252500", "133647.742500", "133649.232500", "133650.722500", "133652.212500", "133653.702500", "133655.192500", "133656.682500", "133658.172500", "133659.662500", "133701.152500", "133702.642500", "133704.132500", "133705.622500", "133707.112500", "133708.602500", "133710.092500", "133711.582500", "133713.072500", "133714.562500", "133716.052500", "133717.542500", "133719.032500", "133720.522500", "133722.012500", "133723.502500", "133724.992500", "133726.482500", "133727.972500", "133729.462500", "133730.952500", "133732.442500", "133733.932500", "133735.422500", "133736.912500", "133738.402500", "133739.892500", "133741.382500", "133742.872500", "133744.362500", "133745.852500", "133747.342500", "133748.832500", "133750.322500", "133751.812500", "133753.302500", "133754.792500", "133756.282500", "133757.772500", "133759.262500", "133800.752500", "133802.242500", "133803.732500", "133805.222500", "133806.712500", "133808.202500", "133809.692500", "133811.182500", "133812.672500", "133814.162500", "133815.652500", "133817.142500", "133818.632500", "133820.122500", "133821.612500", "133823.102500", "133824.592500", "133826.082500", "133827.572500", "133829.062500", "133830.552500", "133832.042500", "133833.532500", "133835.022500", "133836.512500", "133838.002500", "133839.492500", "133840.982500", "133842.472500", "133843.962500", "133845.452500", "133846.942500", "133848.432500", "133849.922500", "133851.412500", "133852.902500", "133854.392500", "133855.882500", "133857.372500", "133858.862500", "133900.352500", "133901.842500", "133903.332500", "133904.822500", "133906.312500", "133907.802500", "133909.292500", "133910.782500", "133912.272500", "133913.762500", "133915.252500", "133916.742500", "133918.232500", "133919.722500", "133921.212500", "133922.702500", "133924.192500", "133925.682500", "133927.172500", "133928.662500", "133930.152500", "133931.642500", "133933.132500", "133934.622500", "133936.112500", "133937.602500", "133939.092500", "133940.582500", "133942.072500", "133943.562500", "133945.052500", "133946.542500", "133948.032500", "133949.522500", "133951.012500", "133952.502500", "133953.992500", "133955.482500", "133956.972500", "133958.462500", "133959.952500", "134001.442500", "134002.932500", "134004.422500", "134005.912500", "134007.402500", "134008.892500", "134010.382500", "134011.872500", "134013.362500", "134014.852500", "134016.342500", "134017.832500", "134019.322500", "134020.812500", "134022.302500", "134023.792500", "134025.282500", "134026.772500", "134028.262500", "134029.752500", "134031.242500", "134032.732500", "134034.222500", "134035.712500", "134037.202500", "134038.692500", "134040.182500", "134041.672500", "134043.162500", "134044.652500", "134046.142500", "134047.632500", "134049.122500", "134050.612500", "134052.102500", "134053.592500", "134055.082500", "134056.572500", "134058.062500", "134059.552500", "134101.042500", "134102.532500", "134104.022500", "134105.512500", "134107.002500", "134108.492500", "134109.982500", "134111.472500", "134112.962500", "134114.452500", "134115.942500", "134117.432500", "134118.922500", "134120.412500", "134121.902500", "134123.392500", "134124.882500", "134126.372500", "134127.862500", "134129.352500", "134130.842500", "134132.332500", "134133.822500", "134135.312500", "134136.802500", "134138.292500", "134139.782500", "134141.272500", "134142.762500", "134144.252500", "134145.742500", "134147.232500", "134148.722500", "134150.212500", "134151.702500", "134153.192500", "134154.682500", "134156.172500", "134157.662500", "134159.152500", "134200.642500", "134202.132500", "134203.622500", "134205.112500", "134206.602500", "134208.092500", "134209.582500", "134211.072500", "134212.562500", "134214.052500", "134215.542500", "134217.032500", "134218.522500", "134220.012500", "134221.502500", "134222.992500", "134224.482500", "134225.972500", "134227.462500", "134228.952500", "134230.442500", "134231.932500", "134233.422500", "134234.912500", "134236.402500", "134237.892500", "134239.382500", "134240.872500", "134242.362500", "134243.852500", "134245.342500", "134246.832500", "134248.322500", "134249.812500", "134251.302500", "134252.792500", "134254.282500", "134255.772500", "134257.262500", "134258.752500", "134300.242500", "134301.732500", "134303.222500", "134304.712500", "134306.202500", "134307.692500", "134309.182500", "134310.672500", "134312.162500", "134313.652500", "134315.142500", "134316.632500", "134318.122500", "134319.612500", "134321.102500", "134322.592500", "134324.082500", "134325.572500", "134327.062500", "134328.552500", "134330.042500", "134331.532500", "134333.022500", "134334.512500", "134336.002500", "134337.492500", "134338.982500", "134340.472500", "134341.962500", "134343.452500", "134344.942500", "134346.432500", "134347.922500", "134349.412500", "134350.902500", "134352.392500", "134353.882500", "134355.372500", "134356.862500", "134358.352500", "134359.842500", "134401.332500", "134402.822500", "134404.312500", "134405.802500", "134407.292500", "134408.782500", "134410.272500", "134411.762500", "134413.252500", "134414.742500", "134416.232500", "134417.722500", "134419.212500", "134420.702500", "134422.192500", "134423.682500", "134425.172500", "134426.662500", "134428.152500", "134429.642500", "134431.132500", "134432.622500", "134434.112500", "134435.602500", "134437.092500", "134438.582500", "134440.072500", "134441.562500", "134443.052500", "134444.542500", "134446.032500", "134447.522500", "134449.012500", "134450.502500", "134451.992500", "134453.482500", "134454.972500", "134456.462500", "134457.952500", "134459.442500", "134500.932500", "134502.422500", "134503.912500", "134505.402500", "134506.892500", "134508.382500", "134509.872500", "134511.362500", "134512.852500", "134514.342500", "134515.832500", "134517.322500", "134518.812500", "134520.302500", "134521.792500", "134523.282500", "134524.772500", "134526.262500", "134527.752500", "134529.242500", "134530.732500", "134532.222500", "134533.712500", "134535.202500", "134536.692500", "134538.182500", "134539.672500", "134541.162500", "134542.652500", "134544.142500", "134545.632500", "134547.122500", "134548.612500", "134550.102500", "134551.592500", "134553.082500", "134554.572500", "134556.062500", "134557.552500", "134559.042500", "134600.532500", "134602.022500", "134603.512500", "134605.002500", "134606.492500", "134607.982500", "134609.472500", "134610.962500", "134612.452500", "134613.942500", "134615.432500", "134616.922500", "134618.412500", "134619.902500", "134621.392500", "134622.882500", "134624.372500", "134625.862500", "134627.352500", "134628.842500", "134630.332500", "134631.822500", "134633.312500", "134634.802500", "134636.292500", "134637.782500", "134639.272500", "134640.762500", "134642.252500", "134643.742500", "134645.232500", "134646.722500", "134648.212500", "134649.702500", "134651.192500", "134652.682500", "134654.172500", "134655.662500", "134657.152500", "134658.642500", "134700.132500", "134701.622500", "134703.112500", "134704.602500", "134706.092500", "134707.582500", "134709.072500", "134710.562500", "134712.052500", "134713.542500", "134715.032500", "134716.522500", "134718.012500", "134719.502500", "134720.992500", "134722.482500", "134723.972500", "134725.462500", "134726.952500", "134728.442500", "134729.932500", "134731.422500", "134732.912500", "134734.402500", "134735.892500", "134737.382500", "134738.872500", "134740.362500", "134741.852500", "134743.342500", "134744.832500", "134746.322500", "134747.812500", "134749.302500", "134750.792500", "134752.282500", "134753.772500", "134755.262500", "134756.752500", "134758.242500", "134759.732500", "134801.222500", "134802.712500", "134804.202500", "134805.692500", "134807.182500", "134808.672500", "134810.162500", "134811.652500", "134813.142500", "134814.632500", "134816.122500", "134817.612500", "134819.102500", "134820.592500", "134822.082500", "134823.572500", "134825.062500", "134826.552500"],
      "ContentTime": ["133758.160000", "133758.172000", "133758.175000", "133758.178000", "133758.181000", "133758.184000", "133758.187000", "133758.190000", "133758.193000", "133758.196000", "133758.199000", "133758.209000", "133758.212000", "133758.215000", "133758.218000", "133758.221000", "133758.224000", "133758.243000", "133818.126000", "133818.129000", "133818.132000", "133818.135000", "133818.137000", "133818.140000", "133818.143000", "133818.146000", "133818.149000", "133818.159000", "133818.162000", "133818.165000", "133818.167000", "133818.170000", "133818.173000", "133818.176000", "133818.179000", "133818.182000", "133818.185000", "133818.187000", "133818.190000", "133838.126000", "133838.129000", "133838.132000", "133838.135000", "133838.137000", "133838.140000", "133838.143000", "133838.146000", "133838.149000", "133838.152000", "133838.163000", "133838.165000", "133838.168000", "133838.171000", "133838.174000", "133838.177000", "133838.180000", "133838.183000", "133838.186000", "133838.188000", "133858.126000", "133858.129000", "133858.132000", "133858.135000", "133858.137000", "133858.154000", "133858.156000", "133858.159000", "133858.162000", "133858.174000", "133858.177000", "133858.180000", "133858.183000", "133858.186000", "133858.189000", "133858.192000", "133858.195000", "133858.197000", "133858.200000", "133858.203000", "133918.126000", "133918.129000", "133918.132000", "133918.135000", "133918.137000", "133918.140000", "133918.143000", "133918.146000", "133918.149000", "133918.152000", "133918.155000", "133918.158000", "133918.161000", "133918.164000", "133918.167000", "133918.169000", "133918.180000", "133918.182000", "133918.185000", "133918.188000", "133958.125000", "133958.128000", "133958.131000", "133958.134000", "133958.137000", "133958.140000", "133958.142000", "133958.145000", "133958.148000", "133958.151000", "133958.154000", "133958.157000", "133958.184000", "133958.187000", "133958.190000", "133958.193000", "133958.196000", "133958.199000", "133958.208000", "133958.211000", "133958.214000", "133958.217000", "133958.220000", "133958.223000", "133958.226000", "133958.229000", "133958.231000", "133958.234000", "133958.237000", "133958.240000", "133958.243000", "134038.126000", "134038.129000", "134038.132000", "134038.135000", "134038.138000", "134038.140000", "134038.143000", "134038.146000", "134038.156000", "134038.159000", "134038.162000", "134038.165000", "134038.168000", "134038.171000", "134038.174000", "134038.176000", "134038.179000", "134038.182000", "134038.185000", "134038.188000", "134038.191000", "134038.194000", "134038.196000", "134038.199000", "134038.202000", "134038.205000", "134038.208000", "134118.126000", "134118.129000", "134118.132000", "134118.152000", "134118.155000", "134118.158000", "134118.161000", "134118.164000", "134118.166000", "134118.169000", "134118.172000", "134118.175000", "134118.178000", "134118.181000", "134118.185000", "134118.188000", "134118.192000", "134118.195000", "134118.198000", "134118.201000", "134118.204000", "134118.207000", "134118.210000", "134118.213000", "134118.216000", "134118.219000", "134158.125000", "134158.128000", "134158.131000", "134158.134000", "134158.137000", "134158.139000", "134158.142000", "134158.145000", "134158.148000", "134158.151000", "134158.154000", "134158.157000", "134158.160000", "134158.163000", "134158.166000", "134158.169000", "134158.172000", "134158.174000", "134158.177000", "134158.180000", "134158.183000", "134158.186000", "134158.189000", "134158.192000", "134158.195000", "134158.198000", "134158.201000", "134238.125000", "134238.128000", "134238.131000", "134238.134000", "134238.137000", "134238.140000", "134238.143000", "134238.146000", "134238.148000", "134238.151000", "134238.158000", "134238.161000", "134238.164000", "134238.167000", "134238.170000", "134238.173000", "134238.176000", "134238.179000", "134238.181000", "134238.184000", "134238.187000", "134238.190000", "134238.193000", "134238.196000", "134238.199000", "134238.202000", "134238.205000", "134318.126000", "134318.129000", "134318.132000", "134318.135000", "134318.138000", "134318.141000", "134318.143000", "134318.146000", "134318.149000", "134318.152000", "134318.155000", "134318.158000", "134318.161000", "134318.164000", "134318.167000", "134318.170000", "134318.192000", "134318.195000", "134318.198000", "134318.200000", "134318.203000", "134318.206000", "134318.209000", "134318.223000", "134318.226000", "134318.229000", "134318.232000", "134358.125000", "134358.128000", "134358.131000", "134358.134000", "134358.137000", "134358.140000", "134358.142000", "134358.145000", "134358.148000", "134358.151000", "134358.154000", "134358.157000", "134358.160000", "134358.169000", "134358.171000", "134358.174000", "134358.177000", "134358.180000", "134358.183000", "134358.186000", "134358.189000", "134358.192000", "134358.195000", "134358.197000", "134358.200000", "134358.203000", "134358.206000", "134438.125000", "134438.128000", "134438.131000", "134438.134000", "134438.137000", "134438.140000", "134438.142000", "134438.145000", "134438.148000", "134438.151000", "134438.154000", "134438.157000", "134438.160000", "134438.170000", "134438.173000", "134438.176000", "134438.179000", "134438.182000", "134438.185000", "134438.188000", "134438.191000", "134438.193000", "134438.196000", "134438.199000", "134438.202000", "134438.205000", "134438.208000", "134518.126000", "134518.129000", "134518.132000", "134518.135000", "134518.138000", "134518.141000", "134518.144000", "134518.146000", "134518.149000", "134518.152000", "134518.161000", "134518.164000", "134518.167000", "134518.170000", "134518.173000", "134518.176000", "134518.178000", "134518.181000", "134518.184000", "134518.187000", "134518.190000", "134518.193000", "134518.196000", "134518.203000", "134518.206000", "134518.209000", "134518.212000", "134558.126000", "134558.129000", "134558.132000", "134558.135000", "134558.138000", "134558.141000", "134558.144000", "134558.147000", "134558.149000", "134558.152000", "134558.155000", "134558.158000", "134558.161000", "134558.164000", "134558.167000", "134558.170000", "134558.173000", "134558.176000", "134558.179000", "134558.182000", "134558.185000", "134558.188000", "134558.191000", "134558.194000", "134558.197000", "134558.200000", "134638.125000", "134638.128000", "134638.131000", "134638.134000", "134638.137000", "134638.140000", "134638.142000", "134638.145000", "134638.148000", "134638.151000", "134638.154000", "134638.157000", "134638.160000", "134638.163000", "134638.166000", "134638.169000", "134638.172000", "134638.174000", "134638.177000", "134638.180000", "134638.183000", "134638.186000", "134638.189000", "134638.192000", "134638.195000", "134638.198000", "134638.200000", "134718.125000", "134718.128000", "134718.131000", "134718.134000", "134718.137000", "134718.140000", "134718.143000", "134718.146000", "134718.148000", "134718.151000", "134718.154000", "134718.157000", "134718.160000", "134718.163000", "134718.166000", "134718.169000", "134718.172000", "134718.175000", "134718.178000", "134718.181000", "134718.184000", "134718.186000", "134718.189000", "134718.192000", "134718.195000", "134718.198000", "134718.201000", "134738.127000", "134738.130000", "134738.134000", "134738.137000", "134738.139000", "134738.142000", "134738.145000", "134738.148000", "134738.151000", "134738.154000", "134738.157000", "134738.160000", "134738.163000", "134818.126000", "134818.129000", "134818.132000", "134818.135000", "134818.138000", "134818.141000", "134818.144000", "134818.147000", "134818.154000", "134818.157000", "134818.214000", "134818.217000", "134818.220000", "134818.223000", "134818.226000", "134818.229000", "134818.232000", "134818.235000", "134818.238000", "134818.251000", "134818.254000", "134818.258000", "134818.261000", "134818.264000", "134818.267000", "134818.270000", "134818.272000", "134828.853000", "134828.856000", "134828.859000", "134828.862000", "134828.865000", "134828.868000", "134828.871000", "134828.874000"],
