{
  "AcquisitionMatrixPE": 104,
  "AcquisitionNumber": 1,
  "AcquisitionTime": "18:29:4.860000",
  "BandwidthPerPixelPhaseEncode": 17.17,
  "BaseResolution": 104,
  "BodyPartExamined": "BRAIN",
  "CoilString": "HC1-7;NC1_2",
  "ConsistencyInfo": "N4_VE11C_LATEST_20160120",
  "ConversionSoftware": "dcm2niix",
  "ConversionSoftwareVersion": "v1.0.20190902",
  "DerivedVendorReportedEchoSpacing": 0.000560011,
  "DeviceSerialNumber": "167006",
  "DwellTime": 2.1e-06,
  "EchoTime": 0.037,
  "EchoTrainLength": 104,
  "EffectiveEchoSpacing": 0.000560011,
  "FlipAngle": 52,
  "ImageComments": "Unaliased_MB4_PE3_LB",
  "ImageOrientationPatientDICOM": [0.999355, -0.0351531, -0.00735738, 0.0291365, 0.913324, -0.406189],
  "ImageType": [
    "ORIGINAL",
    "PRIMARY",
    "M",
    "MB",
    "ND",
    "MOSAIC"
],
  "ImagingFrequency": 123.259,
  "InPlanePhaseEncodingDirectionDICOM": "COL",
  "InstitutionAddress": "Chemin_Queen-Mary_4565_Montreal_District_CA_H3W_1W5",
  "InstitutionName": "IUGM",
  "InstitutionalDepartmentName": "Department",
  "MRAcquisitionType": "2D",
  "MagneticFieldStrength": 3,
  "Manufacturer": "Siemens",
  "ManufacturersModelName": "Prisma_fit",
  "Modality": "MR",
  "MultibandAccelerationFactor": 4,
  "PartialFourier": 1,
  "PatientPosition": "HFS",
  "PercentPhaseFOV": 100,
  "PhaseEncodingDirection": "j",
  "PhaseEncodingSteps": 104,
  "PhaseResolution": 1,
  "PixelBandwidth": 2290,
  "ProcedureStepDescription": "video_friends",
  "ProtocolName": "func_task-friends-s04e03b",
  "PulseSequenceDetails": "%CustomerSeq%_cmrr_mbep2d_bold",
  "ReceiveCoilActiveElements": "HC1-7;NC1,2",
  "ReceiveCoilName": "HeadNeck_64",
  "ReconMatrixPE": 104,
  "RepetitionTime": 1.49,
  "SAR": 0.0398724,
  "ScanOptions": "FS",
  "ScanningSequence": "EP",
  "SequenceName": "epfid2d1_104",
  "SequenceVariant": "SK_SS",
  "SeriesDescription": "func_task-friends-s04e03b",
  "SeriesNumber": 11,
  "ShimSetting": [616, -7305, -8835, 405, 12, -490, 44, 39],
  "SliceThickness": 2,
  "SliceTiming": [0, 0.7825, 0.0975, 0.8825, 0.195, 0.98, 0.2925, 1.0775, 0.3925, 1.175, 0.49, 1.2725, 0.5875, 1.3725, 0.685, 0, 0.7825, 0.0975, 0.8825, 0.195, 0.98, 0.2925, 1.0775, 0.3925, 1.175, 0.49, 1.2725, 0.5875, 1.3725, 0.685, 0, 0.7825, 0.0975, 0.8825, 0.195, 0.98, 0.2925, 1.0775, 0.3925, 1.175, 0.49, 1.2725, 0.5875, 1.3725, 0.685, 0, 0.7825, 0.0975, 0.8825, 0.195, 0.98, 0.2925, 1.0775, 0.3925, 1.175, 0.49, 1.2725, 0.5875, 1.3725, 0.685],
  "SoftwareVersions": "syngo_MR_E11",
  "SpacingBetweenSlices": 2,
  "StationName": "MRC35049",
  "TaskName": "s04e03b",
  "TotalReadoutTime": 0.0576811,
  "TxRefAmp": 245.121,
  "WipMemBlock": "1526bd51-b5f5-4afd-b4ff-1e9e3491b347||Sequence: R016 ve11c/master r/e634e98; Dec 19 2017 11:00:25 by eja",
  "dcmmeta_affine": [
    [-1.9987096786499023, 0.05827290937304497, -0.04199692979454994, 97.52238464355469],
    [0.07030611485242844, 1.8266488313674927, -0.8114252686500549, -70.16268920898438],
    [-0.01471476536244154, 0.8123781085014343, 1.8275188207626343, -60.987972259521484],
    [0.0, 0.0, 0.0, 1.0]
],
  "dcmmeta_reorient_transform": [
    [0.0, -1.0, 0.0, 103.0],
    [1.0, 0.0, 0.0, 0.0],
    [0.0, 0.0, 1.0, 0.0],
    [0.0, 0.0, 0.0, 1.0]
],
  "dcmmeta_shape": [104, 104, 60, 445],
  "dcmmeta_slice_dim": 2,
  "dcmmeta_version": 0.6,
  "global": {
    "const": {
      "AcquisitionMatrix": [104, 0, 0, 104],
      "AngioFlag": "N",
      "BitsAllocated": 16,
      "BitsStored": 16,
      "BodyPartExamined": "BRAIN",
      "Columns": 832,
      "EchoNumbers": 1,
      "EchoTime": 37.0,
      "EchoTrainLength": 104,
      "FlipAngle": 52.0,
      "HighBit": 15,
      "ImageOrientationPatient": [0.99935485761121, -0.035153058029, -0.0073573826932, 0.02913645530417, 0.9133244264319, -0.4061890681138],
      "ImagePositionPatient": [-852.26617228227, -757.290899373, 323.74879152637],
      "ImageType": [
        "ORIGINAL",
        "PRIMARY",
        "M",
        "MB",
        "ND",
        "MOSAIC"
],
      "ImagedNucleus": "1H",
      "ImagingFrequency": 123.25894,
      "InPlanePhaseEncodingDirection": "COL",
      "MRAcquisitionType": "2D",
      "MagneticFieldStrength": 3.0,
      "Manufacturer": "SIEMENS",
      "ManufacturerModelName": "Prisma_fit",
      "Modality": "MR",
      "NumberOfAverages": 1.0,
      "NumberOfPhaseEncodingSteps": 104,
      "PercentPhaseFieldOfView": 100.0,
      "PercentSampling": 100.0,
      "PerformedProcedureStepStartTime": "180544.543000",
      "PhotometricInterpretation": "MONOCHROME2",
      "PixelBandwidth": 2290.0,
      "PixelRepresentation": 0,
      "PixelSpacing": [2.0, 2.0],
      "ProtocolName": "func_task-friends-s04e03b",
      "RepetitionTime": 1490.0,
      "Rows": 832,
      "SAR": 0.0398723728974,
      "SamplesPerPixel": 1,
      "ScanOptions": "FS",
      "ScanningSequence": "EP",
      "SequenceName": "epfid2d1_104",
      "SequenceVariant": [
        "SK",
        "SS"
],
      "SeriesDescription": "func_task-friends-s04e03b",
      "SeriesNumber": 11,
      "SeriesTime": "183037.974000",
      "SliceLocation": -29.310265703567,
      "SliceThickness": 2.0,
      "SmallestImagePixelValue": 0,
      "SoftwareVersions": "syngo MR E11",
      "SpacingBetweenSlices": 1.999999956985,
      "SpecificCharacterSet": "ISO_IR 100",
      "StudyID": "1",
      "StudyTime": "180544.484000",
      "TransmitCoilName": "Body",
      "VariableFlipAngleFlag": "N",
      "WindowCenterWidthExplanation": "Algo1",
      "dBdt": 0.0},
    "slices": {}
  },
  "time": {
    "samples": {
      "AcquisitionNumber": [1, 2, 3, 4, 5, 6, 7, 8, 9, 10, 11, 12, 13, 14, 15, 16, 17, 18, 19, 20, 21, 22, 23, 24, 25, 26, 27, 28, 29, 30, 31, 32, 33, 34, 35, 36, 37, 38, 39, 40, 41, 42, 43, 44, 45, 46, 47, 48, 49, 50, 51, 52, 53, 54, 55, 56, 57, 58, 59, 60, 61, 62, 63, 64, 65, 66, 67, 68, 69, 70, 71, 72, 73, 74, 75, 76, 77, 78, 79, 80, 81, 82, 83, 84, 85, 86, 87, 88, 89, 90, 91, 92, 93, 94, 95, 96, 97, 98, 99, 100, 101, 102, 103, 104, 105, 106, 107, 108, 109, 110, 111, 112, 113, 114, 115, 116, 117, 118, 119, 120, 121, 122, 123, 124, 125, 126, 127, 128, 129, 130, 131, 132, 133, 134, 135, 136, 137, 138, 139, 140, 141, 142, 143, 144, 145, 146, 147, 148, 149, 150, 151, 152, 153, 154, 155, 156, 157, 158, 159, 160, 161, 162, 163, 164, 165, 166, 167, 168, 169, 170, 171, 172, 173, 174, 175, 176, 177, 178, 179, 180, 181, 182, 183, 184, 185, 186, 187, 188, 189, 190, 191, 192, 193, 194, 195, 196, 197, 198, 199, 200, 201, 202, 203, 204, 205, 206, 207, 208, 209, 210, 211, 212, 213, 214, 215, 216, 217, 218, 219, 220, 221, 222, 223, 224, 225, 226, 227, 228, 229, 230, 231, 232, 233, 234, 235, 236, 237, 238, 239, 240, 241, 242, 243, 244, 245, 246, 247, 248, 249, 250, 251, 252, 253, 254, 255, 256, 257, 258, 259, 260, 261, 262, 263, 264, 265, 266, 267, 268, 269, 270, 271, 272, 273, 274, 275, 276, 277, 278, 279, 280, 281, 282, 283, 284, 285, 286, 287, 288, 289, 290, 291, 292, 293, 294, 295, 296, 297, 298, 299, 300, 301, 302, 303, 304, 305, 306, 307, 308, 309, 310, 311, 312, 313, 314, 315, 316, 317, 318, 319, 320, 321, 322, 323, 324, 325, 326, 327, 328, 329, 330, 331, 332, 333, 334, 335, 336, 337, 338, 339, 340, 341, 342, 343, 344, 345, 346, 347, 348, 349, 350, 351, 352, 353, 354, 355, 356, 357, 358, 359, 360, 361, 362, 363, 364, 365, 366, 367, 368, 369, 370, 371, 372, 373, 374, 375, 376, 377, 378, 379, 380, 381, 382, 383, 384, 385, 386, 387, 388, 389, 390, 391, 392, 393, 394, 395, 396, 397, 398, 399, 400, 401, 402, 403, 404, 405, 406, 407, 408, 409, 410, 411, 412, 413, 414, 415, 416, 417, 418, 419, 420, 421, 422, 423, 424, 425, 426, 427, 428, 429, 430, 431, 432, 433, 434, 435, 436, 437, 438, 439, 440, 441, 442, 443, 444, 445],
      "AcquisitionTime": ["182904.860000", "182906.350000", "182907.840000", "182909.330000", "182910.820000", "182912.310000", "182913.800000", "182915.290000", "182916.780000", "182918.270000", "182919.760000", "182921.250000", "182922.740000", "182924.230000", "182925.720000", "182927.210000", "182928.700000", "182930.190000", "182931.680000", "182933.170000", "182934.660000", "182936.150000", "182937.640000", "182939.130000", "182940.620000", "182942.110000", "182943.600000", "182945.090000", "182946.580000", "182948.070000", "182949.560000", "182951.050000", "182952.540000", "182954.030000", "182955.520000", "182957.010000", "182958.500000", "182959.990000", "183001.480000", "183002.970000", "183004.460000", "183005.950000", "183007.440000", "183008.930000", "183010.420000", "183011.910000", "183013.400000", "183014.890000", "183016.380000", "183017.870000", "183019.360000", "183020.850000", "183022.340000", "183023.830000", "183025.320000", "183026.810000", "183028.300000", "183029.790000", "183031.280000", "183032.770000", "183034.260000", "183035.750000", "183037.240000", "183038.730000", "183040.220000", "183041.710000", "183043.200000", "183044.690000", "183046.180000", "183047.670000", "183049.160000", "183050.650000", "183052.140000", "183053.630000", "183055.120000", "183056.610000", "183058.100000", "183059.590000", "183101.080000", "183102.570000", "183104.060000", "183105.550000", "183107.040000", "183108.530000", "183110.020000", "183111.510000", "183113.000000", "183114.490000", "183115.980000", "183117.470000", "183118.960000", "183120.450000", "183121.940000", "183123.430000", "183124.920000", "183126.410000", "183127.900000", "183129.390000", "183130.880000", "183132.370000", "183133.860000", "183135.350000", "183136.840000", "183138.330000", "183139.820000", "183141.310000", "183142.800000", "183144.290000", "183145.780000", "183147.270000", "183148.760000", "183150.250000", "183151.740000", "183153.230000", "183154.720000", "183156.210000", "183157.700000", "183159.190000", "183200.680000", "183202.170000", "183203.660000", "183205.150000", "183206.640000", "183208.130000", "183209.620000", "183211.110000", "183212.600000", "183214.090000", "183215.580000", "183217.070000", "183218.560000", "183220.050000", "183221.540000", "183223.030000", "183224.520000", "183226.010000", "183227.500000", "183228.990000", "183230.480000", "183231.970000", "183233.460000", "183234.950000", "183236.440000", "183237.930000", "183239.420000", "183240.910000", "183242.400000", "183243.890000", "183245.380000", "183246.870000", "183248.360000", "183249.850000", "183251.340000", "183252.830000", "183254.320000", "183255.810000", "183257.300000", "183258.790000", "183300.280000", "183301.770000", "183303.260000", "183304.750000", "183306.240000", "183307.730000", "183309.220000", "183310.710000", "183312.200000", "183313.690000", "183315.180000", "183316.670000", "183318.160000", "183319.650000", "183321.140000", "183322.630000", "183324.120000", "183325.610000", "183327.100000", "183328.590000", "183330.080000", "183331.570000", "183333.060000", "183334.550000", "183336.040000", "183337.530000", "183339.020000", "183340.510000", "183342.000000", "183343.490000", "183344.980000", "183346.470000", "183347.960000", "183349.450000", "183350.940000", "183352.430000", "183353.920000", "183355.410000", "183356.900000", "183358.390000", "183359.880000", "183401.370000", "183402.860000", "183404.350000", "183405.840000", "183407.330000", "183408.820000", "183410.310000", "183411.800000", "183413.290000", "183414.780000", "183416.270000", "183417.760000", "183419.250000", "183420.740000", "183422.230000", "183423.720000", "183425.210000", "183426.700000", "183428.190000", "183429.680000", "183431.170000", "183432.660000", "183434.150000", "183435.640000", "183437.130000", "183438.620000", "183440.110000", "183441.600000", "183443.090000", "183444.580000", "183446.070000", "183447.560000", "183449.050000", "183450.540000", "183452.030000", "183453.520000", "183455.010000", "183456.500000", "183457.990000", "183459.480000", "183500.970000", "183502.460000", "183503.950000", "183505.440000", "183506.930000", "183508.420000", "183509.910000", "183511.400000", "183512.890000", "183514.380000", "183515.870000", "183517.360000", "183518.850000", "183520.340000", "183521.830000", "183523.320000", "183524.810000", "183526.300000", "183527.790000", "183529.280000", "183530.770000", "183532.260000", "183533.750000", "183535.240000", "183536.730000", "183538.220000", "183539.710000", "183541.200000", "183542.690000", "183544.180000", "183545.670000", "183547.160000", "183548.650000", "183550.140000", "183551.630000", "183553.120000", "183554.610000", "183556.100000", "183557.590000", "183559.080000", "183600.570000", "183602.060000", "183603.550000", "183605.040000", "183606.530000", "183608.020000", "183609.510000", "183611.000000", "183612.490000", "183613.980000", "183615.470000", "183616.960000", "183618.450000", "183619.940000", "183621.430000", "183622.920000", "183624.410000", "183625.900000", "183627.390000", "183628.880000", "183630.370000", "183631.860000", "183633.350000", "183634.840000", "183636.330000", "183637.820000", "183639.310000", "183640.800000", "183642.290000", "183643.780000", "183645.270000", "183646.760000", "183648.250000", "183649.740000", "183651.230000", "183652.720000", "183654.210000", "183655.700000", "183657.190000", "183658.680000", "183700.170000", "183701.660000", "183703.150000", "183704.640000", "183706.130000", "183707.620000", "183709.110000", "183710.600000", "183712.090000", "183713.580000", "183715.070000", "183716.560000", "183718.050000", "183719.540000", "183721.030000", "183722.520000", "183724.010000", "183725.500000", "183726.990000", "183728.480000", "183729.970000", "183731.460000", "183732.950000", "183734.440000", "183735.930000", "183737.420000", "183738.910000", "183740.400000", "183741.890000", "183743.380000", "183744.870000", "183746.360000", "183747.850000", "183749.340000", "183750.830000", "183752.320000", "183753.810000", "183755.300000", "183756.790000", "183758.280000", "183759.770000", "183801.260000", "183802.750000", "183804.240000", "183805.730000", "183807.220000", "183808.710000", "183810.200000", "183811.690000", "183813.180000", "183814.670000", "183816.160000", "183817.650000", "183819.140000", "183820.630000", "183822.120000", "183823.610000", "183825.100000", "183826.590000", "183828.080000", "183829.570000", "183831.060000", "183832.550000", "183834.040000", "183835.530000", "183837.020000", "183838.510000", "183840.000000", "183841.490000", "183842.980000", "183844.470000", "183845.960000", "183847.450000", "183848.940000", "183850.430000", "183851.920000", "183853.410000", "183854.900000", "183856.390000", "183857.880000", "183859.370000", "183900.860000", "183902.350000", "183903.840000", "183905.330000", "183906.820000", "183908.310000", "183909.800000", "183911.290000", "183912.780000", "183914.270000", "183915.760000", "183917.250000", "183918.740000", "183920.230000", "183921.720000", "183923.210000", "183924.700000", "183926.190000", "183927.680000", "183929.170000", "183930.660000", "183932.150000", "183933.640000", "183935.130000", "183936.620000", "183938.110000", "183939.600000", "183941.090000", "183942.580000", "183944.070000", "183945.560000", "183947.050000", "183948.540000", "183950.030000", "183951.520000", "183953.010000", "183954.500000", "183955.990000", "183957.480000", "183958.970000", "184000.460000", "184001.950000", "184003.440000", "184004.930000", "184006.420000"],
      "ContentTime": ["183037.977000", "183037.983000", "183037.986000", "183037.989000", "183037.992000", "183037.995000", "183038.000000", "183038.003000", "183038.006000", "183038.010000", "183038.012000", "183038.015000", "183038.018000", "183038.021000", "183038.024000", "183038.027000", "183038.030000", "183038.033000", "183038.036000", "183038.038000", "183038.041000", "183038.044000", "183038.047000", "183038.050000", "183038.053000", "183038.056000", "183038.059000", "183038.061000", "183038.064000", "183038.067000", "183038.070000", "183038.073000", "183038.076000", "183038.079000", "183057.946000", "183057.949000", "183057.952000", "183057.955000", "183057.958000", "183057.961000", "183057.964000", "183057.967000", "183057.970000", "183057.973000", "183057.976000", "183057.979000", "183057.982000", "183057.985000", "183057.988000", "183057.991000", "183057.994000", "183057.997000", "183058.001000", "183058.003000", "183058.006000", "183117.946000", "183117.949000", "183117.952000", "183117.955000", "183117.958000", "183117.960000", "183117.963000", "183117.966000", "183117.969000", "183117.972000", "183117.975000", "183117.992000", "183117.995000", "183117.998000", "183118.001000", "183118.004000", "183118.007000", "183118.010000", "183118.012000", "183118.015000", "183137.946000", "183137.949000", "183137.952000", "183137.955000", "183137.958000", "183137.960000", "183137.963000", "183137.966000", "183137.969000", "183137.972000", "183137.975000", "183137.977000", "183137.980000", "183137.983000", "183137.986000", "183137.989000", "183137.992000", "183137.995000", "183137.997000", "183138.000000", "183157.946000", "183157.949000", "183157.952000", "183157.954000", "183157.957000", "183157.960000", "183157.963000", "183157.966000", "183157.969000", "183157.972000", "183157.975000", "183157.977000", "183157.980000", "183157.983000", "183157.986000", "183157.989000", "183157.992000", "183157.995000", "183157.998000", "183158.007000", "183237.947000", "183237.950000", "183237.957000", "183237.960000", "183237.963000", "183237.967000", "183237.970000", "183237.973000", "183237.976000", "183237.979000", "183237.982000", "183237.985000", "183237.988000", "183237.991000", "183237.994000", "183237.997000", "183238.000000", "183238.003000", "183238.006000", "183238.009000", "183238.012000", "183238.015000", "183238.018000", "183238.021000", "183238.023000", "183238.026000", "183238.030000", "183317.946000", "183317.949000", "183317.952000", "183317.960000", "183317.963000", "183317.966000", "183317.969000", "183317.972000", "183317.975000", "183317.978000", "183317.981000", "183317.984000", "183317.987000", "183317.990000", "183317.993000", "183317.996000", "183317.999000", "183318.002000", "183318.005000", "183318.008000", "183318.011000", "183318.015000", "183318.018000", "183318.022000", "183318.025000", "183318.028000", "183318.031000", "183357.946000", "183357.949000", "183357.952000", "183357.955000", "183357.966000", "183357.969000", "183357.971000", "183357.974000", "183357.977000", "183357.980000", "183357.983000", "183357.986000", "183357.989000", "183357.992000", "183357.994000", "183357.997000", "183358.001000", "183358.004000", "183358.007000", "183358.010000", "183358.013000", "183358.016000", "183358.019000", "183358.021000", "183358.025000", "183358.027000", "183358.030000", "183437.946000", "183437.949000", "183437.952000", "183437.955000", "183437.958000", "183437.961000", "183437.964000", "183437.967000", "183437.969000", "183437.972000", "183437.975000", "183437.978000", "183437.981000", "183437.984000", "183437.987000", "183437.990000", "183437.993000", "183437.996000", "183437.999000", "183438.002000", "183438.005000", "183438.007000", "183438.010000", "183438.014000", "183438.017000", "183438.020000", "183438.022000", "183517.947000", "183517.950000", "183517.958000", "183517.961000", "183517.964000", "183517.967000", "183517.970000", "183517.973000", "183517.975000", "183517.978000", "183517.981000", "183517.984000", "183517.987000", "183517.990000", "183517.993000", "183517.996000", "183518.000000", "183518.002000", "183518.006000", "183518.008000", "183518.011000", "183518.014000", "183518.017000", "183518.020000", "183518.023000", "183518.026000", "183518.029000", "183557.946000", "183557.949000", "183557.952000", "183557.955000", "183557.971000", "183557.974000", "183557.977000", "183557.980000", "183557.983000", "183557.986000", "183557.989000", "183557.992000", "183557.995000", "183558.000000", "183558.003000", "183558.006000", "183558.009000", "183558.013000", "183558.016000", "183558.020000", "183558.023000", "183558.026000", "183558.028000", "183558.031000", "183558.034000", "183558.037000", "183637.946000", "183637.949000", "183637.952000", "183637.955000", "183637.958000", "183637.961000", "183637.964000", "183637.967000", "183637.969000", "183637.972000", "183637.975000", "183637.978000", "183637.981000", "183637.984000", "183637.987000", "183637.990000", "183637.992000", "183637.996000", "183638.000000", "183638.003000", "183638.006000", "183638.009000", "183638.012000", "183638.015000", "183638.018000", "183638.021000", "183638.023000", "183717.947000", "183717.950000", "183717.961000", "183717.964000", "183717.968000", "183717.971000", "183717.974000", "183717.977000", "183717.981000", "183717.984000", "183717.987000", "183717.990000", "183717.993000", "183717.996000", "183718.000000", "183718.003000", "183718.006000", "183718.010000", "183718.013000", "183718.023000", "183718.026000", "183718.029000", "183718.032000", "183718.036000", "183718.039000", "183718.042000", "183718.045000", "183757.946000", "183757.959000", "183757.962000", "183757.965000", "183757.968000", "183757.971000", "183757.974000", "183757.977000", "183757.980000", "183757.983000", "183757.986000", "183757.988000", "183757.991000", "183757.994000", "183757.997000", "183758.001000", "183758.004000", "183758.007000", "183758.010000", "183758.013000", "183758.016000", "183758.019000", "183758.021000", "183758.024000", "183758.027000", "183758.030000", "183758.033000", "183837.946000", "183837.949000", "183837.952000", "183837.955000", "183837.965000", "183837.968000", "183837.971000", "183837.974000", "183837.977000", "183837.980000", "183837.983000", "183837.985000", "183837.989000", "183837.991000", "183837.994000", "183837.997000", "183838.001000", "183838.004000", "183838.007000", "183838.010000", "183838.013000", "183838.016000", "183838.019000", "183838.022000", "183838.025000", "183838.027000", "183838.030000", "183917.946000", "183917.949000", "183917.952000", "183917.955000", "183917.958000", "183917.961000", "183917.963000", "183917.966000", "183917.969000", "183917.972000", "183917.975000", "183917.978000", "183917.986000", "183917.989000", "183917.992000", "183917.995000", "183917.998000", "183918.002000", "183918.005000", "183918.008000", "183918.011000", "183918.013000", "183918.016000", "183918.019000", "183918.022000", "183918.025000", "183918.028000", "183957.947000", "183957.950000", "183957.953000", "183957.956000", "183957.959000", "183957.962000", "183957.965000", "183957.968000", "183957.971000", "183957.973000", "183957.976000", "183957.979000", "183957.982000", "183957.985000", "183957.988000", "183957.991000", "183957.994000", "183957.997000", "183958.001000", "183958.004000", "183958.006000", "183958.009000", "183958.012000", "183958.015000", "183958.018000", "183958.021000", "183958.024000", "184008.385000", "184008.388000", "184008.391000", "184008.394000", "184008.405000", "184008.408000", "184008.411000"],
