{
  "AcquisitionMatrixPE": 104,
  "AcquisitionNumber": 1,
  "AcquisitionTime": "18:53:2.020000",
  "BandwidthPerPixelPhaseEncode": 17.17,
  "BaseResolution": 104,
  "BodyPartExamined": "BRAIN",
  "CoilString": "HC1-7;NC1_2",
  "ConsistencyInfo": "N4_VE11C_LATEST_20160120",
  "ConversionSoftware": "dcm2niix",
  "ConversionSoftwareVersion": "v1.0.20190902",
  "DerivedVendorReportedEchoSpacing": 0.000560011,
  "DeviceSerialNumber": "167006",
  "DwellTime": 2.1e-06,
  "EchoTime": 0.037,
  "EchoTrainLength": 104,
  "EffectiveEchoSpacing": 0.000560011,
  "FlipAngle": 52,
  "ImageComments": "Unaliased_MB4_PE3_LB",
  "ImageOrientationPatientDICOM": [0.999978, -0.000684275, -0.0066142, -0.00139625, 0.950908, -0.309471],
  "ImageType": [
    "ORIGINAL",
    "PRIMARY",
    "M",
    "MB",
    "ND",
    "MOSAIC"
],
  "ImagingFrequency": 123.259,
  "InPlanePhaseEncodingDirectionDICOM": "COL",
  "InstitutionAddress": "Chemin_Queen-Mary_4565_Montreal_District_CA_H3W_1W5",
  "InstitutionName": "IUGM",
  "InstitutionalDepartmentName": "Department",
  "MRAcquisitionType": "2D",
  "MagneticFieldStrength": 3,
  "Manufacturer": "Siemens",
  "ManufacturersModelName": "Prisma_fit",
  "Modality": "MR",
  "MultibandAccelerationFactor": 4,
  "PartialFourier": 1,
  "PatientPosition": "HFS",
  "PercentPhaseFOV": 100,
  "PhaseEncodingDirection": "j",
  "PhaseEncodingSteps": 104,
  "PhaseResolution": 1,
  "PixelBandwidth": 2290,
  "ProcedureStepDescription": "video_friends",
  "ProtocolName": "func_task-friends-s02e20b",
  "PulseSequenceDetails": "%CustomerSeq%_cmrr_mbep2d_bold",
  "ReceiveCoilActiveElements": "HC1-7;NC1,2",
  "ReceiveCoilName": "HeadNeck_64",
  "ReconMatrixPE": 104,
  "RepetitionTime": 1.49,
  "SAR": 0.0320757,
  "ScanOptions": "FS",
  "ScanningSequence": "EP",
  "SequenceName": "epfid2d1_104",
  "SequenceVariant": "SK_SS",
  "SeriesDescription": "func_task-friends-s02e20b",
  "SeriesNumber": 21,
  "ShimSetting": [618, -7216, -8777, 728, 12, -9, 31, 6],
  "SliceThickness": 2,
  "SliceTiming": [0, 0.785, 0.1, 0.8825, 0.1975, 0.98, 0.295, 1.08, 0.3925, 1.1775, 0.49, 1.275, 0.59, 1.3725, 0.6875, 0, 0.785, 0.1, 0.8825, 0.1975, 0.98, 0.295, 1.08, 0.3925, 1.1775, 0.49, 1.275, 0.59, 1.3725, 0.6875, 0, 0.785, 0.1, 0.8825, 0.1975, 0.98, 0.295, 1.08, 0.3925, 1.1775, 0.49, 1.275, 0.59, 1.3725, 0.6875, 0, 0.785, 0.1, 0.8825, 0.1975, 0.98, 0.295, 1.08, 0.3925, 1.1775, 0.49, 1.275, 0.59, 1.3725, 0.6875],
  "SoftwareVersions": "syngo_MR_E11",
  "SpacingBetweenSlices": 2,
  "StationName": "MRC35049",
  "TaskName": "friendsS02E20B",
  "TotalReadoutTime": 0.0576811,
  "TxRefAmp": 208.893,
  "WipMemBlock": "2f54cb4e-d5a7-4590-94b1-86ccdb160c4d||Sequence: R016 ve11c/master r/e634e98; Dec 19 2017 11:00:25 by eja",
  "dcmmeta_affine": [
    [-1.9999557733535767, -0.0027924971655011177, -0.013002515770494938, 105.42992401123047],
    [0.0013685503508895636, 1.9018160104751587, -0.6189460158348083, -79.7899169921875],
    [-0.013228398747742176, 0.6189412474632263, 1.901771903038025, -57.170494079589844],
    [0.0, 0.0, 0.0, 1.0]
],
  "dcmmeta_reorient_transform": [
    [0.0, -1.0, 0.0, 103.0],
    [1.0, 0.0, 0.0, 0.0],
    [0.0, 0.0, 1.0, 0.0],
    [0.0, 0.0, 0.0, 1.0]
],
  "dcmmeta_shape": [104, 104, 60, 449],
  "dcmmeta_slice_dim": 2,
  "dcmmeta_version": 0.6,
  "global": {
    "const": {
      "AcquisitionMatrix": [104, 0, 0, 104],
      "AngioFlag": "N",
      "BitsAllocated": 16,
      "BitsStored": 16,
      "BodyPartExamined": "BRAIN",
      "Columns": 832,
      "EchoNumbers": 1,
      "EchoTime": 37.0,
      "EchoTrainLength": 104,
      "FlipAngle": 52.0,
      "HighBit": 15,
      "ImageOrientationPatient": [0.99997789182195, -0.0006842751979, -0.0066141994815, -0.00139624856, 0.95090797859453, -0.30947062338],
      "ImagePositionPatient": [-832.10973057967, -807.85998406476, 236.69020659299],
      "ImageType": [
        "ORIGINAL",
        "PRIMARY",
        "M",
        "MB",
        "ND",
        "MOSAIC"
],
      "ImagedNucleus": "1H",
      "ImagingFrequency": 123.259384,
      "InPlanePhaseEncodingDirection": "COL",
      "MRAcquisitionType": "2D",
      "MagneticFieldStrength": 3.0,
      "Manufacturer": "SIEMENS",
      "ManufacturerModelName": "Prisma_fit",
      "Modality": "MR",
      "NumberOfAverages": 1.0,
      "NumberOfPhaseEncodingSteps": 104,
      "PercentPhaseFieldOfView": 100.0,
      "PercentSampling": 100.0,
      "PerformedProcedureStepStartTime": "180424.190000",
      "PhotometricInterpretation": "MONOCHROME2",
      "PixelBandwidth": 2290.0,
      "PixelRepresentation": 0,
      "PixelSpacing": [2.0, 2.0],
      "ProtocolName": "func_task-friends-s02e20b",
      "RepetitionTime": 1490.0,
      "Rows": 832,
      "SAR": 0.03207567467622,
      "SamplesPerPixel": 1,
      "ScanOptions": "FS",
      "ScanningSequence": "EP",
      "SequenceName": "epfid2d1_104",
      "SequenceVariant": [
        "SK",
        "SS"
],
      "SeriesDescription": "func_task-friends-s02e20b",
      "SeriesNumber": 21,
      "SeriesTime": "185434.929000",
      "SliceLocation": -30.355222557553,
      "SliceThickness": 2.0,
      "SmallestImagePixelValue": 0,
      "SoftwareVersions": "syngo MR E11",
      "SpacingBetweenSlices": 1.9999999390143,
      "SpecificCharacterSet": "ISO_IR 100",
      "StudyID": "1",
      "StudyTime": "180424.073000",
      "TransmitCoilName": "Body",
      "VariableFlipAngleFlag": "N",
      "WindowCenterWidthExplanation": "Algo1",
      "dBdt": 0.0},
    "slices": {}
  },
  "time": {
    "samples": {
      "AcquisitionNumber": [1, 2, 3, 4, 5, 6, 7, 8, 9, 10, 11, 12, 13, 14, 15, 16, 17, 18, 19, 20, 21, 22, 23, 24, 25, 26, 27, 28, 29, 30, 31, 32, 33, 34, 35, 36, 37, 38, 39, 40, 41, 42, 43, 44, 45, 46, 47, 48, 49, 50, 51, 52, 53, 54, 55, 56, 57, 58, 59, 60, 61, 62, 63, 64, 65, 66, 67, 68, 69, 70, 71, 72, 73, 74, 75, 76, 77, 78, 79, 80, 81, 82, 83, 84, 85, 86, 87, 88, 89, 90, 91, 92, 93, 94, 95, 96, 97, 98, 99, 100, 101, 102, 103, 104, 105, 106, 107, 108, 109, 110, 111, 112, 113, 114, 115, 116, 117, 118, 119, 120, 121, 122, 123, 124, 125, 126, 127, 128, 129, 130, 131, 132, 133, 134, 135, 136, 137, 138, 139, 140, 141, 142, 143, 144, 145, 146, 147, 148, 149, 150, 151, 152, 153, 154, 155, 156, 157, 158, 159, 160, 161, 162, 163, 164, 165, 166, 167, 168, 169, 170, 171, 172, 173, 174, 175, 176, 177, 178, 179, 180, 181, 182, 183, 184, 185, 186, 187, 188, 189, 190, 191, 192, 193, 194, 195, 196, 197, 198, 199, 200, 201, 202, 203, 204, 205, 206, 207, 208, 209, 210, 211, 212, 213, 214, 215, 216, 217, 218, 219, 220, 221, 222, 223, 224, 225, 226, 227, 228, 229, 230, 231, 232, 233, 234, 235, 236, 237, 238, 239, 240, 241, 242, 243, 244, 245, 246, 247, 248, 249, 250, 251, 252, 253, 254, 255, 256, 257, 258, 259, 260, 261, 262, 263, 264, 265, 266, 267, 268, 269, 270, 271, 272, 273, 274, 275, 276, 277, 278, 279, 280, 281, 282, 283, 284, 285, 286, 287, 288, 289, 290, 291, 292, 293, 294, 295, 296, 297, 298, 299, 300, 301, 302, 303, 304, 305, 306, 307, 308, 309, 310, 311, 312, 313, 314, 315, 316, 317, 318, 319, 320, 321, 322, 323, 324, 325, 326, 327, 328, 329, 330, 331, 332, 333, 334, 335, 336, 337, 338, 339, 340, 341, 342, 343, 344, 345, 346, 347, 348, 349, 350, 351, 352, 353, 354, 355, 356, 357, 358, 359, 360, 361, 362, 363, 364, 365, 366, 367, 368, 369, 370, 371, 372, 373, 374, 375, 376, 377, 378, 379, 380, 381, 382, 383, 384, 385, 386, 387, 388, 389, 390, 391, 392, 393, 394, 395, 396, 397, 398, 399, 400, 401, 402, 403, 404, 405, 406, 407, 408, 409, 410, 411, 412, 413, 414, 415, 416, 417, 418, 419, 420, 421, 422, 423, 424, 425, 426, 427, 428, 429, 430, 431, 432, 433, 434, 435, 436, 437, 438, 439, 440, 441, 442, 443, 444, 445, 446, 447, 448, 449],
      "AcquisitionTime": ["185302.020000", "185303.510000", "185305.000000", "185306.490000", "185307.980000", "185309.470000", "185310.960000", "185312.450000", "185313.940000", "185315.430000", "185316.920000", "185318.410000", "185319.900000", "185321.390000", "185322.880000", "185324.370000", "185325.860000", "185327.350000", "185328.840000", "185330.330000", "185331.820000", "185333.310000", "185334.800000", "185336.290000", "185337.780000", "185339.270000", "185340.760000", "185342.250000", "185343.740000", "185345.230000", "185346.720000", "185348.210000", "185349.700000", "185351.190000", "185352.680000", "185354.170000", "185355.660000", "185357.150000", "185358.640000", "185400.130000", "185401.620000", "185403.110000", "185404.600000", "185406.090000", "185407.580000", "185409.070000", "185410.560000", "185412.050000", "185413.540000", "185415.030000", "185416.520000", "185418.010000", "185419.500000", "185420.990000", "185422.480000", "185423.970000", "185425.460000", "185426.950000", "185428.440000", "185429.930000", "185431.420000", "185432.910000", "185434.400000", "185435.890000", "185437.380000", "185438.870000", "185440.360000", "185441.850000", "185443.340000", "185444.830000", "185446.320000", "185447.810000", "185449.300000", "185450.790000", "185452.280000", "185453.770000", "185455.260000", "185456.750000", "185458.240000", "185459.730000", "185501.220000", "185502.710000", "185504.200000", "185505.690000", "185507.180000", "185508.670000", "185510.160000", "185511.650000", "185513.140000", "185514.630000", "185516.120000", "185517.610000", "185519.100000", "185520.590000", "185522.080000", "185523.570000", "185525.060000", "185526.550000", "185528.040000", "185529.530000", "185531.020000", "185532.510000", "185534.000000", "185535.490000", "185536.980000", "185538.470000", "185539.960000", "185541.450000", "185542.940000", "185544.430000", "185545.920000", "185547.410000", "185548.900000", "185550.390000", "185551.880000", "185553.370000", "185554.860000", "185556.350000", "185557.840000", "185559.330000", "185600.820000", "185602.310000", "185603.800000", "185605.290000", "185606.780000", "185608.270000", "185609.760000", "185611.250000", "185612.740000", "185614.230000", "185615.720000", "185617.210000", "185618.700000", "185620.190000", "185621.680000", "185623.170000", "185624.660000", "185626.150000", "185627.640000", "185629.130000", "185630.620000", "185632.110000", "185633.600000", "185635.090000", "185636.580000", "185638.070000", "185639.560000", "185641.050000", "185642.540000", "185644.030000", "185645.520000", "185647.010000", "185648.500000", "185649.990000", "185651.480000", "185652.970000", "185654.460000", "185655.950000", "185657.440000", "185658.930000", "185700.420000", "185701.910000", "185703.400000", "185704.890000", "185706.380000", "185707.870000", "185709.360000", "185710.850000", "185712.340000", "185713.830000", "185715.320000", "185716.810000", "185718.300000", "185719.790000", "185721.280000", "185722.770000", "185724.260000", "185725.750000", "185727.240000", "185728.730000", "185730.220000", "185731.710000", "185733.200000", "185734.690000", "185736.180000", "185737.670000", "185739.160000", "185740.650000", "185742.140000", "185743.630000", "185745.120000", "185746.610000", "185748.100000", "185749.590000", "185751.080000", "185752.570000", "185754.060000", "185755.550000", "185757.040000", "185758.530000", "185800.020000", "185801.510000", "185803.000000", "185804.490000", "185805.980000", "185807.470000", "185808.960000", "185810.450000", "185811.940000", "185813.430000", "185814.920000", "185816.410000", "185817.900000", "185819.390000", "185820.880000", "185822.370000", "185823.860000", "185825.350000", "185826.840000", "185828.330000", "185829.820000", "185831.310000", "185832.800000", "185834.290000", "185835.780000", "185837.270000", "185838.760000", "185840.250000", "185841.740000", "185843.230000", "185844.720000", "185846.210000", "185847.700000", "185849.190000", "185850.680000", "185852.170000", "185853.660000", "185855.150000", "185856.640000", "185858.130000", "185859.620000", "185901.110000", "185902.600000", "185904.090000", "185905.580000", "185907.070000", "185908.560000", "185910.050000", "185911.540000", "185913.030000", "185914.520000", "185916.010000", "185917.500000", "185918.990000", "185920.480000", "185921.970000", "185923.460000", "185924.950000", "185926.440000", "185927.930000", "185929.420000", "185930.910000", "185932.400000", "185933.890000", "185935.380000", "185936.870000", "185938.360000", "185939.850000", "185941.340000", "185942.830000", "185944.320000", "185945.810000", "185947.300000", "185948.790000", "185950.280000", "185951.770000", "185953.260000", "185954.750000", "185956.240000", "185957.730000", "185959.220000", "190000.710000", "190002.200000", "190003.690000", "190005.180000", "190006.670000", "190008.160000", "190009.650000", "190011.140000", "190012.630000", "190014.120000", "190015.610000", "190017.100000", "190018.590000", "190020.080000", "190021.570000", "190023.060000", "190024.550000", "190026.040000", "190027.530000", "190029.020000", "190030.510000", "190032.000000", "190033.490000", "190034.980000", "190036.470000", "190037.960000", "190039.450000", "190040.940000", "190042.430000", "190043.920000", "190045.410000", "190046.900000", "190048.390000", "190049.880000", "190051.370000", "190052.860000", "190054.350000", "190055.840000", "190057.330000", "190058.820000", "190100.310000", "190101.800000", "190103.290000", "190104.780000", "190106.270000", "190107.760000", "190109.250000", "190110.740000", "190112.230000", "190113.720000", "190115.210000", "190116.700000", "190118.190000", "190119.680000", "190121.170000", "190122.660000", "190124.150000", "190125.640000", "190127.130000", "190128.620000", "190130.110000", "190131.600000", "190133.090000", "190134.580000", "190136.070000", "190137.560000", "190139.050000", "190140.540000", "190142.030000", "190143.520000", "190145.010000", "190146.500000", "190147.990000", "190149.480000", "190150.970000", "190152.460000", "190153.950000", "190155.440000", "190156.930000", "190158.420000", "190159.910000", "190201.400000", "190202.890000", "190204.380000", "190205.870000", "190207.360000", "190208.850000", "190210.340000", "190211.830000", "190213.320000", "190214.810000", "190216.300000", "190217.790000", "190219.280000", "190220.770000", "190222.260000", "190223.750000", "190225.240000", "190226.730000", "190228.220000", "190229.710000", "190231.200000", "190232.690000", "190234.180000", "190235.670000", "190237.160000", "190238.650000", "190240.140000", "190241.630000", "190243.120000", "190244.610000", "190246.100000", "190247.590000", "190249.080000", "190250.570000", "190252.060000", "190253.550000", "190255.040000", "190256.530000", "190258.020000", "190259.510000", "190301.000000", "190302.490000", "190303.980000", "190305.470000", "190306.960000", "190308.450000", "190309.940000", "190311.430000", "190312.920000", "190314.410000", "190315.900000", "190317.390000", "190318.880000", "190320.370000", "190321.860000", "190323.350000", "190324.840000", "190326.330000", "190327.820000", "190329.310000", "190330.800000", "190332.290000", "190333.780000", "190335.270000", "190336.760000", "190338.250000", "190339.740000", "190341.230000", "190342.720000", "190344.210000", "190345.700000", "190347.190000", "190348.680000", "190350.170000", "190351.660000", "190353.150000", "190354.640000", "190356.130000", "190357.620000", "190359.110000", "190400.600000", "190402.090000", "190403.580000", "190405.070000", "190406.560000", "190408.050000", "190409.540000"],
      "ContentTime": ["185434.932000", "185434.935000", "185434.938000", "185434.941000", "185434.947000", "185434.950000", "185434.953000", "185434.956000", "185434.959000", "185434.962000", "185434.965000", "185434.968000", "185434.970000", "185434.973000", "185434.976000", "185434.979000", "185434.982000", "185434.985000", "185434.988000", "185434.990000", "185434.993000", "185434.996000", "185435.000000", "185435.003000", "185435.006000", "185435.009000", "185435.012000", "185435.022000", "185435.024000", "185435.027000", "185435.030000", "185435.033000", "185435.036000", "185435.039000", "185435.042000", "185435.045000", "185435.047000", "185435.050000", "185435.053000", "185454.906000", "185454.909000", "185454.912000", "185454.915000", "185454.917000", "185454.920000", "185454.923000", "185454.926000", "185454.929000", "185454.932000", "185454.935000", "185454.938000", "185454.940000", "185454.943000", "185454.946000", "185454.949000", "185454.952000", "185454.955000", "185454.967000", "185454.970000", "185514.906000", "185514.909000", "185514.912000", "185514.915000", "185514.918000", "185514.921000", "185514.924000", "185514.927000", "185514.929000", "185514.932000", "185514.935000", "185514.938000", "185514.941000", "185514.944000", "185514.947000", "185514.949000", "185514.952000", "185514.955000", "185514.958000", "185514.961000", "185534.906000", "185534.909000", "185534.912000", "185534.915000", "185534.918000", "185534.920000", "185534.923000", "185534.926000", "185534.929000", "185534.932000", "185534.935000", "185534.938000", "185534.941000", "185534.944000", "185534.947000", "185534.950000", "185534.952000", "185534.955000", "185534.958000", "185534.961000", "185534.964000", "185614.906000", "185614.909000", "185614.912000", "185614.915000", "185614.918000", "185614.921000", "185614.923000", "185614.926000", "185614.929000", "185614.932000", "185614.935000", "185614.938000", "185614.941000", "185614.943000", "185614.946000", "185614.949000", "185614.952000", "185614.955000", "185614.958000", "185614.961000", "185614.964000", "185614.967000", "185614.970000", "185614.972000", "185614.975000", "185614.978000", "185614.981000", "185614.984000", "185614.987000", "185654.905000", "185654.908000", "185654.911000", "185654.914000", "185654.917000", "185654.919000", "185654.922000", "185654.925000", "185654.928000", "185654.931000", "185654.934000", "185654.937000", "185654.940000", "185654.943000", "185654.946000", "185654.948000", "185654.951000", "185654.954000", "185654.957000", "185654.960000", "185654.963000", "185654.966000", "185654.969000", "185654.972000", "185654.974000", "185654.977000", "185654.980000", "185734.906000", "185734.910000", "185734.913000", "185734.916000", "185734.919000", "185734.922000", "185734.925000", "185734.928000", "185734.931000", "185734.933000", "185734.936000", "185734.939000", "185734.942000", "185734.945000", "185734.948000", "185734.951000", "185734.954000", "185734.957000", "185734.960000", "185734.963000", "185734.966000", "185734.968000", "185734.971000", "185734.974000", "185734.977000", "185734.980000", "185814.906000", "185814.909000", "185814.912000", "185814.915000", "185814.918000", "185814.921000", "185814.924000", "185814.926000", "185814.929000", "185814.932000", "185814.935000", "185814.938000", "185814.941000", "185814.944000", "185814.947000", "185814.950000", "185814.953000", "185814.956000", "185814.959000", "185814.962000", "185814.964000", "185814.967000", "185814.970000", "185814.973000", "185814.976000", "185814.979000", "185814.982000", "185854.906000", "185854.909000", "185854.912000", "185854.915000", "185854.918000", "185854.920000", "185854.923000", "185854.926000", "185854.929000", "185854.933000", "185854.936000", "185854.939000", "185854.942000", "185854.945000", "185854.948000", "185854.950000", "185854.953000", "185854.956000", "185854.959000", "185854.962000", "185854.965000", "185854.968000", "185854.971000", "185854.973000", "185854.976000", "185854.979000", "185854.982000", "185934.906000", "185934.909000", "185934.912000", "185934.915000", "185934.918000", "185934.921000", "185934.924000", "185934.927000", "185934.930000", "185934.932000", "185934.935000", "185934.938000", "185934.941000", "185934.944000", "185934.947000", "185934.957000", "185934.959000", "185934.962000", "185934.965000", "185934.968000", "185934.971000", "185934.974000", "185934.977000", "185934.980000", "185934.983000", "185934.986000", "185934.988000", "190014.906000", "190014.909000", "190014.912000", "190014.915000", "190014.918000", "190014.921000", "190014.924000", "190014.926000", "190014.929000", "190014.932000", "190014.935000", "190014.938000", "190014.941000", "190014.944000", "190014.947000", "190014.950000", "190014.953000", "190014.956000", "190014.958000", "190014.961000", "190014.964000", "190014.967000", "190014.970000", "190014.973000", "190014.976000", "190014.979000", "190014.982000", "190054.906000", "190054.909000", "190054.912000", "190054.915000", "190054.918000", "190054.921000", "190054.924000", "190054.926000", "190054.929000", "190054.932000", "190054.935000", "190054.938000", "190054.941000", "190054.944000", "190054.947000", "190054.950000", "190054.953000", "190054.955000", "190054.958000", "190054.961000", "190054.964000", "190054.967000", "190054.970000", "190054.973000", "190054.976000", "190054.979000", "190054.982000", "190134.905000", "190134.908000", "190134.911000", "190134.914000", "190134.917000", "190134.920000", "190134.923000", "190134.926000", "190134.929000", "190134.932000", "190134.935000", "190134.938000", "190134.941000", "190134.943000", "190134.946000", "190134.949000", "190134.952000", "190134.955000", "190134.958000", "190134.961000", "190134.964000", "190134.967000", "190134.980000", "190134.983000", "190134.985000", "190134.988000", "190214.906000", "190214.909000", "190214.912000", "190214.915000", "190214.918000", "190214.921000", "190214.924000", "190214.927000", "190214.929000", "190214.932000", "190214.935000", "190214.938000", "190214.941000", "190214.944000", "190214.947000", "190214.950000", "190214.953000", "190214.956000", "190214.959000", "190214.962000", "190214.964000", "190214.967000", "190214.970000", "190214.973000", "190214.976000", "190214.979000", "190214.982000", "190254.906000", "190254.909000", "190254.912000", "190254.915000", "190254.918000", "190254.921000", "190254.924000", "190254.927000", "190254.929000", "190254.932000", "190254.935000", "190254.938000", "190254.941000", "190254.944000", "190254.947000", "190254.950000", "190254.953000", "190254.955000", "190254.958000", "190254.961000", "190254.964000", "190254.967000", "190254.970000", "190254.973000", "190254.976000", "190254.979000", "190254.982000", "190334.906000", "190334.909000", "190334.912000", "190334.915000", "190334.918000", "190334.921000", "190334.924000", "190334.926000", "190334.929000", "190334.932000", "190334.935000", "190334.938000", "190334.941000", "190334.944000", "190334.947000", "190334.950000", "190334.953000", "190334.956000", "190334.959000", "190334.961000", "190334.964000", "190334.967000", "190334.970000", "190334.973000", "190334.976000", "190334.979000", "190334.982000", "190411.419000", "190411.422000", "190411.425000", "190411.428000", "190411.431000", "190411.434000", "190411.436000", "190411.439000", "190411.442000", "190411.445000", "190411.448000", "190411.451000", "190411.454000", "190411.457000", "190411.460000", "190411.463000", "190411.466000", "190411.469000", "190411.471000", "190411.474000", "190411.477000", "190411.480000", "190411.483000", "190411.486000", "190411.489000"],
