{
  "AcquisitionMatrixPE": 104,
  "AcquisitionNumber": 1,
  "AcquisitionTime": "18:32:2.195000",
  "BandwidthPerPixelPhaseEncode": 17.17,
  "BaseResolution": 104,
  "BodyPartExamined": "BRAIN",
  "CoilString": "HC1-7;NC1_2",
  "ConsistencyInfo": "N4_VE11C_LATEST_20160120",
  "ConversionSoftware": "dcm2niix",
  "ConversionSoftwareVersion": "v1.0.20190902",
  "DerivedVendorReportedEchoSpacing": 0.000560011,
  "DeviceSerialNumber": "167006",
  "DwellTime": 2.1e-06,
  "EchoTime": 0.037,
  "EchoTrainLength": 104,
  "EffectiveEchoSpacing": 0.000560011,
  "FlipAngle": 52,
  "ImageComments": "Unaliased_MB4_PE3_LB",
  "ImageOrientationPatientDICOM": [0.999704, -0.0242021, 0.00241393, 0.0239086, 0.959626, -0.280263],
  "ImageType": [
    "ORIGINAL",
    "PRIMARY",
    "M",
    "MB",
    "ND",
    "MOSAIC"
],
  "ImagingFrequency": 123.259,
  "InPlanePhaseEncodingDirectionDICOM": "COL",
  "InstitutionAddress": "Chemin_Queen-Mary_4565_Montreal_District_CA_H3W_1W5",
  "InstitutionName": "IUGM",
  "InstitutionalDepartmentName": "Department",
  "MRAcquisitionType": "2D",
  "MagneticFieldStrength": 3,
  "Manufacturer": "Siemens",
  "ManufacturersModelName": "Prisma_fit",
  "Modality": "MR",
  "MultibandAccelerationFactor": 4,
  "PartialFourier": 1,
  "PatientPosition": "HFS",
  "PercentPhaseFOV": 100,
  "PhaseEncodingDirection": "j",
  "PhaseEncodingSteps": 104,
  "PhaseResolution": 1,
  "PixelBandwidth": 2290,
  "ProcedureStepDescription": "video_friends",
  "ProtocolName": "func_task-friends-s02e20a",
  "PulseSequenceDetails": "%CustomerSeq%_cmrr_mbep2d_bold",
  "ReceiveCoilActiveElements": "HC1-7;NC1,2",
  "ReceiveCoilName": "HeadNeck_64",
  "ReconMatrixPE": 104,
  "RepetitionTime": 1.49,
  "SAR": 0.0308493,
  "ScanOptions": "FS",
  "ScanningSequence": "EP",
  "SequenceName": "epfid2d1_104",
  "SequenceVariant": "SK_SS",
  "SeriesDescription": "func_task-friends-s02e20a",
  "SeriesNumber": 13,
  "ShimSetting": [620, -7216, -8779, 729, -5, -12, 17, 12],
  "SliceThickness": 2,
  "SliceTiming": [0, 0.7825, 0.0975, 0.8825, 0.195, 0.98, 0.2925, 1.0775, 0.3925, 1.175, 0.49, 1.2725, 0.5875, 1.3725, 0.685, 0, 0.7825, 0.0975, 0.8825, 0.195, 0.98, 0.2925, 1.0775, 0.3925, 1.175, 0.49, 1.2725, 0.5875, 1.3725, 0.685, 0, 0.7825, 0.0975, 0.8825, 0.195, 0.98, 0.2925, 1.0775, 0.3925, 1.175, 0.49, 1.2725, 0.5875, 1.3725, 0.685, 0, 0.7825, 0.0975, 0.8825, 0.195, 0.98, 0.2925, 1.0775, 0.3925, 1.175, 0.49, 1.2725, 0.5875, 1.3725, 0.685],
  "SoftwareVersions": "syngo_MR_E11",
  "SpacingBetweenSlices": 2,
  "StationName": "MRC35049",
  "TaskName": "friendsS02E20A",
  "TotalReadoutTime": 0.0576811,
  "TxRefAmp": 206.895,
  "WipMemBlock": "a201f645-8b24-4336-9eb8-9b9b3ac53048||Sequence: R016 ve11c/master r/e634e98; Dec 19 2017 11:00:25 by eja",
  "dcmmeta_affine": [
    [-1.9994083642959595, 0.047817111015319824, -0.008932946249842644, 102.89154052734375],
    [0.04840419068932533, 1.9192512035369873, -0.5604746341705322, -84.01432037353516],
    [0.004827854689210653, 0.5605250000953674, 1.9198408126831055, -57.529754638671875],
    [0.0, 0.0, 0.0, 1.0]
],
  "dcmmeta_reorient_transform": [
    [0.0, -1.0, 0.0, 103.0],
    [1.0, 0.0, 0.0, 0.0],
    [0.0, 0.0, 1.0, 0.0],
    [0.0, 0.0, 0.0, 1.0]
],
  "dcmmeta_shape": [104, 104, 60, 449],
  "dcmmeta_slice_dim": 2,
  "dcmmeta_version": 0.6,
  "global": {
    "const": {
      "AcquisitionMatrix": [104, 0, 0, 104],
      "AngioFlag": "N",
      "BitsAllocated": 16,
      "BitsStored": 16,
      "BodyPartExamined": "BRAIN",
      "Columns": 832,
      "EchoNumbers": 1,
      "EchoTime": 37.0,
      "EchoTrainLength": 104,
      "FlipAngle": 52.0,
      "HighBit": 15,
      "ImageOrientationPatient": [0.99970417202527, -0.0242020947524, 0.00241392726878, 0.02390855605987, 0.95962561038212, -0.2802624998923],
      "ImagePositionPatient": [-853.00677266174, -794.65687504425, 202.47808165189],
      "ImageType": [
        "ORIGINAL",
        "PRIMARY",
        "M",
        "MB",
        "ND",
        "MOSAIC"
],
      "ImagedNucleus": "1H",
      "ImagingFrequency": 123.259388,
      "InPlanePhaseEncodingDirection": "COL",
      "MRAcquisitionType": "2D",
      "MagneticFieldStrength": 3.0,
      "Manufacturer": "SIEMENS",
      "ManufacturerModelName": "Prisma_fit",
      "Modality": "MR",
      "NumberOfAverages": 1.0,
      "NumberOfPhaseEncodingSteps": 104,
      "PercentPhaseFieldOfView": 100.0,
      "PercentSampling": 100.0,
      "PerformedProcedureStepStartTime": "180424.190000",
      "PhotometricInterpretation": "MONOCHROME2",
      "PixelBandwidth": 2290.0,
      "PixelRepresentation": 0,
      "PixelSpacing": [2.0, 2.0],
      "ProtocolName": "func_task-friends-s02e20a",
      "RepetitionTime": 1490.0,
      "Rows": 832,
      "SAR": 0.03084934233378,
      "SamplesPerPixel": 1,
      "ScanOptions": "FS",
      "ScanningSequence": "EP",
      "SequenceName": "epfid2d1_104",
      "SequenceVariant": [
        "SK",
        "SS"
],
      "SeriesDescription": "func_task-friends-s02e20a",
      "SeriesNumber": 13,
      "SeriesTime": "183317.312000",
      "SliceLocation": -32.139598326107,
      "SliceThickness": 2.0,
      "SmallestImagePixelValue": 0,
      "SoftwareVersions": "syngo MR E11",
      "SpacingBetweenSlices": 2.0000000397526,
      "SpecificCharacterSet": "ISO_IR 100",
      "StudyID": "1",
      "StudyTime": "180424.073000",
      "TransmitCoilName": "Body",
      "VariableFlipAngleFlag": "N",
      "WindowCenterWidthExplanation": "Algo1",
      "dBdt": 0.0},
    "slices": {}
  },
  "time": {
    "samples": {
      "AcquisitionNumber": [1, 2, 3, 4, 5, 6, 7, 8, 9, 10, 11, 12, 13, 14, 15, 16, 17, 18, 19, 20, 21, 22, 23, 24, 25, 26, 27, 28, 29, 30, 31, 32, 33, 34, 35, 36, 37, 38, 39, 40, 41, 42, 43, 44, 45, 46, 47, 48, 49, 50, 51, 52, 53, 54, 55, 56, 57, 58, 59, 60, 61, 62, 63, 64, 65, 66, 67, 68, 69, 70, 71, 72, 73, 74, 75, 76, 77, 78, 79, 80, 81, 82, 83, 84, 85, 86, 87, 88, 89, 90, 91, 92, 93, 94, 95, 96, 97, 98, 99, 100, 101, 102, 103, 104, 105, 106, 107, 108, 109, 110, 111, 112, 113, 114, 115, 116, 117, 118, 119, 120, 121, 122, 123, 124, 125, 126, 127, 128, 129, 130, 131, 132, 133, 134, 135, 136, 137, 138, 139, 140, 141, 142, 143, 144, 145, 146, 147, 148, 149, 150, 151, 152, 153, 154, 155, 156, 157, 158, 159, 160, 161, 162, 163, 164, 165, 166, 167, 168, 169, 170, 171, 172, 173, 174, 175, 176, 177, 178, 179, 180, 181, 182, 183, 184, 185, 186, 187, 188, 189, 190, 191, 192, 193, 194, 195, 196, 197, 198, 199, 200, 201, 202, 203, 204, 205, 206, 207, 208, 209, 210, 211, 212, 213, 214, 215, 216, 217, 218, 219, 220, 221, 222, 223, 224, 225, 226, 227, 228, 229, 230, 231, 232, 233, 234, 235, 236, 237, 238, 239, 240, 241, 242, 243, 244, 245, 246, 247, 248, 249, 250, 251, 252, 253, 254, 255, 256, 257, 258, 259, 260, 261, 262, 263, 264, 265, 266, 267, 268, 269, 270, 271, 272, 273, 274, 275, 276, 277, 278, 279, 280, 281, 282, 283, 284, 285, 286, 287, 288, 289, 290, 291, 292, 293, 294, 295, 296, 297, 298, 299, 300, 301, 302, 303, 304, 305, 306, 307, 308, 309, 310, 311, 312, 313, 314, 315, 316, 317, 318, 319, 320, 321, 322, 323, 324, 325, 326, 327, 328, 329, 330, 331, 332, 333, 334, 335, 336, 337, 338, 339, 340, 341, 342, 343, 344, 345, 346, 347, 348, 349, 350, 351, 352, 353, 354, 355, 356, 357, 358, 359, 360, 361, 362, 363, 364, 365, 366, 367, 368, 369, 370, 371, 372, 373, 374, 375, 376, 377, 378, 379, 380, 381, 382, 383, 384, 385, 386, 387, 388, 389, 390, 391, 392, 393, 394, 395, 396, 397, 398, 399, 400, 401, 402, 403, 404, 405, 406, 407, 408, 409, 410, 411, 412, 413, 414, 415, 416, 417, 418, 419, 420, 421, 422, 423, 424, 425, 426, 427, 428, 429, 430, 431, 432, 433, 434, 435, 436, 437, 438, 439, 440, 441, 442, 443, 444, 445, 446, 447, 448, 449],
      "AcquisitionTime": ["183202.195000", "183203.685000", "183205.175000", "183206.665000", "183208.155000", "183209.645000", "183211.135000", "183212.625000", "183214.115000", "183215.605000", "183217.095000", "183218.585000", "183220.075000", "183221.565000", "183223.055000", "183224.545000", "183226.035000", "183227.525000", "183229.015000", "183230.505000", "183231.995000", "183233.485000", "183234.975000", "183236.465000", "183237.955000", "183239.445000", "183240.935000", "183242.425000", "183243.915000", "183245.405000", "183246.895000", "183248.385000", "183249.875000", "183251.365000", "183252.855000", "183254.345000", "183255.835000", "183257.325000", "183258.815000", "183300.305000", "183301.795000", "183303.285000", "183304.775000", "183306.265000", "183307.755000", "183309.245000", "183310.735000", "183312.225000", "183313.715000", "183315.205000", "183316.695000", "183318.185000", "183319.675000", "183321.165000", "183322.655000", "183324.145000", "183325.635000", "183327.125000", "183328.615000", "183330.105000", "183331.595000", "183333.085000", "183334.575000", "183336.065000", "183337.555000", "183339.045000", "183340.535000", "183342.025000", "183343.515000", "183345.005000", "183346.495000", "183347.985000", "183349.475000", "183350.965000", "183352.455000", "183353.945000", "183355.435000", "183356.925000", "183358.415000", "183359.905000", "183401.395000", "183402.885000", "183404.375000", "183405.865000", "183407.355000", "183408.845000", "183410.335000", "183411.825000", "183413.315000", "183414.805000", "183416.295000", "183417.785000", "183419.275000", "183420.765000", "183422.255000", "183423.745000", "183425.235000", "183426.725000", "183428.215000", "183429.705000", "183431.195000", "183432.685000", "183434.175000", "183435.665000", "183437.155000", "183438.645000", "183440.135000", "183441.625000", "183443.115000", "183444.605000", "183446.095000", "183447.585000", "183449.075000", "183450.565000", "183452.055000", "183453.545000", "183455.035000", "183456.525000", "183458.015000", "183459.505000", "183500.995000", "183502.485000", "183503.975000", "183505.465000", "183506.955000", "183508.445000", "183509.935000", "183511.425000", "183512.915000", "183514.405000", "183515.895000", "183517.385000", "183518.875000", "183520.365000", "183521.855000", "183523.345000", "183524.835000", "183526.325000", "183527.815000", "183529.305000", "183530.795000", "183532.285000", "183533.775000", "183535.265000", "183536.755000", "183538.245000", "183539.735000", "183541.225000", "183542.715000", "183544.205000", "183545.695000", "183547.185000", "183548.675000", "183550.165000", "183551.655000", "183553.145000", "183554.635000", "183556.125000", "183557.615000", "183559.105000", "183600.595000", "183602.085000", "183603.575000", "183605.065000", "183606.555000", "183608.045000", "183609.535000", "183611.025000", "183612.515000", "183614.005000", "183615.495000", "183616.985000", "183618.475000", "183619.965000", "183621.455000", "183622.945000", "183624.435000", "183625.925000", "183627.415000", "183628.905000", "183630.395000", "183631.885000", "183633.375000", "183634.865000", "183636.355000", "183637.845000", "183639.335000", "183640.825000", "183642.315000", "183643.805000", "183645.295000", "183646.785000", "183648.275000", "183649.765000", "183651.255000", "183652.745000", "183654.235000", "183655.725000", "183657.215000", "183658.705000", "183700.195000", "183701.685000", "183703.175000", "183704.665000", "183706.155000", "183707.645000", "183709.135000", "183710.625000", "183712.115000", "183713.605000", "183715.095000", "183716.585000", "183718.075000", "183719.565000", "183721.055000", "183722.545000", "183724.035000", "183725.525000", "183727.015000", "183728.505000", "183729.995000", "183731.485000", "183732.975000", "183734.465000", "183735.955000", "183737.445000", "183738.935000", "183740.425000", "183741.915000", "183743.405000", "183744.895000", "183746.385000", "183747.875000", "183749.365000", "183750.855000", "183752.345000", "183753.835000", "183755.325000", "183756.815000", "183758.305000", "183759.795000", "183801.285000", "183802.775000", "183804.265000", "183805.755000", "183807.245000", "183808.735000", "183810.225000", "183811.715000", "183813.205000", "183814.695000", "183816.185000", "183817.675000", "183819.165000", "183820.655000", "183822.145000", "183823.635000", "183825.125000", "183826.615000", "183828.105000", "183829.595000", "183831.085000", "183832.575000", "183834.065000", "183835.555000", "183837.045000", "183838.535000", "183840.025000", "183841.515000", "183843.005000", "183844.495000", "183845.985000", "183847.475000", "183848.965000", "183850.455000", "183851.945000", "183853.435000", "183854.925000", "183856.415000", "183857.905000", "183859.395000", "183900.885000", "183902.375000", "183903.865000", "183905.355000", "183906.845000", "183908.335000", "183909.825000", "183911.315000", "183912.805000", "183914.295000", "183915.785000", "183917.275000", "183918.765000", "183920.255000", "183921.745000", "183923.235000", "183924.725000", "183926.215000", "183927.705000", "183929.195000", "183930.685000", "183932.175000", "183933.665000", "183935.155000", "183936.645000", "183938.135000", "183939.625000", "183941.115000", "183942.605000", "183944.095000", "183945.585000", "183947.075000", "183948.565000", "183950.055000", "183951.545000", "183953.035000", "183954.525000", "183956.015000", "183957.505000", "183958.995000", "184000.485000", "184001.975000", "184003.465000", "184004.955000", "184006.445000", "184007.935000", "184009.425000", "184010.915000", "184012.405000", "184013.895000", "184015.385000", "184016.875000", "184018.365000", "184019.855000", "184021.345000", "184022.835000", "184024.325000", "184025.815000", "184027.305000", "184028.795000", "184030.285000", "184031.775000", "184033.265000", "184034.755000", "184036.245000", "184037.735000", "184039.225000", "184040.715000", "184042.205000", "184043.695000", "184045.185000", "184046.675000", "184048.165000", "184049.655000", "184051.145000", "184052.635000", "184054.125000", "184055.615000", "184057.105000", "184058.595000", "184100.085000", "184101.575000", "184103.065000", "184104.555000", "184106.045000", "184107.535000", "184109.025000", "184110.515000", "184112.005000", "184113.495000", "184114.985000", "184116.475000", "184117.965000", "184119.455000", "184120.945000", "184122.435000", "184123.925000", "184125.415000", "184126.905000", "184128.395000", "184129.885000", "184131.375000", "184132.865000", "184134.355000", "184135.845000", "184137.335000", "184138.825000", "184140.315000", "184141.805000", "184143.295000", "184144.785000", "184146.275000", "184147.765000", "184149.255000", "184150.745000", "184152.235000", "184153.725000", "184155.215000", "184156.705000", "184158.195000", "184159.685000", "184201.175000", "184202.665000", "184204.155000", "184205.645000", "184207.135000", "184208.625000", "184210.115000", "184211.605000", "184213.095000", "184214.585000", "184216.075000", "184217.565000", "184219.055000", "184220.545000", "184222.035000", "184223.525000", "184225.015000", "184226.505000", "184227.995000", "184229.485000", "184230.975000", "184232.465000", "184233.955000", "184235.445000", "184236.935000", "184238.425000", "184239.915000", "184241.405000", "184242.895000", "184244.385000", "184245.875000", "184247.365000", "184248.855000", "184250.345000", "184251.835000", "184253.325000", "184254.815000", "184256.305000", "184257.795000", "184259.285000", "184300.775000", "184302.265000", "184303.755000", "184305.245000", "184306.735000", "184308.225000", "184309.715000"],
      "ContentTime": ["183317.315000", "183317.318000", "183317.321000", "183317.324000", "183317.327000", "183317.330000", "183317.333000", "183317.335000", "183317.338000", "183317.342000", "183317.344000", "183317.347000", "183317.354000", "183317.377000", "183317.380000", "183317.383000", "183317.386000", "183317.389000", "183317.391000", "183317.394000", "183317.397000", "183317.400000", "183337.271000", "183337.274000", "183337.277000", "183337.279000", "183337.282000", "183337.285000", "183337.288000", "183337.291000", "183337.294000", "183337.297000", "183337.299000", "183337.302000", "183337.305000", "183337.308000", "183337.311000", "183337.314000", "183337.317000", "183337.320000", "183337.323000", "183337.326000", "183337.328000", "183357.272000", "183357.275000", "183357.278000", "183357.281000", "183357.284000", "183357.286000", "183357.289000", "183357.292000", "183357.295000", "183357.298000", "183357.301000", "183357.304000", "183357.307000", "183357.309000", "183357.312000", "183357.315000", "183357.318000", "183357.321000", "183357.324000", "183357.327000", "183417.272000", "183417.275000", "183417.278000", "183417.281000", "183417.284000", "183417.286000", "183417.289000", "183417.292000", "183417.295000", "183417.298000", "183417.301000", "183417.303000", "183417.306000", "183417.309000", "183417.312000", "183417.315000", "183417.318000", "183417.321000", "183417.323000", "183417.326000", "183437.271000", "183437.274000", "183437.277000", "183437.280000", "183437.283000", "183437.286000", "183437.288000", "183437.291000", "183437.294000", "183437.297000", "183437.300000", "183437.303000", "183437.306000", "183437.309000", "183437.312000", "183437.314000", "183437.317000", "183437.320000", "183437.323000", "183437.326000", "183517.271000", "183517.274000", "183517.277000", "183517.280000", "183517.283000", "183517.285000", "183517.288000", "183517.291000", "183517.294000", "183517.297000", "183517.300000", "183517.303000", "183517.306000", "183517.308000", "183517.311000", "183517.314000", "183517.317000", "183517.320000", "183517.323000", "183517.326000", "183517.328000", "183517.331000", "183517.334000", "183517.337000", "183517.340000", "183517.343000", "183517.346000", "183557.271000", "183557.274000", "183557.277000", "183557.280000", "183557.283000", "183557.285000", "183557.288000", "183557.291000", "183557.294000", "183557.297000", "183557.300000", "183557.303000", "183557.306000", "183557.309000", "183557.311000", "183557.314000", "183557.317000", "183557.320000", "183557.323000", "183557.326000", "183557.329000", "183557.332000", "183557.334000", "183557.337000", "183557.340000", "183557.343000", "183557.346000", "183637.272000", "183637.275000", "183637.278000", "183637.281000", "183637.284000", "183637.287000", "183637.289000", "183637.292000", "183637.295000", "183637.298000", "183637.301000", "183637.313000", "183637.315000", "183637.318000", "183637.321000", "183637.324000", "183637.327000", "183637.330000", "183637.333000", "183637.336000", "183637.339000", "183637.341000", "183637.344000", "183637.347000", "183637.350000", "183637.353000", "183637.356000", "183717.271000", "183717.274000", "183717.277000", "183717.294000", "183717.297000", "183717.300000", "183717.303000", "183717.306000", "183717.309000", "183717.311000", "183717.314000", "183717.317000", "183717.320000", "183717.323000", "183717.326000", "183717.329000", "183717.332000", "183717.335000", "183717.338000", "183717.340000", "183717.343000", "183717.346000", "183717.349000", "183717.352000", "183717.355000", "183717.358000", "183717.360000", "183757.271000", "183757.274000", "183757.277000", "183757.280000", "183757.283000", "183757.286000", "183757.288000", "183757.291000", "183757.294000", "183757.297000", "183757.300000", "183757.303000", "183757.306000", "183757.308000", "183757.311000", "183757.314000", "183757.317000", "183757.320000", "183757.323000", "183757.326000", "183757.329000", "183757.332000", "183757.335000", "183757.337000", "183757.340000", "183757.343000", "183757.346000", "183837.272000", "183837.275000", "183837.278000", "183837.281000", "183837.284000", "183837.287000", "183837.290000", "183837.292000", "183837.296000", "183837.298000", "183837.301000", "183837.304000", "183837.307000", "183837.310000", "183837.313000", "183837.316000", "183837.319000", "183837.322000", "183837.325000", "183837.327000", "183837.330000", "183837.333000", "183837.336000", "183837.339000", "183837.342000", "183837.345000", "183917.271000", "183917.274000", "183917.277000", "183917.280000", "183917.283000", "183917.286000", "183917.288000", "183917.291000", "183917.294000", "183917.297000", "183917.300000", "183917.303000", "183917.306000", "183917.309000", "183917.311000", "183917.314000", "183917.317000", "183917.320000", "183917.323000", "183917.326000", "183917.329000", "183917.332000", "183917.335000", "183917.337000", "183917.340000", "183917.343000", "183917.346000", "183937.271000", "183937.274000", "183937.277000", "183937.280000", "183937.283000", "183937.286000", "183937.289000", "183937.291000", "183937.294000", "183937.297000", "183937.300000", "183937.303000", "183937.306000", "183937.309000", "184017.271000", "184017.274000", "184017.277000", "184017.280000", "184017.283000", "184017.285000", "184017.288000", "184017.291000", "184017.294000", "184017.297000", "184017.300000", "184017.303000", "184017.306000", "184017.309000", "184017.311000", "184017.314000", "184017.317000", "184017.320000", "184017.323000", "184017.326000", "184017.329000", "184017.332000", "184017.335000", "184017.338000", "184017.340000", "184017.343000", "184017.346000", "184057.272000", "184057.275000", "184057.278000", "184057.281000", "184057.284000", "184057.286000", "184057.289000", "184057.292000", "184057.295000", "184057.299000", "184057.302000", "184057.305000", "184057.308000", "184057.311000", "184057.314000", "184057.316000", "184057.319000", "184057.322000", "184057.325000", "184057.328000", "184057.331000", "184057.334000", "184057.337000", "184057.340000", "184057.342000", "184057.345000", "184137.271000", "184137.274000", "184137.277000", "184137.280000", "184137.283000", "184137.285000", "184137.288000", "184137.291000", "184137.294000", "184137.297000", "184137.300000", "184137.303000", "184137.306000", "184137.308000", "184137.311000", "184137.314000", "184137.317000", "184137.329000", "184137.332000", "184137.335000", "184137.338000", "184137.341000", "184137.343000", "184137.346000", "184137.349000", "184137.352000", "184137.355000", "184217.271000", "184217.274000", "184217.277000", "184217.280000", "184217.283000", "184217.286000", "184217.288000", "184217.291000", "184217.294000", "184217.297000", "184217.300000", "184217.303000", "184217.306000", "184217.309000", "184217.311000", "184217.314000", "184217.317000", "184217.320000", "184217.323000", "184217.326000", "184217.329000", "184217.332000", "184217.335000", "184217.338000", "184217.341000", "184217.343000", "184217.346000", "184257.271000", "184257.274000", "184257.277000", "184257.280000", "184257.283000", "184257.286000", "184257.289000", "184257.292000", "184257.294000", "184257.297000", "184257.300000", "184257.303000", "184257.306000", "184257.309000", "184257.312000", "184257.315000", "184257.317000", "184257.320000", "184257.323000", "184257.326000", "184257.329000", "184257.332000", "184257.335000", "184257.338000", "184257.340000", "184257.343000", "184257.346000", "184311.587000", "184311.590000", "184311.593000", "184311.596000", "184311.599000", "184311.602000", "184311.605000", "184311.608000", "184311.611000", "184311.613000"],
