{
  "AcquisitionMatrixPE": 104,
  "AcquisitionNumber": 1,
  "AcquisitionTime": "18:07:20.705000",
  "BandwidthPerPixelPhaseEncode": 17.17,
  "BaseResolution": 104,
  "BodyPartExamined": "BRAIN",
  "CoilString": "HC1-7;NC1_2",
  "ConsistencyInfo": "N4_VE11C_LATEST_20160120",
  "ConversionSoftware": "dcm2niix",
  "ConversionSoftwareVersion": "v1.0.20190902",
  "DerivedVendorReportedEchoSpacing": 0.000560011,
  "DeviceSerialNumber": "167006",
  "DwellTime": 2.1e-06,
  "EchoTime": 0.037,
  "EchoTrainLength": 104,
  "EffectiveEchoSpacing": 0.000560011,
  "FlipAngle": 52,
  "ImageComments": "Unaliased_MB4_PE3_LB",
  "ImageOrientationPatientDICOM": [0.999704, -0.0242021, 0.00241393, 0.0239086, 0.959626, -0.280263],
  "ImageType": [
    "ORIGINAL",
    "PRIMARY",
    "M",
    "MB",
    "ND",
    "MOSAIC"
],
  "ImagingFrequency": 123.259,
  "InPlanePhaseEncodingDirectionDICOM": "COL",
  "InstitutionAddress": "Chemin_Queen-Mary_4565_Montreal_District_CA_H3W_1W5",
  "InstitutionName": "IUGM",
  "InstitutionalDepartmentName": "Department",
  "MRAcquisitionType": "2D",
  "MagneticFieldStrength": 3,
  "Manufacturer": "Siemens",
  "ManufacturersModelName": "Prisma_fit",
  "Modality": "MR",
  "MultibandAccelerationFactor": 4,
  "PartialFourier": 1,
  "PatientPosition": "HFS",
  "PercentPhaseFOV": 100,
  "PhaseEncodingDirection": "j",
  "PhaseEncodingSteps": 104,
  "PhaseResolution": 1,
  "PixelBandwidth": 2290,
  "ProcedureStepDescription": "video_friends",
  "ProtocolName": "func_task-friends-s02e19a",
  "PulseSequenceDetails": "%CustomerSeq%_cmrr_mbep2d_bold",
  "ReceiveCoilActiveElements": "HC1-7;NC1,2",
  "ReceiveCoilName": "HeadNeck_64",
  "ReconMatrixPE": 104,
  "RepetitionTime": 1.49,
  "SAR": 0.0308576,
  "ScanOptions": "FS",
  "ScanningSequence": "EP",
  "SequenceName": "epfid2d1_104",
  "SequenceVariant": "SK_SS",
  "SeriesDescription": "func_task-friends-s02e19a",
  "SeriesNumber": 9,
  "ShimSetting": [620, -7216, -8779, 729, -5, -12, 17, 12],
  "SliceThickness": 2,
  "SliceTiming": [0, 0.785, 0.0975, 0.8825, 0.1975, 0.98, 0.295, 1.0775, 0.3925, 1.1775, 0.49, 1.275, 0.5875, 1.3725, 0.6875, 0, 0.785, 0.0975, 0.8825, 0.1975, 0.98, 0.295, 1.0775, 0.3925, 1.1775, 0.49, 1.275, 0.5875, 1.3725, 0.6875, 0, 0.785, 0.0975, 0.8825, 0.1975, 0.98, 0.295, 1.0775, 0.3925, 1.1775, 0.49, 1.275, 0.5875, 1.3725, 0.6875, 0, 0.785, 0.0975, 0.8825, 0.1975, 0.98, 0.295, 1.0775, 0.3925, 1.1775, 0.49, 1.275, 0.5875, 1.3725, 0.6875],
  "SoftwareVersions": "syngo_MR_E11",
  "SpacingBetweenSlices": 2,
  "StationName": "MRC35049",
  "TaskName": "friendsS02E19A",
  "TotalReadoutTime": 0.0576811,
  "TxRefAmp": 206.895,
  "WipMemBlock": "fba0d290-817b-4013-ace3-d0e4a3bb2eba||Sequence: R016 ve11c/master r/e634e98; Dec 19 2017 11:00:25 by eja",
  "dcmmeta_affine": [
    [-1.9994083642959595, 0.047817111015319824, -0.008932946249842644, 102.89154052734375],
    [0.04840419068932533, 1.9192512035369873, -0.5604746341705322, -84.01432037353516],
    [0.004827854689210653, 0.5605250000953674, 1.9198408126831055, -57.529754638671875],
    [0.0, 0.0, 0.0, 1.0]
],
  "dcmmeta_reorient_transform": [
    [0.0, -1.0, 0.0, 103.0],
    [1.0, 0.0, 0.0, 0.0],
    [0.0, 0.0, 1.0, 0.0],
    [0.0, 0.0, 0.0, 1.0]
],
  "dcmmeta_shape": [104, 104, 60, 478],
  "dcmmeta_slice_dim": 2,
  "dcmmeta_version": 0.6,
  "global": {
    "const": {
      "AcquisitionMatrix": [104, 0, 0, 104],
      "AngioFlag": "N",
      "BitsAllocated": 16,
      "BitsStored": 16,
      "BodyPartExamined": "BRAIN",
      "Columns": 832,
      "EchoNumbers": 1,
      "EchoTime": 37.0,
      "EchoTrainLength": 104,
      "FlipAngle": 52.0,
      "HighBit": 15,
      "ImageOrientationPatient": [0.99970417202527, -0.0242020947524, 0.00241392726878, 0.02390855605987, 0.95962561038212, -0.2802624998923],
      "ImagePositionPatient": [-853.00677266174, -794.65687504425, 202.47808165189],
      "ImageType": [
        "ORIGINAL",
        "PRIMARY",
        "M",
        "MB",
        "ND",
        "MOSAIC"
],
      "ImagedNucleus": "1H",
      "ImagingFrequency": 123.259374,
      "InPlanePhaseEncodingDirection": "COL",
      "MRAcquisitionType": "2D",
      "MagneticFieldStrength": 3.0,
      "Manufacturer": "SIEMENS",
      "ManufacturerModelName": "Prisma_fit",
      "Modality": "MR",
      "NumberOfAverages": 1.0,
      "NumberOfPhaseEncodingSteps": 104,
      "PercentPhaseFieldOfView": 100.0,
      "PercentSampling": 100.0,
      "PerformedProcedureStepStartTime": "180424.190000",
      "PhotometricInterpretation": "MONOCHROME2",
      "PixelBandwidth": 2290.0,
      "PixelRepresentation": 0,
      "PixelSpacing": [2.0, 2.0],
      "ProtocolName": "func_task-friends-s02e19a",
      "RepetitionTime": 1490.0,
      "Rows": 832,
      "SAR": 0.03085757483301,
      "SamplesPerPixel": 1,
      "ScanOptions": "FS",
      "ScanningSequence": "EP",
      "SequenceName": "epfid2d1_104",
      "SequenceVariant": [
        "SK",
        "SS"
],
      "SeriesDescription": "func_task-friends-s02e19a",
      "SeriesNumber": 9,
      "SeriesTime": "180854.954000",
      "SliceLocation": -32.139598326107,
      "SliceThickness": 2.0,
      "SmallestImagePixelValue": 0,
      "SoftwareVersions": "syngo MR E11",
      "SpacingBetweenSlices": 2.0000000397526,
      "SpecificCharacterSet": "ISO_IR 100",
      "StudyID": "1",
      "StudyTime": "180424.073000",
      "TransmitCoilName": "Body",
      "VariableFlipAngleFlag": "N",
      "WindowCenterWidthExplanation": "Algo1",
      "dBdt": 0.0},
    "slices": {}
  },
  "time": {
    "samples": {
      "AcquisitionNumber": [1, 2, 3, 4, 5, 6, 7, 8, 9, 10, 11, 12, 13, 14, 15, 16, 17, 18, 19, 20, 21, 22, 23, 24, 25, 26, 27, 28, 29, 30, 31, 32, 33, 34, 35, 36, 37, 38, 39, 40, 41, 42, 43, 44, 45, 46, 47, 48, 49, 50, 51, 52, 53, 54, 55, 56, 57, 58, 59, 60, 61, 62, 63, 64, 65, 66, 67, 68, 69, 70, 71, 72, 73, 74, 75, 76, 77, 78, 79, 80, 81, 82, 83, 84, 85, 86, 87, 88, 89, 90, 91, 92, 93, 94, 95, 96, 97, 98, 99, 100, 101, 102, 103, 104, 105, 106, 107, 108, 109, 110, 111, 112, 113, 114, 115, 116, 117, 118, 119, 120, 121, 122, 123, 124, 125, 126, 127, 128, 129, 130, 131, 132, 133, 134, 135, 136, 137, 138, 139, 140, 141, 142, 143, 144, 145, 146, 147, 148, 149, 150, 151, 152, 153, 154, 155, 156, 157, 158, 159, 160, 161, 162, 163, 164, 165, 166, 167, 168, 169, 170, 171, 172, 173, 174, 175, 176, 177, 178, 179, 180, 181, 182, 183, 184, 185, 186, 187, 188, 189, 190, 191, 192, 193, 194, 195, 196, 197, 198, 199, 200, 201, 202, 203, 204, 205, 206, 207, 208, 209, 210, 211, 212, 213, 214, 215, 216, 217, 218, 219, 220, 221, 222, 223, 224, 225, 226, 227, 228, 229, 230, 231, 232, 233, 234, 235, 236, 237, 238, 239, 240, 241, 242, 243, 244, 245, 246, 247, 248, 249, 250, 251, 252, 253, 254, 255, 256, 257, 258, 259, 260, 261, 262, 263, 264, 265, 266, 267, 268, 269, 270, 271, 272, 273, 274, 275, 276, 277, 278, 279, 280, 281, 282, 283, 284, 285, 286, 287, 288, 289, 290, 291, 292, 293, 294, 295, 296, 297, 298, 299, 300, 301, 302, 303, 304, 305, 306, 307, 308, 309, 310, 311, 312, 313, 314, 315, 316, 317, 318, 319, 320, 321, 322, 323, 324, 325, 326, 327, 328, 329, 330, 331, 332, 333, 334, 335, 336, 337, 338, 339, 340, 341, 342, 343, 344, 345, 346, 347, 348, 349, 350, 351, 352, 353, 354, 355, 356, 357, 358, 359, 360, 361, 362, 363, 364, 365, 366, 367, 368, 369, 370, 371, 372, 373, 374, 375, 376, 377, 378, 379, 380, 381, 382, 383, 384, 385, 386, 387, 388, 389, 390, 391, 392, 393, 394, 395, 396, 397, 398, 399, 400, 401, 402, 403, 404, 405, 406, 407, 408, 409, 410, 411, 412, 413, 414, 415, 416, 417, 418, 419, 420, 421, 422, 423, 424, 425, 426, 427, 428, 429, 430, 431, 432, 433, 434, 435, 436, 437, 438, 439, 440, 441, 442, 443, 444, 445, 446, 447, 448, 449, 450, 451, 452, 453, 454, 455, 456, 457, 458, 459, 460, 461, 462, 463, 464, 465, 466, 467, 468, 469, 470, 471, 472, 473, 474, 475, 476, 477, 478],
      "AcquisitionTime": ["180720.705000", "180722.195000", "180723.685000", "180725.175000", "180726.665000", "180728.155000", "180729.645000", "180731.135000", "180732.625000", "180734.115000", "180735.605000", "180737.095000", "180738.585000", "180740.075000", "180741.565000", "180743.055000", "180744.545000", "180746.035000", "180747.525000", "180749.015000", "180750.505000", "180751.995000", "180753.485000", "180754.975000", "180756.465000", "180757.955000", "180759.445000", "180800.935000", "180802.425000", "180803.915000", "180805.405000", "180806.895000", "180808.385000", "180809.875000", "180811.365000", "180812.855000", "180814.345000", "180815.835000", "180817.325000", "180818.815000", "180820.305000", "180821.795000", "180823.285000", "180824.775000", "180826.265000", "180827.755000", "180829.245000", "180830.735000", "180832.225000", "180833.715000", "180835.205000", "180836.695000", "180838.185000", "180839.675000", "180841.165000", "180842.655000", "180844.145000", "180845.635000", "180847.125000", "180848.615000", "180850.105000", "180851.595000", "180853.085000", "180854.575000", "180856.065000", "180857.555000", "180859.045000", "180900.535000", "180902.025000", "180903.515000", "180905.005000", "180906.495000", "180907.985000", "180909.475000", "180910.965000", "180912.455000", "180913.945000", "180915.435000", "180916.925000", "180918.415000", "180919.905000", "180921.395000", "180922.885000", "180924.375000", "180925.865000", "180927.355000", "180928.845000", "180930.335000", "180931.825000", "180933.315000", "180934.805000", "180936.295000", "180937.785000", "180939.275000", "180940.765000", "180942.255000", "180943.745000", "180945.235000", "180946.725000", "180948.215000", "180949.705000", "180951.195000", "180952.685000", "180954.175000", "180955.665000", "180957.155000", "180958.645000", "181000.135000", "181001.625000", "181003.115000", "181004.605000", "181006.095000", "181007.585000", "181009.075000", "181010.565000", "181012.055000", "181013.545000", "181015.035000", "181016.525000", "181018.015000", "181019.505000", "181020.995000", "181022.485000", "181023.975000", "181025.465000", "181026.955000", "181028.445000", "181029.935000", "181031.425000", "181032.915000", "181034.405000", "181035.895000", "181037.385000", "181038.875000", "181040.365000", "181041.855000", "181043.345000", "181044.835000", "181046.325000", "181047.815000", "181049.305000", "181050.795000", "181052.285000", "181053.775000", "181055.265000", "181056.755000", "181058.245000", "181059.735000", "181101.225000", "181102.715000", "181104.205000", "181105.695000", "181107.185000", "181108.675000", "181110.165000", "181111.655000", "181113.145000", "181114.635000", "181116.125000", "181117.615000", "181119.105000", "181120.595000", "181122.085000", "181123.575000", "181125.065000", "181126.555000", "181128.045000", "181129.535000", "181131.025000", "181132.515000", "181134.005000", "181135.495000", "181136.985000", "181138.475000", "181139.965000", "181141.455000", "181142.945000", "181144.435000", "181145.925000", "181147.415000", "181148.905000", "181150.395000", "181151.885000", "181153.375000", "181154.865000", "181156.355000", "181157.845000", "181159.335000", "181200.825000", "181202.315000", "181203.805000", "181205.295000", "181206.785000", "181208.275000", "181209.765000", "181211.255000", "181212.745000", "181214.235000", "181215.725000", "181217.215000", "181218.705000", "181220.195000", "181221.685000", "181223.175000", "181224.665000", "181226.155000", "181227.645000", "181229.135000", "181230.625000", "181232.115000", "181233.605000", "181235.095000", "181236.585000", "181238.075000", "181239.565000", "181241.055000", "181242.545000", "181244.035000", "181245.525000", "181247.015000", "181248.505000", "181249.995000", "181251.485000", "181252.975000", "181254.465000", "181255.955000", "181257.445000", "181258.935000", "181300.425000", "181301.915000", "181303.405000", "181304.895000", "181306.385000", "181307.875000", "181309.365000", "181310.855000", "181312.345000", "181313.835000", "181315.325000", "181316.815000", "181318.305000", "181319.795000", "181321.285000", "181322.775000", "181324.265000", "181325.755000", "181327.245000", "181328.735000", "181330.225000", "181331.715000", "181333.205000", "181334.695000", "181336.185000", "181337.675000", "181339.165000", "181340.655000", "181342.145000", "181343.635000", "181345.125000", "181346.615000", "181348.105000", "181349.595000", "181351.085000", "181352.575000", "181354.065000", "181355.555000", "181357.045000", "181358.535000", "181400.025000", "181401.515000", "181403.005000", "181404.495000", "181405.985000", "181407.475000", "181408.965000", "181410.455000", "181411.945000", "181413.435000", "181414.925000", "181416.415000", "181417.905000", "181419.395000", "181420.885000", "181422.375000", "181423.865000", "181425.355000", "181426.845000", "181428.335000", "181429.825000", "181431.315000", "181432.805000", "181434.295000", "181435.785000", "181437.275000", "181438.765000", "181440.255000", "181441.745000", "181443.235000", "181444.725000", "181446.215000", "181447.705000", "181449.195000", "181450.685000", "181452.175000", "181453.665000", "181455.155000", "181456.645000", "181458.135000", "181459.625000", "181501.115000", "181502.605000", "181504.095000", "181505.585000", "181507.075000", "181508.565000", "181510.055000", "181511.545000", "181513.035000", "181514.525000", "181516.015000", "181517.505000", "181518.995000", "181520.485000", "181521.975000", "181523.465000", "181524.955000", "181526.445000", "181527.935000", "181529.425000", "181530.915000", "181532.405000", "181533.895000", "181535.385000", "181536.875000", "181538.365000", "181539.855000", "181541.345000", "181542.835000", "181544.325000", "181545.815000", "181547.305000", "181548.795000", "181550.285000", "181551.775000", "181553.265000", "181554.755000", "181556.245000", "181557.735000", "181559.225000", "181600.715000", "181602.205000", "181603.695000", "181605.185000", "181606.675000", "181608.165000", "181609.655000", "181611.145000", "181612.635000", "181614.125000", "181615.615000", "181617.105000", "181618.595000", "181620.085000", "181621.575000", "181623.065000", "181624.555000", "181626.045000", "181627.535000", "181629.025000", "181630.515000", "181632.005000", "181633.495000", "181634.985000", "181636.475000", "181637.965000", "181639.455000", "181640.945000", "181642.435000", "181643.925000", "181645.415000", "181646.905000", "181648.395000", "181649.885000", "181651.375000", "181652.865000", "181654.355000", "181655.845000", "181657.335000", "181658.825000", "181700.315000", "181701.805000", "181703.295000", "181704.785000", "181706.275000", "181707.765000", "181709.255000", "181710.745000", "181712.235000", "181713.725000", "181715.215000", "181716.705000", "181718.195000", "181719.685000", "181721.175000", "181722.665000", "181724.155000", "181725.645000", "181727.135000", "181728.625000", "181730.115000", "181731.605000", "181733.095000", "181734.585000", "181736.075000", "181737.565000", "181739.055000", "181740.545000", "181742.035000", "181743.525000", "181745.015000", "181746.505000", "181747.995000", "181749.485000", "181750.975000", "181752.465000", "181753.955000", "181755.445000", "181756.935000", "181758.425000", "181759.915000", "181801.405000", "181802.895000", "181804.385000", "181805.875000", "181807.365000", "181808.855000", "181810.345000", "181811.835000", "181813.325000", "181814.815000", "181816.305000", "181817.795000", "181819.285000", "181820.775000", "181822.265000", "181823.755000", "181825.245000", "181826.735000", "181828.225000", "181829.715000", "181831.205000", "181832.695000", "181834.185000", "181835.675000", "181837.165000", "181838.655000", "181840.145000", "181841.635000", "181843.125000", "181844.615000", "181846.105000", "181847.595000", "181849.085000", "181850.575000", "181852.065000", "181853.555000", "181855.045000", "181856.535000", "181858.025000", "181859.515000", "181901.005000", "181902.495000", "181903.985000", "181905.475000", "181906.965000", "181908.455000", "181909.945000", "181911.435000"],
      "ContentTime": ["180854.957000", "180854.960000", "180854.963000", "180854.966000", "180854.969000", "180854.972000", "180854.975000", "180854.978000", "180854.981000", "180854.983000", "180854.986000", "180854.989000", "180854.992000", "180854.995000", "180854.998000", "180855.002000", "180855.014000", "180855.017000", "180855.020000", "180855.024000", "180855.026000", "180914.906000", "180914.909000", "180914.912000", "180914.915000", "180914.917000", "180914.920000", "180914.923000", "180914.926000", "180914.929000", "180914.932000", "180914.934000", "180914.937000", "180914.940000", "180914.943000", "180914.946000", "180914.949000", "180914.951000", "180914.954000", "180914.957000", "180914.960000", "180914.963000", "180934.906000", "180934.909000", "180934.912000", "180934.915000", "180934.918000", "180934.921000", "180934.924000", "180934.926000", "180934.929000", "180934.932000", "180934.940000", "180934.943000", "180934.946000", "180934.948000", "180934.951000", "180934.954000", "180934.957000", "180934.960000", "180934.963000", "180934.966000", "180954.906000", "180954.909000", "180954.912000", "180954.915000", "180954.917000", "180954.920000", "180954.923000", "180954.926000", "180954.929000", "180954.932000", "180954.935000", "180954.938000", "180954.941000", "180954.943000", "180954.946000", "180954.949000", "180954.952000", "180954.955000", "180954.958000", "180954.960000", "181014.906000", "181014.909000", "181014.912000", "181014.915000", "181014.918000", "181014.920000", "181014.923000", "181014.926000", "181014.929000", "181014.932000", "181014.935000", "181014.938000", "181014.940000", "181014.943000", "181014.946000", "181014.949000", "181014.952000", "181014.955000", "181014.958000", "181014.960000", "181034.905000", "181034.908000", "181034.911000", "181034.914000", "181034.916000", "181034.919000", "181034.922000", "181034.925000", "181034.928000", "181034.931000", "181034.934000", "181034.936000", "181034.939000", "181034.942000", "181034.947000", "181034.950000", "181034.953000", "181034.956000", "181034.958000", "181034.961000", "181054.906000", "181054.909000", "181054.912000", "181054.915000", "181054.918000", "181054.920000", "181054.925000", "181054.928000", "181054.931000", "181054.934000", "181054.937000", "181054.940000", "181054.943000", "181054.946000", "181054.949000", "181054.952000", "181054.955000", "181054.958000", "181054.961000", "181054.964000", "181134.906000", "181134.909000", "181134.912000", "181134.915000", "181134.923000", "181134.925000", "181134.928000", "181134.931000", "181134.934000", "181134.937000", "181134.940000", "181134.943000", "181134.945000", "181134.948000", "181134.951000", "181134.954000", "181134.957000", "181134.960000", "181134.963000", "181134.966000", "181134.968000", "181134.971000", "181134.974000", "181134.977000", "181134.980000", "181134.983000", "181134.986000", "181134.989000", "181214.906000", "181214.909000", "181214.912000", "181214.915000", "181214.918000", "181214.921000", "181214.924000", "181214.927000", "181214.930000", "181214.933000", "181214.935000", "181214.938000", "181214.941000", "181214.944000", "181214.947000", "181214.950000", "181214.952000", "181214.955000", "181214.958000", "181214.961000", "181214.964000", "181214.967000", "181214.970000", "181214.973000", "181214.975000", "181214.978000", "181254.905000", "181254.908000", "181254.911000", "181254.914000", "181254.929000", "181254.932000", "181254.935000", "181254.937000", "181254.940000", "181254.943000", "181254.946000", "181254.949000", "181254.952000", "181254.955000", "181254.957000", "181254.960000", "181254.963000", "181254.966000", "181254.969000", "181254.972000", "181254.975000", "181254.978000", "181254.981000", "181254.983000", "181254.986000", "181254.989000", "181254.992000", "181334.906000", "181334.909000", "181334.912000", "181334.915000", "181334.918000", "181334.921000", "181334.923000", "181334.926000", "181334.929000", "181334.932000", "181334.935000", "181334.938000", "181334.941000", "181334.943000", "181334.946000", "181334.949000", "181334.952000", "181334.955000", "181334.958000", "181334.961000", "181334.964000", "181334.967000", "181334.969000", "181334.972000", "181334.975000", "181334.978000", "181334.981000", "181414.906000", "181414.909000", "181414.912000", "181414.915000", "181414.918000", "181414.920000", "181414.923000", "181414.926000", "181414.929000", "181414.932000", "181414.935000", "181414.938000", "181414.941000", "181414.944000", "181414.946000", "181414.949000", "181414.952000", "181414.955000", "181414.958000", "181414.961000", "181414.964000", "181414.967000", "181414.970000", "181414.972000", "181414.975000", "181414.978000", "181414.981000", "181454.906000", "181454.909000", "181454.912000", "181454.915000", "181454.918000", "181454.921000", "181454.924000", "181454.926000", "181454.929000", "181454.932000", "181454.935000", "181454.938000", "181454.941000", "181454.944000", "181454.947000", "181454.949000", "181454.952000", "181454.955000", "181454.958000", "181454.961000", "181454.964000", "181454.967000", "181454.970000", "181454.973000", "181454.975000", "181454.978000", "181454.981000", "181534.906000", "181534.909000", "181534.912000", "181534.915000", "181534.918000", "181534.921000", "181534.924000", "181534.926000", "181534.929000", "181534.932000", "181534.935000", "181534.938000", "181534.941000", "181534.944000", "181534.947000", "181534.950000", "181534.953000", "181534.955000", "181534.958000", "181534.961000", "181534.964000", "181534.967000", "181534.970000", "181534.973000", "181534.976000", "181534.979000", "181534.981000", "181614.906000", "181614.909000", "181614.912000", "181614.915000", "181614.918000", "181614.921000", "181614.924000", "181614.927000", "181614.929000", "181614.932000", "181614.935000", "181614.938000", "181614.941000", "181614.944000", "181614.947000", "181614.950000", "181614.953000", "181614.955000", "181614.958000", "181614.961000", "181614.964000", "181614.967000", "181614.970000", "181614.973000", "181614.976000", "181614.979000", "181614.981000", "181654.906000", "181654.909000", "181654.912000", "181654.915000", "181654.918000", "181654.921000", "181654.924000", "181654.927000", "181654.929000", "181654.932000", "181654.935000", "181654.938000", "181654.941000", "181654.944000", "181654.947000", "181654.950000", "181654.953000", "181654.956000", "181654.959000", "181654.962000", "181654.964000", "181654.967000", "181654.970000", "181654.973000", "181654.976000", "181654.979000", "181734.905000", "181734.908000", "181734.911000", "181734.914000", "181734.923000", "181734.926000", "181734.929000", "181734.932000", "181734.934000", "181734.937000", "181734.940000", "181734.943000", "181734.946000", "181734.949000", "181734.952000", "181734.955000", "181734.958000", "181734.961000", "181734.964000", "181734.967000", "181734.970000", "181734.972000", "181734.975000", "181734.978000", "181734.981000", "181734.984000", "181734.987000", "181814.906000", "181814.909000", "181814.912000", "181814.915000", "181814.918000", "181814.921000", "181814.924000", "181814.927000", "181814.930000", "181814.932000", "181814.935000", "181814.938000", "181814.941000", "181814.944000", "181814.947000", "181814.950000", "181814.952000", "181814.955000", "181814.958000", "181814.961000", "181814.964000", "181814.967000", "181814.970000", "181814.973000", "181814.975000", "181814.978000", "181814.981000", "181854.906000", "181854.909000", "181854.912000", "181854.915000", "181854.918000", "181854.921000", "181854.924000", "181854.926000", "181854.929000", "181854.932000", "181854.935000", "181854.938000", "181854.941000", "181854.944000", "181854.947000", "181854.949000", "181854.952000", "181854.955000", "181854.958000", "181854.961000", "181854.964000", "181854.967000", "181854.970000", "181854.972000", "181854.975000", "181854.978000", "181854.981000", "181913.647000", "181913.650000", "181913.653000", "181913.656000", "181913.669000", "181913.673000", "181913.676000", "181913.679000", "181913.682000", "181913.685000", "181913.688000", "181913.691000", "181913.694000"],
