{
  "AcquisitionMatrixPE": 104,
  "AcquisitionNumber": 1,
  "AcquisitionTime": "17:44:12.750000",
  "BandwidthPerPixelPhaseEncode": 17.17,
  "BaseResolution": 104,
  "BodyPartExamined": "BRAIN",
  "CoilString": "HC1-7;NC1_2",
  "ConsistencyInfo": "N4_VE11C_LATEST_20160120",
  "ConversionSoftware": "dcm2niix",
  "ConversionSoftwareVersion": "v1.0.20190902",
  "DerivedVendorReportedEchoSpacing": 0.000560011,
  "DeviceSerialNumber": "167006",
  "DwellTime": 2.1e-06,
  "EchoTime": 0.037,
  "EchoTrainLength": 104,
  "EffectiveEchoSpacing": 0.000560011,
  "FlipAngle": 52,
  "HeudiconvVersion": "0.10.0",
  "ImageComments": "Unaliased_MB4_PE3_LB",
  "ImageOrientationPatientDICOM": [0.996087, 0.0701924, 0.0536958, -0.0515054, 0.954815, -0.292702],
  "ImageType": [
    "ORIGINAL",
    "PRIMARY",
    "M",
    "MB",
    "ND",
    "MOSAIC"
],
  "ImagingFrequency": 123.259,
  "InPlanePhaseEncodingDirectionDICOM": "COL",
  "InstitutionAddress": "Chemin_Queen-Mary_4565_Montreal_District_CA_H3W_1W5",
  "InstitutionName": "IUGM",
  "InstitutionalDepartmentName": "Department",
  "MRAcquisitionType": "2D",
  "MagneticFieldStrength": 3,
  "Manufacturer": "Siemens",
  "ManufacturersModelName": "Prisma_fit",
  "Modality": "MR",
  "MultibandAccelerationFactor": 4,
  "PartialFourier": 1,
  "PatientPosition": "HFS",
  "PercentPhaseFOV": 100,
  "PhaseEncodingDirection": "j",
  "PhaseEncodingSteps": 104,
  "PhaseResolution": 1,
  "PixelBandwidth": 2290,
  "ProcedureStepDescription": "video_friends",
  "ProtocolName": "func_task-friends-s05e11b",
  "PulseSequenceDetails": "%CustomerSeq%_cmrr_mbep2d_bold",
  "ReceiveCoilActiveElements": "HC1-7;NC1,2",
  "ReceiveCoilName": "HeadNeck_64",
  "ReconMatrixPE": 104,
  "RepetitionTime": 1.49,
  "SAR": 0.0752881,
  "ScanOptions": "FS",
  "ScanningSequence": "EP",
  "SequenceName": "epfid2d1_104",
  "SequenceVariant": "SK_SS",
  "SeriesDescription": "func_task-friends-s05e11b",
  "SeriesNumber": 11,
  "ShimSetting": [646, -7193, -8785, 725, 103, 14, 18, -12],
  "SliceThickness": 2,
  "SliceTiming": [0, 0.785, 0.0975, 0.8825, 0.1975, 0.98, 0.295, 1.0775, 0.3925, 1.1775, 0.49, 1.275, 0.5875, 1.3725, 0.6875, 0, 0.785, 0.0975, 0.8825, 0.1975, 0.98, 0.295, 1.0775, 0.3925, 1.1775, 0.49, 1.275, 0.5875, 1.3725, 0.6875, 0, 0.785, 0.0975, 0.8825, 0.1975, 0.98, 0.295, 1.0775, 0.3925, 1.1775, 0.49, 1.275, 0.5875, 1.3725, 0.6875, 0, 0.785, 0.0975, 0.8825, 0.1975, 0.98, 0.295, 1.0775, 0.3925, 1.1775, 0.49, 1.275, 0.5875, 1.3725, 0.6875],
  "SoftwareVersions": "syngo_MR_E11",
  "SpacingBetweenSlices": 2,
  "StationName": "MRC35049",
  "TaskName": "s05e11b",
  "TotalReadoutTime": 0.0576811,
  "TxRefAmp": 321.67,
  "WipMemBlock": "7eb9248c-0275-458c-bbdf-20a985cbca52||Sequence: R016 ve11c/master r/e634e98; Dec 19 2017 11:00:25 by eja",
  "dcmmeta_affine": [
    [-1.992174506187439, -0.1030108779668808, 0.14363005757331848, 105.03977966308594],
    [-0.14038479328155518, 1.9096308946609497, -0.5775826573371887, -65.67913818359375],
    [0.10739155113697052, 0.5854044556617737, 1.909389615058899, -59.22974395751953],
    [0.0, 0.0, 0.0, 1.0]
],
  "dcmmeta_reorient_transform": [
    [0.0, -1.0, 0.0, 103.0],
    [1.0, 0.0, 0.0, 0.0],
    [0.0, 0.0, 1.0, 0.0],
    [0.0, 0.0, 0.0, 1.0]
],
  "dcmmeta_shape": [104, 104, 60, 511],
  "dcmmeta_slice_dim": 2,
  "dcmmeta_version": 0.6,
  "global": {
    "const": {
      "AcquisitionMatrix": [104, 0, 0, 104],
      "AngioFlag": "N",
      "BitsAllocated": 16,
      "BitsStored": 16,
      "BodyPartExamined": "BRAIN",
      "Columns": 832,
      "EchoNumbers": 1,
      "EchoTime": 37.0,
      "EchoTrainLength": 104,
      "FlipAngle": 52.0,
      "HighBit": 15,
      "ImageOrientationPatient": [0.99608724100385, 0.0701923934543, 0.05369577460557, -0.0515054388467, 0.95481547592086, -0.2927022321596],
      "ImagePositionPatient": [-782.08521086875, -877.21858230854, 175.06361591009],
      "ImageType": [
        "ORIGINAL",
        "PRIMARY",
        "M",
        "MB",
        "ND",
        "MOSAIC"
],
      "ImagedNucleus": "1H",
      "ImagingFrequency": 123.258839,
      "InPlanePhaseEncodingDirection": "COL",
      "MRAcquisitionType": "2D",
      "MagneticFieldStrength": 3.0,
      "Manufacturer": "SIEMENS",
      "ManufacturerModelName": "Prisma_fit",
      "Modality": "MR",
      "NumberOfAverages": 1.0,
      "NumberOfPhaseEncodingSteps": 104,
      "PercentPhaseFieldOfView": 100.0,
      "PercentSampling": 100.0,
      "PerformedProcedureStepStartTime": "170225.740000",
      "PhotometricInterpretation": "MONOCHROME2",
      "PixelBandwidth": 2290.0,
      "PixelRepresentation": 0,
      "PixelSpacing": [2.0, 2.0],
      "ProtocolName": "func_task-friends-s05e11b",
      "RepetitionTime": 1490.0,
      "Rows": 832,
      "SAR": 0.07528805967943,
      "SamplesPerPixel": 1,
      "ScanOptions": "FS",
      "ScanningSequence": "EP",
      "SequenceName": "epfid2d1_104",
      "SequenceVariant": [
        "SK",
        "SS"
],
      "SeriesDescription": "func_task-friends-s05e11b",
      "SeriesNumber": 11,
      "SeriesTime": "174534.396000",
      "SliceLocation": -30.035330249703,
      "SliceThickness": 2.0,
      "SmallestImagePixelValue": 0,
      "SoftwareVersions": "syngo MR E11",
      "SpacingBetweenSlices": 1.999999954962,
      "SpecificCharacterSet": "ISO_IR 100",
      "StudyID": "1",
      "StudyTime": "170225.684000",
      "TransmitCoilName": "Body",
      "VariableFlipAngleFlag": "N",
      "WindowCenterWidthExplanation": "Algo1",
      "dBdt": 0.0},
    "slices": {}
  },
  "time": {
    "samples": {
      "AcquisitionNumber": [1, 2, 3, 4, 5, 6, 7, 8, 9, 10, 11, 12, 13, 14, 15, 16, 17, 18, 19, 20, 21, 22, 23, 24, 25, 26, 27, 28, 29, 30, 31, 32, 33, 34, 35, 36, 37, 38, 39, 40, 41, 42, 43, 44, 45, 46, 47, 48, 49, 50, 51, 52, 53, 54, 55, 56, 57, 58, 59, 60, 61, 62, 63, 64, 65, 66, 67, 68, 69, 70, 71, 72, 73, 74, 75, 76, 77, 78, 79, 80, 81, 82, 83, 84, 85, 86, 87, 88, 89, 90, 91, 92, 93, 94, 95, 96, 97, 98, 99, 100, 101, 102, 103, 104, 105, 106, 107, 108, 109, 110, 111, 112, 113, 114, 115, 116, 117, 118, 119, 120, 121, 122, 123, 124, 125, 126, 127, 128, 129, 130, 131, 132, 133, 134, 135, 136, 137, 138, 139, 140, 141, 142, 143, 144, 145, 146, 147, 148, 149, 150, 151, 152, 153, 154, 155, 156, 157, 158, 159, 160, 161, 162, 163, 164, 165, 166, 167, 168, 169, 170, 171, 172, 173, 174, 175, 176, 177, 178, 179, 180, 181, 182, 183, 184, 185, 186, 187, 188, 189, 190, 191, 192, 193, 194, 195, 196, 197, 198, 199, 200, 201, 202, 203, 204, 205, 206, 207, 208, 209, 210, 211, 212, 213, 214, 215, 216, 217, 218, 219, 220, 221, 222, 223, 224, 225, 226, 227, 228, 229, 230, 231, 232, 233, 234, 235, 236, 237, 238, 239, 240, 241, 242, 243, 244, 245, 246, 247, 248, 249, 250, 251, 252, 253, 254, 255, 256, 257, 258, 259, 260, 261, 262, 263, 264, 265, 266, 267, 268, 269, 270, 271, 272, 273, 274, 275, 276, 277, 278, 279, 280, 281, 282, 283, 284, 285, 286, 287, 288, 289, 290, 291, 292, 293, 294, 295, 296, 297, 298, 299, 300, 301, 302, 303, 304, 305, 306, 307, 308, 309, 310, 311, 312, 313, 314, 315, 316, 317, 318, 319, 320, 321, 322, 323, 324, 325, 326, 327, 328, 329, 330, 331, 332, 333, 334, 335, 336, 337, 338, 339, 340, 341, 342, 343, 344, 345, 346, 347, 348, 349, 350, 351, 352, 353, 354, 355, 356, 357, 358, 359, 360, 361, 362, 363, 364, 365, 366, 367, 368, 369, 370, 371, 372, 373, 374, 375, 376, 377, 378, 379, 380, 381, 382, 383, 384, 385, 386, 387, 388, 389, 390, 391, 392, 393, 394, 395, 396, 397, 398, 399, 400, 401, 402, 403, 404, 405, 406, 407, 408, 409, 410, 411, 412, 413, 414, 415, 416, 417, 418, 419, 420, 421, 422, 423, 424, 425, 426, 427, 428, 429, 430, 431, 432, 433, 434, 435, 436, 437, 438, 439, 440, 441, 442, 443, 444, 445, 446, 447, 448, 449, 450, 451, 452, 453, 454, 455, 456, 457, 458, 459, 460, 461, 462, 463, 464, 465, 466, 467, 468, 469, 470, 471, 472, 473, 474, 475, 476, 477, 478, 479, 480, 481, 482, 483, 484, 485, 486, 487, 488, 489, 490, 491, 492, 493, 494, 495, 496, 497, 498, 499, 500, 501, 502, 503, 504, 505, 506, 507, 508, 509, 510, 511],
      "AcquisitionTime": ["174412.750000", "174414.240000", "174415.730000", "174417.220000", "174418.710000", "174420.200000", "174421.690000", "174423.180000", "174424.670000", "174426.160000", "174427.650000", "174429.140000", "174430.630000", "174432.120000", "174433.610000", "174435.100000", "174436.590000", "174438.080000", "174439.570000", "174441.060000", "174442.550000", "174444.040000", "174445.530000", "174447.020000", "174448.510000", "174450.000000", "174451.490000", "174452.980000", "174454.470000", "174455.960000", "174457.450000", "174458.940000", "174500.430000", "174501.920000", "174503.410000", "174504.900000", "174506.390000", "174507.880000", "174509.370000", "174510.860000", "174512.350000", "174513.840000", "174515.330000", "174516.820000", "174518.310000", "174519.800000", "174521.290000", "174522.780000", "174524.270000", "174525.760000", "174527.250000", "174528.740000", "174530.230000", "174531.720000", "174533.210000", "174534.700000", "174536.190000", "174537.680000", "174539.170000", "174540.660000", "174542.150000", "174543.640000", "174545.130000", "174546.620000", "174548.110000", "174549.600000", "174551.090000", "174552.580000", "174554.070000", "174555.560000", "174557.050000", "174558.540000", "174600.030000", "174601.520000", "174603.010000", "174604.500000", "174605.990000", "174607.480000", "174608.970000", "174610.460000", "174611.950000", "174613.440000", "174614.930000", "174616.420000", "174617.910000", "174619.400000", "174620.890000", "174622.380000", "174623.870000", "174625.360000", "174626.850000", "174628.340000", "174629.830000", "174631.320000", "174632.810000", "174634.300000", "174635.790000", "174637.280000", "174638.770000", "174640.260000", "174641.750000", "174643.240000", "174644.730000", "174646.220000", "174647.710000", "174649.200000", "174650.690000", "174652.180000", "174653.670000", "174655.160000", "174656.650000", "174658.140000", "174659.630000", "174701.120000", "174702.610000", "174704.100000", "174705.590000", "174707.080000", "174708.570000", "174710.060000", "174711.550000", "174713.040000", "174714.530000", "174716.020000", "174717.510000", "174719.000000", "174720.490000", "174721.980000", "174723.470000", "174724.960000", "174726.450000", "174727.940000", "174729.430000", "174730.920000", "174732.410000", "174733.900000", "174735.390000", "174736.880000", "174738.370000", "174739.860000", "174741.350000", "174742.840000", "174744.330000", "174745.820000", "174747.310000", "174748.800000", "174750.290000", "174751.780000", "174753.270000", "174754.760000", "174756.250000", "174757.740000", "174759.230000", "174800.720000", "174802.210000", "174803.700000", "174805.190000", "174806.680000", "174808.170000", "174809.660000", "174811.150000", "174812.640000", "174814.130000", "174815.620000", "174817.110000", "174818.600000", "174820.090000", "174821.580000", "174823.070000", "174824.560000", "174826.050000", "174827.540000", "174829.030000", "174830.520000", "174832.010000", "174833.500000", "174834.990000", "174836.480000", "174837.970000", "174839.460000", "174840.950000", "174842.440000", "174843.930000", "174845.420000", "174846.910000", "174848.400000", "174849.890000", "174851.380000", "174852.870000", "174854.360000", "174855.850000", "174857.340000", "174858.830000", "174900.320000", "174901.810000", "174903.300000", "174904.790000", "174906.280000", "174907.770000", "174909.260000", "174910.750000", "174912.240000", "174913.730000", "174915.220000", "174916.710000", "174918.200000", "174919.690000", "174921.180000", "174922.670000", "174924.160000", "174925.650000", "174927.140000", "174928.630000", "174930.120000", "174931.610000", "174933.100000", "174934.590000", "174936.080000", "174937.570000", "174939.060000", "174940.550000", "174942.040000", "174943.530000", "174945.020000", "174946.510000", "174948.000000", "174949.490000", "174950.980000", "174952.470000", "174953.960000", "174955.450000", "174956.940000", "174958.430000", "174959.920000", "175001.410000", "175002.900000", "175004.390000", "175005.880000", "175007.370000", "175008.860000", "175010.350000", "175011.840000", "175013.330000", "175014.820000", "175016.310000", "175017.800000", "175019.290000", "175020.780000", "175022.270000", "175023.760000", "175025.250000", "175026.740000", "175028.230000", "175029.720000", "175031.210000", "175032.700000", "175034.190000", "175035.680000", "175037.170000", "175038.660000", "175040.150000", "175041.640000", "175043.130000", "175044.620000", "175046.110000", "175047.600000", "175049.090000", "175050.580000", "175052.070000", "175053.560000", "175055.050000", "175056.540000", "175058.030000", "175059.520000", "175101.010000", "175102.500000", "175103.990000", "175105.480000", "175106.970000", "175108.460000", "175109.950000", "175111.440000", "175112.930000", "175114.420000", "175115.910000", "175117.400000", "175118.890000", "175120.380000", "175121.870000", "175123.360000", "175124.850000", "175126.340000", "175127.830000", "175129.320000", "175130.810000", "175132.300000", "175133.790000", "175135.280000", "175136.770000", "175138.260000", "175139.750000", "175141.240000", "175142.730000", "175144.220000", "175145.710000", "175147.200000", "175148.690000", "175150.180000", "175151.670000", "175153.160000", "175154.650000", "175156.140000", "175157.630000", "175159.120000", "175200.610000", "175202.100000", "175203.590000", "175205.080000", "175206.570000", "175208.060000", "175209.550000", "175211.040000", "175212.530000", "175214.020000", "175215.510000", "175217.000000", "175218.490000", "175219.980000", "175221.470000", "175222.960000", "175224.450000", "175225.940000", "175227.430000", "175228.920000", "175230.410000", "175231.900000", "175233.390000", "175234.880000", "175236.370000", "175237.860000", "175239.350000", "175240.840000", "175242.330000", "175243.820000", "175245.310000", "175246.800000", "175248.290000", "175249.780000", "175251.270000", "175252.760000", "175254.250000", "175255.740000", "175257.230000", "175258.720000", "175300.210000", "175301.700000", "175303.190000", "175304.680000", "175306.170000", "175307.660000", "175309.150000", "175310.640000", "175312.130000", "175313.620000", "175315.110000", "175316.600000", "175318.090000", "175319.580000", "175321.070000", "175322.560000", "175324.050000", "175325.540000", "175327.030000", "175328.520000", "175330.010000", "175331.500000", "175332.990000", "175334.480000", "175335.970000", "175337.460000", "175338.950000", "175340.440000", "175341.930000", "175343.420000", "175344.910000", "175346.400000", "175347.890000", "175349.380000", "175350.870000", "175352.360000", "175353.850000", "175355.340000", "175356.830000", "175358.320000", "175359.810000", "175401.300000", "175402.790000", "175404.280000", "175405.770000", "175407.260000", "175408.750000", "175410.240000", "175411.730000", "175413.220000", "175414.710000", "175416.200000", "175417.690000", "175419.180000", "175420.670000", "175422.160000", "175423.650000", "175425.140000", "175426.630000", "175428.120000", "175429.610000", "175431.100000", "175432.590000", "175434.080000", "175435.570000", "175437.060000", "175438.550000", "175440.040000", "175441.530000", "175443.020000", "175444.510000", "175446.000000", "175447.490000", "175448.980000", "175450.470000", "175451.960000", "175453.450000", "175454.940000", "175456.430000", "175457.920000", "175459.410000", "175500.900000", "175502.390000", "175503.880000", "175505.370000", "175506.860000", "175508.350000", "175509.840000", "175511.330000", "175512.820000", "175514.310000", "175515.800000", "175517.290000", "175518.780000", "175520.270000", "175521.760000", "175523.250000", "175524.740000", "175526.230000", "175527.720000", "175529.210000", "175530.700000", "175532.190000", "175533.680000", "175535.170000", "175536.660000", "175538.150000", "175539.640000", "175541.130000", "175542.620000", "175544.110000", "175545.600000", "175547.090000", "175548.580000", "175550.070000", "175551.560000", "175553.050000", "175554.540000", "175556.030000", "175557.520000", "175559.010000", "175600.500000", "175601.990000", "175603.480000", "175604.970000", "175606.460000", "175607.950000", "175609.440000", "175610.930000", "175612.420000", "175613.910000", "175615.400000", "175616.890000", "175618.380000", "175619.870000", "175621.360000", "175622.850000", "175624.340000", "175625.830000", "175627.320000", "175628.810000", "175630.300000", "175631.790000", "175633.280000", "175634.770000", "175636.260000", "175637.750000", "175639.240000", "175640.730000", "175642.220000", "175643.710000", "175645.200000", "175646.690000", "175648.180000", "175649.670000", "175651.160000", "175652.650000"],
      "ContentTime": ["174534.399000", "174534.408000", "174534.411000", "174534.414000", "174534.417000", "174534.420000", "174534.423000", "174534.426000", "174534.429000", "174534.432000", "174534.435000", "174534.437000", "174534.440000", "174534.443000", "174534.446000", "174534.449000", "174534.452000", "174534.455000", "174534.458000", "174534.461000", "174534.464000", "174534.467000", "174534.470000", "174534.473000", "174534.476000", "174534.479000", "174534.488000", "174554.346000", "174554.349000", "174554.352000", "174554.355000", "174554.358000", "174554.361000", "174554.364000", "174554.367000", "174554.370000", "174554.373000", "174554.376000", "174554.379000", "174554.389000", "174554.392000", "174554.394000", "174554.397000", "174554.400000", "174554.403000", "174554.406000", "174554.409000", "174614.346000", "174614.349000", "174614.352000", "174614.355000", "174614.358000", "174614.367000", "174614.370000", "174614.372000", "174614.375000", "174614.378000", "174614.381000", "174614.384000", "174614.387000", "174614.390000", "174614.393000", "174614.396000", "174614.399000", "174614.402000", "174614.405000", "174614.408000", "174634.346000", "174634.349000", "174634.352000", "174634.355000", "174634.358000", "174634.361000", "174634.363000", "174634.366000", "174634.369000", "174634.372000", "174634.375000", "174634.378000", "174634.382000", "174634.385000", "174634.388000", "174634.391000", "174634.394000", "174634.397000", "174634.400000", "174634.403000", "174654.347000", "174654.350000", "174654.353000", "174654.356000", "174654.359000", "174654.362000", "174654.365000", "174654.368000", "174654.371000", "174654.374000", "174654.377000", "174654.380000", "174654.383000", "174654.386000", "174654.389000", "174654.392000", "174654.395000", "174654.397000", "174654.401000", "174654.404000", "174654.406000", "174734.347000", "174734.350000", "174734.353000", "174734.356000", "174734.359000", "174734.362000", "174734.365000", "174734.368000", "174734.370000", "174734.373000", "174734.376000", "174734.379000", "174734.382000", "174734.385000", "174734.388000", "174734.391000", "174734.394000", "174734.397000", "174734.400000", "174734.403000", "174734.406000", "174734.409000", "174734.412000", "174734.415000", "174734.418000", "174734.421000", "174734.424000", "174814.346000", "174814.349000", "174814.352000", "174814.355000", "174814.358000", "174814.361000", "174814.364000", "174814.367000", "174814.370000", "174814.372000", "174814.375000", "174814.378000", "174814.381000", "174814.384000", "174814.387000", "174814.390000", "174814.393000", "174814.396000", "174814.399000", "174814.402000", "174814.405000", "174814.408000", "174814.411000", "174814.414000", "174814.417000", "174814.420000", "174854.346000", "174854.349000", "174854.352000", "174854.355000", "174854.358000", "174854.361000", "174854.364000", "174854.367000", "174854.370000", "174854.373000", "174854.376000", "174854.379000", "174854.382000", "174854.385000", "174854.388000", "174854.391000", "174854.394000", "174854.397000", "174854.400000", "174854.403000", "174854.406000", "174854.409000", "174854.412000", "174854.415000", "174854.417000", "174854.420000", "174854.424000", "174934.347000", "174934.350000", "174934.353000", "174934.356000", "174934.359000", "174934.362000", "174934.365000", "174934.368000", "174934.371000", "174934.374000", "174934.377000", "174934.380000", "174934.392000", "174934.394000", "174934.397000", "174934.400000", "174934.403000", "174934.406000", "174934.409000", "174934.412000", "174934.415000", "174934.418000", "174934.421000", "174934.424000", "174934.427000", "174934.430000", "174934.432000", "175014.347000", "175014.350000", "175014.353000", "175014.356000", "175014.359000", "175014.362000", "175014.365000", "175014.368000", "175014.371000", "175014.374000", "175014.377000", "175014.380000", "175014.383000", "175014.386000", "175014.389000", "175014.392000", "175014.395000", "175014.398000", "175014.401000", "175014.404000", "175014.407000", "175014.410000", "175014.413000", "175014.415000", "175014.418000", "175014.421000", "175014.424000", "175054.346000", "175054.350000", "175054.352000", "175054.355000", "175054.358000", "175054.361000", "175054.364000", "175054.375000", "175054.378000", "175054.381000", "175054.384000", "175054.393000", "175054.396000", "175054.398000", "175054.401000", "175054.405000", "175054.408000", "175054.412000", "175054.414000", "175054.418000", "175054.420000", "175054.423000", "175054.426000", "175054.429000", "175054.432000", "175054.435000", "175054.438000", "175134.347000", "175134.350000", "175134.353000", "175134.356000", "175134.359000", "175134.362000", "175134.365000", "175134.368000", "175134.370000", "175134.373000", "175134.376000", "175134.379000", "175134.382000", "175134.385000", "175134.388000", "175134.391000", "175134.394000", "175134.397000", "175134.400000", "175134.403000", "175134.406000", "175134.409000", "175134.412000", "175134.415000", "175134.417000", "175134.420000", "175134.423000", "175214.347000", "175214.350000", "175214.353000", "175214.356000", "175214.359000", "175214.362000", "175214.365000", "175214.367000", "175214.370000", "175214.373000", "175214.376000", "175214.379000", "175214.382000", "175214.385000", "175214.388000", "175214.391000", "175214.394000", "175214.397000", "175214.400000", "175214.403000", "175214.406000", "175214.409000", "175214.412000", "175214.415000", "175214.417000", "175214.420000", "175214.423000", "175254.346000", "175254.349000", "175254.352000", "175254.355000", "175254.358000", "175254.361000", "175254.367000", "175254.370000", "175254.373000", "175254.376000", "175254.378000", "175254.381000", "175254.384000", "175254.387000", "175254.390000", "175254.393000", "175254.398000", "175254.401000", "175254.404000", "175254.407000", "175254.410000", "175254.413000", "175254.416000", "175254.419000", "175254.422000", "175254.425000", "175334.346000", "175334.349000", "175334.352000", "175334.355000", "175334.358000", "175334.361000", "175334.364000", "175334.367000", "175334.370000", "175334.372000", "175334.375000", "175334.378000", "175334.381000", "175334.384000", "175334.387000", "175334.390000", "175334.393000", "175334.396000", "175334.399000", "175334.402000", "175334.405000", "175334.408000", "175334.411000", "175334.413000", "175334.416000", "175334.419000", "175334.422000", "175414.347000", "175414.350000", "175414.353000", "175414.356000", "175414.359000", "175414.362000", "175414.365000", "175414.368000", "175414.371000", "175414.374000", "175414.376000", "175414.379000", "175414.396000", "175414.399000", "175414.402000", "175414.405000", "175414.408000", "175414.411000", "175414.413000", "175414.416000", "175414.420000", "175414.423000", "175414.426000", "175414.429000", "175414.432000", "175414.435000", "175414.438000", "175454.347000", "175454.350000", "175454.353000", "175454.356000", "175454.359000", "175454.362000", "175454.365000", "175454.368000", "175454.371000", "175454.374000", "175454.377000", "175454.380000", "175454.383000", "175454.386000", "175454.389000", "175454.392000", "175454.394000", "175454.397000", "175454.400000", "175454.403000", "175454.406000", "175454.409000", "175454.412000", "175454.415000", "175454.418000", "175454.421000", "175454.424000", "175534.346000", "175534.362000", "175534.365000", "175534.368000", "175534.370000", "175534.374000", "175534.377000", "175534.380000", "175534.382000", "175534.386000", "175534.389000", "175534.391000", "175534.394000", "175534.398000", "175534.401000", "175534.403000", "175534.406000", "175534.409000", "175534.412000", "175534.415000", "175534.418000", "175534.421000", "175534.424000", "175534.427000", "175534.430000", "175534.433000", "175534.436000", "175614.347000", "175614.350000", "175614.353000", "175614.356000", "175614.359000", "175614.362000", "175614.365000", "175614.378000", "175614.381000", "175614.384000", "175614.387000", "175614.390000", "175614.393000", "175614.396000", "175614.399000", "175614.402000", "175614.405000", "175614.408000", "175614.411000", "175614.414000", "175614.417000", "175614.419000", "175614.429000", "175614.432000", "175614.435000", "175614.438000", "175614.441000", "175654.355000", "175654.361000", "175654.364000", "175654.369000", "175654.375000", "175654.379000", "175654.382000", "175654.385000", "175654.389000", "175654.392000", "175654.395000", "175654.398000", "175654.401000", "175654.412000", "175654.415000", "175654.419000", "175654.423000", "175654.426000", "175654.429000", "175654.432000", "175654.442000", "175654.445000", "175654.448000", "175654.451000", "175654.454000", "175654.457000", "175654.527000"],
