{
  "AcquisitionMatrixPE": 104,
  "AcquisitionNumber": 1,
  "AcquisitionTime": "17:58:15.400000",
  "BandwidthPerPixelPhaseEncode": 17.17,
  "BaseResolution": 104,
  "BodyPartExamined": "BRAIN",
  "CoilString": "HC1-7;NC1_2",
  "ConsistencyInfo": "N4_VE11C_LATEST_20160120",
  "ConversionSoftware": "dcm2niix",
  "ConversionSoftwareVersion": "v1.0.20190902",
  "DerivedVendorReportedEchoSpacing": 0.000560011,
  "DeviceSerialNumber": "167006",
  "DwellTime": 2.1e-06,
  "EchoTime": 0.037,
  "EchoTrainLength": 104,
  "EffectiveEchoSpacing": 0.000560011,
  "FlipAngle": 52,
  "HeudiconvVersion": "0.10.0",
  "ImageComments": "Unaliased_MB4_PE3_LB",
  "ImageOrientationPatientDICOM": [0.996087, 0.0701924, 0.0536958, -0.0515054, 0.954815, -0.292702],
  "ImageType": [
    "ORIGINAL",
    "PRIMARY",
    "M",
    "MB",
    "ND",
    "MOSAIC"
],
  "ImagingFrequency": 123.259,
  "InPlanePhaseEncodingDirectionDICOM": "COL",
  "InstitutionAddress": "Chemin_Queen-Mary_4565_Montreal_District_CA_H3W_1W5",
  "InstitutionName": "IUGM",
  "InstitutionalDepartmentName": "Department",
  "MRAcquisitionType": "2D",
  "MagneticFieldStrength": 3,
  "Manufacturer": "Siemens",
  "ManufacturersModelName": "Prisma_fit",
  "Modality": "MR",
  "MultibandAccelerationFactor": 4,
  "PartialFourier": 1,
  "PatientPosition": "HFS",
  "PercentPhaseFOV": 100,
  "PhaseEncodingDirection": "j",
  "PhaseEncodingSteps": 104,
  "PhaseResolution": 1,
  "PixelBandwidth": 2290,
  "ProcedureStepDescription": "video_friends",
  "ProtocolName": "func_task-friends-s05e12a",
  "PulseSequenceDetails": "%CustomerSeq%_cmrr_mbep2d_bold",
  "ReceiveCoilActiveElements": "HC1-7;NC1,2",
  "ReceiveCoilName": "HeadNeck_64",
  "ReconMatrixPE": 104,
  "RepetitionTime": 1.49,
  "SAR": 0.0752449,
  "ScanOptions": "FS",
  "ScanningSequence": "EP",
  "SequenceName": "epfid2d1_104",
  "SequenceVariant": "SK_SS",
  "SeriesDescription": "func_task-friends-s05e12a",
  "SeriesNumber": 13,
  "ShimSetting": [646, -7193, -8785, 725, 103, 14, 18, -12],
  "SliceThickness": 2,
  "SliceTiming": [0, 0.785, 0.1, 0.8825, 0.1975, 0.98, 0.295, 1.08, 0.3925, 1.1775, 0.49, 1.275, 0.59, 1.3725, 0.6875, 0, 0.785, 0.1, 0.8825, 0.1975, 0.98, 0.295, 1.08, 0.3925, 1.1775, 0.49, 1.275, 0.59, 1.3725, 0.6875, 0, 0.785, 0.1, 0.8825, 0.1975, 0.98, 0.295, 1.08, 0.3925, 1.1775, 0.49, 1.275, 0.59, 1.3725, 0.6875, 0, 0.785, 0.1, 0.8825, 0.1975, 0.98, 0.295, 1.08, 0.3925, 1.1775, 0.49, 1.275, 0.59, 1.3725, 0.6875],
  "SoftwareVersions": "syngo_MR_E11",
  "SpacingBetweenSlices": 2,
  "StationName": "MRC35049",
  "TaskName": "s05e12a",
  "TotalReadoutTime": 0.0576811,
  "TxRefAmp": 321.67,
  "WipMemBlock": "de1c86d6-a14a-4775-9960-d54c7c741fff||Sequence: R016 ve11c/master r/e634e98; Dec 19 2017 11:00:25 by eja",
  "dcmmeta_affine": [
    [-1.992174506187439, -0.1030108779668808, 0.14363005757331848, 105.03977966308594],
    [-0.14038479328155518, 1.9096308946609497, -0.5775826573371887, -65.67913818359375],
    [0.10739155113697052, 0.5854044556617737, 1.909389615058899, -59.22974395751953],
    [0.0, 0.0, 0.0, 1.0]
],
  "dcmmeta_reorient_transform": [
    [0.0, -1.0, 0.0, 103.0],
    [1.0, 0.0, 0.0, 0.0],
    [0.0, 0.0, 1.0, 0.0],
    [0.0, 0.0, 0.0, 1.0]
],
  "dcmmeta_shape": [104, 104, 60, 445],
  "dcmmeta_slice_dim": 2,
  "dcmmeta_version": 0.6,
  "global": {
    "const": {
      "AcquisitionMatrix": [104, 0, 0, 104],
      "AngioFlag": "N",
      "BitsAllocated": 16,
      "BitsStored": 16,
      "BodyPartExamined": "BRAIN",
      "Columns": 832,
      "EchoNumbers": 1,
      "EchoTime": 37.0,
      "EchoTrainLength": 104,
      "FlipAngle": 52.0,
      "HighBit": 15,
      "ImageOrientationPatient": [0.99608724100385, 0.0701923934543, 0.05369577460557, -0.0515054388467, 0.95481547592086, -0.2927022321596],
      "ImagePositionPatient": [-782.08521086875, -877.21858230854, 175.06361591009],
      "ImageType": [
        "ORIGINAL",
        "PRIMARY",
        "M",
        "MB",
        "ND",
        "MOSAIC"
],
      "ImagedNucleus": "1H",
      "ImagingFrequency": 123.258844,
      "InPlanePhaseEncodingDirection": "COL",
      "MRAcquisitionType": "2D",
      "MagneticFieldStrength": 3.0,
      "Manufacturer": "SIEMENS",
      "ManufacturerModelName": "Prisma_fit",
      "Modality": "MR",
      "NumberOfAverages": 1.0,
      "NumberOfPhaseEncodingSteps": 104,
      "PercentPhaseFieldOfView": 100.0,
      "PercentSampling": 100.0,
      "PerformedProcedureStepStartTime": "170225.740000",
      "PhotometricInterpretation": "MONOCHROME2",
      "PixelBandwidth": 2290.0,
      "PixelRepresentation": 0,
      "PixelSpacing": [2.0, 2.0],
      "ProtocolName": "func_task-friends-s05e12a",
      "RepetitionTime": 1490.0,
      "Rows": 832,
      "SAR": 0.07524488441459,
      "SamplesPerPixel": 1,
      "ScanOptions": "FS",
      "ScanningSequence": "EP",
      "SequenceName": "epfid2d1_104",
      "SequenceVariant": [
        "SK",
        "SS"
],
      "SeriesDescription": "func_task-friends-s05e12a",
      "SeriesNumber": 13,
      "SeriesTime": "175937.097000",
      "SliceLocation": -30.035330249703,
      "SliceThickness": 2.0,
      "SmallestImagePixelValue": 0,
      "SoftwareVersions": "syngo MR E11",
      "SpacingBetweenSlices": 1.999999954962,
      "SpecificCharacterSet": "ISO_IR 100",
      "StudyID": "1",
      "StudyTime": "170225.684000",
      "TransmitCoilName": "Body",
      "VariableFlipAngleFlag": "N",
      "WindowCenterWidthExplanation": "Algo1",
      "dBdt": 0.0},
    "slices": {}
  },
  "time": {
    "samples": {
      "AcquisitionNumber": [1, 2, 3, 4, 5, 6, 7, 8, 9, 10, 11, 12, 13, 14, 15, 16, 17, 18, 19, 20, 21, 22, 23, 24, 25, 26, 27, 28, 29, 30, 31, 32, 33, 34, 35, 36, 37, 38, 39, 40, 41, 42, 43, 44, 45, 46, 47, 48, 49, 50, 51, 52, 53, 54, 55, 56, 57, 58, 59, 60, 61, 62, 63, 64, 65, 66, 67, 68, 69, 70, 71, 72, 73, 74, 75, 76, 77, 78, 79, 80, 81, 82, 83, 84, 85, 86, 87, 88, 89, 90, 91, 92, 93, 94, 95, 96, 97, 98, 99, 100, 101, 102, 103, 104, 105, 106, 107, 108, 109, 110, 111, 112, 113, 114, 115, 116, 117, 118, 119, 120, 121, 122, 123, 124, 125, 126, 127, 128, 129, 130, 131, 132, 133, 134, 135, 136, 137, 138, 139, 140, 141, 142, 143, 144, 145, 146, 147, 148, 149, 150, 151, 152, 153, 154, 155, 156, 157, 158, 159, 160, 161, 162, 163, 164, 165, 166, 167, 168, 169, 170, 171, 172, 173, 174, 175, 176, 177, 178, 179, 180, 181, 182, 183, 184, 185, 186, 187, 188, 189, 190, 191, 192, 193, 194, 195, 196, 197, 198, 199, 200, 201, 202, 203, 204, 205, 206, 207, 208, 209, 210, 211, 212, 213, 214, 215, 216, 217, 218, 219, 220, 221, 222, 223, 224, 225, 226, 227, 228, 229, 230, 231, 232, 233, 234, 235, 236, 237, 238, 239, 240, 241, 242, 243, 244, 245, 246, 247, 248, 249, 250, 251, 252, 253, 254, 255, 256, 257, 258, 259, 260, 261, 262, 263, 264, 265, 266, 267, 268, 269, 270, 271, 272, 273, 274, 275, 276, 277, 278, 279, 280, 281, 282, 283, 284, 285, 286, 287, 288, 289, 290, 291, 292, 293, 294, 295, 296, 297, 298, 299, 300, 301, 302, 303, 304, 305, 306, 307, 308, 309, 310, 311, 312, 313, 314, 315, 316, 317, 318, 319, 320, 321, 322, 323, 324, 325, 326, 327, 328, 329, 330, 331, 332, 333, 334, 335, 336, 337, 338, 339, 340, 341, 342, 343, 344, 345, 346, 347, 348, 349, 350, 351, 352, 353, 354, 355, 356, 357, 358, 359, 360, 361, 362, 363, 364, 365, 366, 367, 368, 369, 370, 371, 372, 373, 374, 375, 376, 377, 378, 379, 380, 381, 382, 383, 384, 385, 386, 387, 388, 389, 390, 391, 392, 393, 394, 395, 396, 397, 398, 399, 400, 401, 402, 403, 404, 405, 406, 407, 408, 409, 410, 411, 412, 413, 414, 415, 416, 417, 418, 419, 420, 421, 422, 423, 424, 425, 426, 427, 428, 429, 430, 431, 432, 433, 434, 435, 436, 437, 438, 439, 440, 441, 442, 443, 444, 445],
      "AcquisitionTime": ["175815.400000", "175816.890000", "175818.380000", "175819.870000", "175821.360000", "175822.850000", "175824.340000", "175825.830000", "175827.320000", "175828.810000", "175830.300000", "175831.790000", "175833.280000", "175834.770000", "175836.260000", "175837.750000", "175839.240000", "175840.730000", "175842.220000", "175843.710000", "175845.200000", "175846.690000", "175848.180000", "175849.670000", "175851.160000", "175852.650000", "175854.140000", "175855.630000", "175857.120000", "175858.610000", "175900.100000", "175901.590000", "175903.080000", "175904.570000", "175906.060000", "175907.550000", "175909.040000", "175910.530000", "175912.020000", "175913.510000", "175915.000000", "175916.490000", "175917.980000", "175919.470000", "175920.960000", "175922.450000", "175923.940000", "175925.430000", "175926.920000", "175928.410000", "175929.900000", "175931.390000", "175932.880000", "175934.370000", "175935.860000", "175937.350000", "175938.840000", "175940.330000", "175941.820000", "175943.310000", "175944.800000", "175946.290000", "175947.780000", "175949.270000", "175950.760000", "175952.250000", "175953.740000", "175955.230000", "175956.720000", "175958.210000", "175959.700000", "180001.190000", "180002.680000", "180004.170000", "180005.660000", "180007.150000", "180008.640000", "180010.130000", "180011.620000", "180013.110000", "180014.600000", "180016.090000", "180017.580000", "180019.070000", "180020.560000", "180022.050000", "180023.540000", "180025.030000", "180026.520000", "180028.010000", "180029.500000", "180030.990000", "180032.480000", "180033.970000", "180035.460000", "180036.950000", "180038.440000", "180039.930000", "180041.420000", "180042.910000", "180044.400000", "180045.890000", "180047.380000", "180048.870000", "180050.360000", "180051.850000", "180053.340000", "180054.830000", "180056.320000", "180057.810000", "180059.300000", "180100.790000", "180102.280000", "180103.770000", "180105.260000", "180106.750000", "180108.240000", "180109.730000", "180111.220000", "180112.710000", "180114.200000", "180115.690000", "180117.180000", "180118.670000", "180120.160000", "180121.650000", "180123.140000", "180124.630000", "180126.120000", "180127.610000", "180129.100000", "180130.590000", "180132.080000", "180133.570000", "180135.060000", "180136.550000", "180138.040000", "180139.530000", "180141.020000", "180142.510000", "180144.000000", "180145.490000", "180146.980000", "180148.470000", "180149.960000", "180151.450000", "180152.940000", "180154.430000", "180155.920000", "180157.410000", "180158.900000", "180200.390000", "180201.880000", "180203.370000", "180204.860000", "180206.350000", "180207.840000", "180209.330000", "180210.820000", "180212.310000", "180213.800000", "180215.290000", "180216.780000", "180218.270000", "180219.760000", "180221.250000", "180222.740000", "180224.230000", "180225.720000", "180227.210000", "180228.700000", "180230.190000", "180231.680000", "180233.170000", "180234.660000", "180236.150000", "180237.640000", "180239.130000", "180240.620000", "180242.110000", "180243.600000", "180245.090000", "180246.580000", "180248.070000", "180249.560000", "180251.050000", "180252.540000", "180254.030000", "180255.520000", "180257.010000", "180258.500000", "180259.990000", "180301.480000", "180302.970000", "180304.460000", "180305.950000", "180307.440000", "180308.930000", "180310.420000", "180311.910000", "180313.400000", "180314.890000", "180316.380000", "180317.870000", "180319.360000", "180320.850000", "180322.340000", "180323.830000", "180325.320000", "180326.810000", "180328.300000", "180329.790000", "180331.280000", "180332.770000", "180334.260000", "180335.750000", "180337.240000", "180338.730000", "180340.220000", "180341.710000", "180343.200000", "180344.690000", "180346.180000", "180347.670000", "180349.160000", "180350.650000", "180352.140000", "180353.630000", "180355.120000", "180356.610000", "180358.100000", "180359.590000", "180401.080000", "180402.570000", "180404.060000", "180405.550000", "180407.040000", "180408.530000", "180410.020000", "180411.510000", "180413.000000", "180414.490000", "180415.980000", "180417.470000", "180418.960000", "180420.450000", "180421.940000", "180423.430000", "180424.920000", "180426.410000", "180427.900000", "180429.390000", "180430.880000", "180432.370000", "180433.860000", "180435.350000", "180436.840000", "180438.330000", "180439.820000", "180441.310000", "180442.800000", "180444.290000", "180445.780000", "180447.270000", "180448.760000", "180450.250000", "180451.740000", "180453.230000", "180454.720000", "180456.210000", "180457.700000", "180459.190000", "180500.680000", "180502.170000", "180503.660000", "180505.150000", "180506.640000", "180508.130000", "180509.620000", "180511.110000", "180512.600000", "180514.090000", "180515.580000", "180517.070000", "180518.560000", "180520.050000", "180521.540000", "180523.030000", "180524.520000", "180526.010000", "180527.500000", "180528.990000", "180530.480000", "180531.970000", "180533.460000", "180534.950000", "180536.440000", "180537.930000", "180539.420000", "180540.910000", "180542.400000", "180543.890000", "180545.380000", "180546.870000", "180548.360000", "180549.850000", "180551.340000", "180552.830000", "180554.320000", "180555.810000", "180557.300000", "180558.790000", "180600.280000", "180601.770000", "180603.260000", "180604.750000", "180606.240000", "180607.730000", "180609.220000", "180610.710000", "180612.200000", "180613.690000", "180615.180000", "180616.670000", "180618.160000", "180619.650000", "180621.140000", "180622.630000", "180624.120000", "180625.610000", "180627.100000", "180628.590000", "180630.080000", "180631.570000", "180633.060000", "180634.550000", "180636.040000", "180637.530000", "180639.020000", "180640.510000", "180642.000000", "180643.490000", "180644.980000", "180646.470000", "180647.960000", "180649.450000", "180650.940000", "180652.430000", "180653.920000", "180655.410000", "180656.900000", "180658.390000", "180659.880000", "180701.370000", "180702.860000", "180704.350000", "180705.840000", "180707.330000", "180708.820000", "180710.310000", "180711.800000", "180713.290000", "180714.780000", "180716.270000", "180717.760000", "180719.250000", "180720.740000", "180722.230000", "180723.720000", "180725.210000", "180726.700000", "180728.190000", "180729.680000", "180731.170000", "180732.660000", "180734.150000", "180735.640000", "180737.130000", "180738.620000", "180740.110000", "180741.600000", "180743.090000", "180744.580000", "180746.070000", "180747.560000", "180749.050000", "180750.540000", "180752.030000", "180753.520000", "180755.010000", "180756.500000", "180757.990000", "180759.480000", "180800.970000", "180802.460000", "180803.950000", "180805.440000", "180806.930000", "180808.420000", "180809.910000", "180811.400000", "180812.890000", "180814.380000", "180815.870000", "180817.360000", "180818.850000", "180820.340000", "180821.830000", "180823.320000", "180824.810000", "180826.300000", "180827.790000", "180829.280000", "180830.770000", "180832.260000", "180833.750000", "180835.240000", "180836.730000", "180838.220000", "180839.710000", "180841.200000", "180842.690000", "180844.180000", "180845.670000", "180847.160000", "180848.650000", "180850.140000", "180851.630000", "180853.120000", "180854.610000", "180856.100000", "180857.590000", "180859.080000", "180900.570000", "180902.060000", "180903.550000", "180905.040000", "180906.530000", "180908.020000", "180909.510000", "180911.000000", "180912.490000", "180913.980000", "180915.470000", "180916.960000"],
      "ContentTime": ["175937.100000", "175937.113000", "175937.116000", "175937.119000", "175937.125000", "175937.128000", "175937.131000", "175937.134000", "175937.137000", "175937.140000", "175937.142000", "175937.145000", "175937.148000", "175937.151000", "175937.154000", "175937.157000", "175937.160000", "175937.169000", "175937.172000", "175937.175000", "175937.178000", "175937.181000", "175937.183000", "175937.187000", "175937.189000", "175937.192000", "175937.196000", "175937.199000", "175957.037000", "175957.040000", "175957.043000", "175957.046000", "175957.049000", "175957.052000", "175957.055000", "175957.058000", "175957.061000", "175957.064000", "175957.067000", "175957.087000", "175957.090000", "175957.093000", "175957.096000", "175957.099000", "175957.102000", "175957.105000", "175957.108000", "175957.111000", "180017.037000", "180017.040000", "180017.043000", "180017.046000", "180017.049000", "180017.052000", "180017.055000", "180017.057000", "180017.060000", "180017.068000", "180017.071000", "180017.074000", "180017.077000", "180017.079000", "180017.082000", "180017.085000", "180017.088000", "180017.091000", "180017.094000", "180017.097000", "180037.038000", "180037.041000", "180037.044000", "180037.047000", "180037.050000", "180037.053000", "180037.056000", "180037.059000", "180037.062000", "180037.065000", "180037.068000", "180037.071000", "180037.074000", "180037.077000", "180037.079000", "180037.082000", "180037.092000", "180037.095000", "180037.098000", "180037.101000", "180057.038000", "180057.049000", "180057.052000", "180057.055000", "180057.058000", "180057.061000", "180057.064000", "180057.067000", "180057.070000", "180057.073000", "180057.076000", "180057.078000", "180057.081000", "180057.084000", "180057.087000", "180057.090000", "180057.093000", "180057.096000", "180057.099000", "180057.102000", "180137.038000", "180137.041000", "180137.044000", "180137.065000", "180137.068000", "180137.071000", "180137.074000", "180137.077000", "180137.079000", "180137.083000", "180137.085000", "180137.089000", "180137.092000", "180137.095000", "180137.098000", "180137.101000", "180137.104000", "180137.107000", "180137.109000", "180137.112000", "180137.115000", "180137.118000", "180137.121000", "180137.124000", "180137.127000", "180137.130000", "180217.037000", "180217.040000", "180217.043000", "180217.046000", "180217.049000", "180217.052000", "180217.055000", "180217.058000", "180217.060000", "180217.063000", "180217.066000", "180217.069000", "180217.072000", "180217.075000", "180217.078000", "180217.081000", "180217.084000", "180217.087000", "180217.090000", "180217.093000", "180217.096000", "180217.099000", "180217.102000", "180217.105000", "180217.107000", "180217.110000", "180217.113000", "180257.038000", "180257.041000", "180257.044000", "180257.047000", "180257.050000", "180257.053000", "180257.056000", "180257.059000", "180257.062000", "180257.065000", "180257.068000", "180257.071000", "180257.074000", "180257.077000", "180257.080000", "180257.083000", "180257.086000", "180257.089000", "180257.092000", "180257.095000", "180257.098000", "180257.101000", "180257.104000", "180257.107000", "180257.110000", "180257.113000", "180257.116000", "180337.037000", "180337.040000", "180337.043000", "180337.046000", "180337.049000", "180337.052000", "180337.055000", "180337.057000", "180337.060000", "180337.063000", "180337.066000", "180337.069000", "180337.072000", "180337.075000", "180337.078000", "180337.081000", "180337.084000", "180337.086000", "180337.089000", "180337.098000", "180337.100000", "180337.103000", "180337.106000", "180337.109000", "180337.112000", "180337.115000", "180337.118000", "180417.037000", "180417.040000", "180417.048000", "180417.051000", "180417.054000", "180417.057000", "180417.060000", "180417.063000", "180417.066000", "180417.069000", "180417.072000", "180417.075000", "180417.078000", "180417.081000", "180417.084000", "180417.087000", "180417.090000", "180417.093000", "180417.096000", "180417.099000", "180417.102000", "180417.105000", "180417.108000", "180417.110000", "180417.113000", "180417.123000", "180417.126000", "180457.038000", "180457.041000", "180457.044000", "180457.047000", "180457.050000", "180457.053000", "180457.056000", "180457.059000", "180457.062000", "180457.065000", "180457.068000", "180457.071000", "180457.074000", "180457.077000", "180457.079000", "180457.082000", "180457.085000", "180457.088000", "180457.091000", "180457.094000", "180457.097000", "180457.100000", "180457.103000", "180457.106000", "180457.109000", "180457.112000", "180457.114000", "180537.038000", "180537.041000", "180537.044000", "180537.047000", "180537.050000", "180537.053000", "180537.056000", "180537.059000", "180537.075000", "180537.078000", "180537.080000", "180537.083000", "180537.098000", "180537.101000", "180537.104000", "180537.107000", "180537.110000", "180537.113000", "180537.116000", "180537.119000", "180537.122000", "180537.125000", "180537.128000", "180537.131000", "180537.134000", "180537.137000", "180617.037000", "180617.040000", "180617.043000", "180617.046000", "180617.049000", "180617.052000", "180617.055000", "180617.058000", "180617.060000", "180617.063000", "180617.066000", "180617.069000", "180617.072000", "180617.075000", "180617.078000", "180617.081000", "180617.084000", "180617.087000", "180617.090000", "180617.092000", "180617.095000", "180617.098000", "180617.101000", "180617.104000", "180617.107000", "180617.110000", "180617.113000", "180657.037000", "180657.040000", "180657.043000", "180657.046000", "180657.049000", "180657.052000", "180657.055000", "180657.058000", "180657.060000", "180657.063000", "180657.066000", "180657.069000", "180657.072000", "180657.075000", "180657.078000", "180657.081000", "180657.084000", "180657.087000", "180657.090000", "180657.092000", "180657.095000", "180657.098000", "180657.101000", "180657.104000", "180657.107000", "180657.110000", "180657.113000", "180737.038000", "180737.041000", "180737.044000", "180737.047000", "180737.050000", "180737.053000", "180737.056000", "180737.059000", "180737.062000", "180737.064000", "180737.067000", "180737.070000", "180737.073000", "180737.076000", "180737.079000", "180737.082000", "180737.085000", "180737.088000", "180737.091000", "180737.094000", "180737.097000", "180737.099000", "180737.102000", "180737.105000", "180737.108000", "180737.111000", "180737.114000", "180817.037000", "180817.040000", "180817.043000", "180817.047000", "180817.050000", "180817.053000", "180817.064000", "180817.067000", "180817.070000", "180817.073000", "180817.076000", "180817.079000", "180817.082000", "180817.085000", "180817.088000", "180817.091000", "180817.094000", "180817.097000", "180817.099000", "180817.102000", "180817.105000", "180817.108000", "180817.111000", "180817.114000", "180817.117000", "180817.120000", "180817.123000", "180857.037000", "180857.040000", "180857.043000", "180857.046000", "180857.049000", "180857.052000", "180857.055000", "180857.058000", "180857.061000", "180857.063000", "180857.066000", "180857.069000", "180857.072000", "180857.075000", "180857.078000", "180857.081000", "180857.084000", "180857.087000", "180857.090000", "180857.093000", "180857.096000", "180857.099000", "180857.102000", "180857.105000", "180857.108000", "180857.110000", "180857.129000", "180919.116000", "180919.119000", "180919.122000", "180919.125000", "180919.128000", "180919.131000", "180919.134000", "180919.137000", "180919.140000", "180919.143000", "180919.146000", "180919.150000", "180919.153000", "180919.156000", "180919.159000"],
