{
  "AcquisitionMatrixPE": 104,
  "AcquisitionNumber": 1,
  "AcquisitionTime": "18:21:26.275000",
  "BandwidthPerPixelPhaseEncode": 17.17,
  "BaseResolution": 104,
  "BodyPartExamined": "BRAIN",
  "CoilCombinationMethod": "Sum of Squares",
  "ConsistencyInfo": "N4_VE11C_LATEST_20160120",
  "ConversionSoftware": "dcm2niix",
  "ConversionSoftwareVersion": "v1.0.20220505",
  "DerivedVendorReportedEchoSpacing": 0.000560011,
  "DeviceSerialNumber": "167006",
  "DwellTime": 2.1e-06,
  "EchoTime": 0.037,
  "EchoTrainLength": 104,
  "EffectiveEchoSpacing": 0.000560011,
  "FlipAngle": 52,
  "HeudiconvVersion": "0.5.3.post811+g6206e14",
  "ImageComments": "Unaliased MB4/PE3/LB",
  "ImageOrientationPatientDICOM": [0.999744, -0.0219145, -0.00561919, 0.0184979, 0.934815, -0.354652],
  "ImageOrientationText": "Tra>Cor(-20.8)>Sag(-0.7)",
  "ImageType": [
    "ORIGINAL",
    "PRIMARY",
    "M",
    "MB",
    "ND",
    "MOSAIC"
],
  "ImagingFrequency": 123.259,
  "InPlanePhaseEncodingDirectionDICOM": "COL",
  "InstitutionAddress": "Chemin Queen-Mary 4565,Montreal,District,CA,H3W 1W5",
  "InstitutionName": "IUGM",
  "InstitutionalDepartmentName": "Department",
  "MRAcquisitionType": "2D",
  "MagneticFieldStrength": 3,
  "Manufacturer": "Siemens",
  "ManufacturersModelName": "Prisma_fit",
  "MatrixCoilMode": "SENSE",
  "Modality": "MR",
  "MultibandAccelerationFactor": 4,
  "PartialFourier": 1,
  "PatientPosition": "HFS",
  "PercentPhaseFOV": 100,
  "PercentSampling": 100,
  "PhaseEncodingDirection": "j",
  "PhaseEncodingSteps": 104,
  "PhaseResolution": 1,
  "PixelBandwidth": 2290,
  "ProcedureStepDescription": "video^friends",
  "ProtocolName": "func_task-friends-s06e03a",
  "PulseSequenceDetails": "%CustomerSeq%\\cmrr_mbep2d_bold",
  "ReceiveCoilActiveElements": "HC1-7;NC1,2",
  "ReceiveCoilName": "HeadNeck_64",
  "ReconMatrixPE": 104,
  "RepetitionTime": 1.49,
  "SAR": 0.0740399,
  "ScanOptions": "FS",
  "ScanningSequence": "EP",
  "SequenceName": "epfid2d1_104",
  "SequenceVariant": "SK\\SS",
  "SeriesDescription": "func_task-friends-s06e03a",
  "SeriesNumber": 14,
  "ShimSetting": [618, -7273, -8833, 406, 18, -402, -9, 46],
  "SliceThickness": 2,
  "SliceTiming": [0, 0.785, 0.1, 0.8825, 0.1975, 0.98, 0.295, 1.08, 0.3925, 1.1775, 0.49, 1.275, 0.59, 1.3725, 0.6875, 0, 0.785, 0.1, 0.8825, 0.1975, 0.98, 0.295, 1.08, 0.3925, 1.1775, 0.49, 1.275, 0.59, 1.3725, 0.6875, 0, 0.785, 0.1, 0.8825, 0.1975, 0.98, 0.295, 1.08, 0.3925, 1.1775, 0.49, 1.275, 0.59, 1.3725, 0.6875, 0, 0.785, 0.1, 0.8825, 0.1975, 0.98, 0.295, 1.08, 0.3925, 1.1775, 0.49, 1.275, 0.59, 1.3725, 0.6875],
  "SoftwareVersions": "syngo MR E11",
  "SpacingBetweenSlices": 2,
  "StationName": "MRC35049",
  "TaskName": "s06e03a",
  "TotalReadoutTime": 0.0576811,
  "TxRefAmp": 293.453,
  "WipMemBlock": "55909e69-29f2-42a6-8d75-7d3ea298db2f||Sequence: R017 ve11c/master r/75a17815+; Jun 28 2022 16:32:11 by eja",
  "dcmmeta_affine": [
    [-1.999488115310669, 0.036995742470026016, -0.02604985237121582, 98.26258850097656],
    [0.043828971683979034, 1.8696305751800537, -0.708915114402771, -74.21338653564453],
    [-0.011238377541303635, 0.7093045711517334, 1.8699626922607422, -67.96468353271484],
    [0.0, 0.0, 0.0, 1.0]
],
  "dcmmeta_reorient_transform": [
    [0.0, -1.0, 0.0, 103.0],
    [1.0, 0.0, 0.0, 0.0],
    [0.0, 0.0, 1.0, 0.0],
    [0.0, 0.0, 0.0, 1.0]
],
  "dcmmeta_shape": [104, 104, 60, 439],
  "dcmmeta_slice_dim": 2,
  "dcmmeta_version": 0.6,
  "global": {
    "const": {
      "AcquisitionMatrix": [104, 0, 0, 104],
      "AngioFlag": "N",
      "BitsAllocated": 16,
      "BitsStored": 16,
      "BodyPartExamined": "BRAIN",
      "Columns": 832,
      "EchoNumbers": 1,
      "EchoTime": 37.0,
      "EchoTrainLength": 104,
      "FlipAngle": 52.0,
      "HighBit": 15,
      "ImageOrientationPatient": [0.99974405726799, -0.0219144854717, -0.0056191888964, 0.01849787177594, 0.93481526675497, -0.3546522885611],
      "ImagePositionPatient": [-843.35327149294, -782.95032395953, 267.3713231936],
      "ImageType": [
        "ORIGINAL",
        "PRIMARY",
        "M",
        "MB",
        "ND",
        "MOSAIC"
],
      "ImagedNucleus": "1H",
      "ImagingFrequency": 123.258802,
      "InPlanePhaseEncodingDirection": "COL",
      "MRAcquisitionType": "2D",
      "MagneticFieldStrength": 3.0,
      "Manufacturer": "SIEMENS",
      "ManufacturerModelName": "Prisma_fit",
      "Modality": "MR",
      "NumberOfAverages": 1.0,
      "NumberOfPhaseEncodingSteps": 104,
      "PercentPhaseFieldOfView": 100.0,
      "PercentSampling": 100.0,
      "PerformedProcedureStepStartTime": "175113.652000",
      "PhotometricInterpretation": "MONOCHROME2",
      "PixelBandwidth": 2290.0,
      "PixelRepresentation": 0,
      "PixelSpacing": [2.0, 2.0],
      "ProtocolName": "func_task-friends-s06e03a",
      "RepetitionTime": 1490.0,
      "Rows": 832,
      "SAR": 0.07403991318055,
      "SamplesPerPixel": 1,
      "ScanOptions": "FS",
      "ScanningSequence": "EP",
      "SequenceName": "epfid2d1_104",
      "SequenceVariant": [
        "SK",
        "SS"
],
      "SeriesDescription": "func_task-friends-s06e03a",
      "SeriesNumber": 14,
      "SeriesTime": "182242.110000",
      "SliceLocation": -38.520078560821,
      "SliceThickness": 2.0,
      "SmallestImagePixelValue": 0,
      "SoftwareVersions": "syngo MR E11",
      "SpacingBetweenSlices": 1.9999999724482,
      "SpecificCharacterSet": "ISO_IR 100",
      "StudyID": "1",
      "StudyTime": "175113.574000",
      "TransmitCoilName": "Body",
      "VariableFlipAngleFlag": "N",
      "WindowCenterWidthExplanation": "Algo1",
      "dBdt": 0.0},
    "slices": {}
  },
  "time": {
    "samples": {
      "AcquisitionNumber": [1, 2, 3, 4, 5, 6, 7, 8, 9, 10, 11, 12, 13, 14, 15, 16, 17, 18, 19, 20, 21, 22, 23, 24, 25, 26, 27, 28, 29, 30, 31, 32, 33, 34, 35, 36, 37, 38, 39, 40, 41, 42, 43, 44, 45, 46, 47, 48, 49, 50, 51, 52, 53, 54, 55, 56, 57, 58, 59, 60, 61, 62, 63, 64, 65, 66, 67, 68, 69, 70, 71, 72, 73, 74, 75, 76, 77, 78, 79, 80, 81, 82, 83, 84, 85, 86, 87, 88, 89, 90, 91, 92, 93, 94, 95, 96, 97, 98, 99, 100, 101, 102, 103, 104, 105, 106, 107, 108, 109, 110, 111, 112, 113, 114, 115, 116, 117, 118, 119, 120, 121, 122, 123, 124, 125, 126, 127, 128, 129, 130, 131, 132, 133, 134, 135, 136, 137, 138, 139, 140, 141, 142, 143, 144, 145, 146, 147, 148, 149, 150, 151, 152, 153, 154, 155, 156, 157, 158, 159, 160, 161, 162, 163, 164, 165, 166, 167, 168, 169, 170, 171, 172, 173, 174, 175, 176, 177, 178, 179, 180, 181, 182, 183, 184, 185, 186, 187, 188, 189, 190, 191, 192, 193, 194, 195, 196, 197, 198, 199, 200, 201, 202, 203, 204, 205, 206, 207, 208, 209, 210, 211, 212, 213, 214, 215, 216, 217, 218, 219, 220, 221, 222, 223, 224, 225, 226, 227, 228, 229, 230, 231, 232, 233, 234, 235, 236, 237, 238, 239, 240, 241, 242, 243, 244, 245, 246, 247, 248, 249, 250, 251, 252, 253, 254, 255, 256, 257, 258, 259, 260, 261, 262, 263, 264, 265, 266, 267, 268, 269, 270, 271, 272, 273, 274, 275, 276, 277, 278, 279, 280, 281, 282, 283, 284, 285, 286, 287, 288, 289, 290, 291, 292, 293, 294, 295, 296, 297, 298, 299, 300, 301, 302, 303, 304, 305, 306, 307, 308, 309, 310, 311, 312, 313, 314, 315, 316, 317, 318, 319, 320, 321, 322, 323, 324, 325, 326, 327, 328, 329, 330, 331, 332, 333, 334, 335, 336, 337, 338, 339, 340, 341, 342, 343, 344, 345, 346, 347, 348, 349, 350, 351, 352, 353, 354, 355, 356, 357, 358, 359, 360, 361, 362, 363, 364, 365, 366, 367, 368, 369, 370, 371, 372, 373, 374, 375, 376, 377, 378, 379, 380, 381, 382, 383, 384, 385, 386, 387, 388, 389, 390, 391, 392, 393, 394, 395, 396, 397, 398, 399, 400, 401, 402, 403, 404, 405, 406, 407, 408, 409, 410, 411, 412, 413, 414, 415, 416, 417, 418, 419, 420, 421, 422, 423, 424, 425, 426, 427, 428, 429, 430, 431, 432, 433, 434, 435, 436, 437, 438, 439],
      "AcquisitionTime": ["182126.275000", "182127.765000", "182129.255000", "182130.745000", "182132.235000", "182133.725000", "182135.215000", "182136.705000", "182138.195000", "182139.685000", "182141.175000", "182142.665000", "182144.155000", "182145.645000", "182147.135000", "182148.625000", "182150.115000", "182151.605000", "182153.095000", "182154.585000", "182156.075000", "182157.565000", "182159.055000", "182200.545000", "182202.035000", "182203.525000", "182205.015000", "182206.505000", "182207.995000", "182209.485000", "182210.975000", "182212.465000", "182213.955000", "182215.445000", "182216.935000", "182218.425000", "182219.915000", "182221.405000", "182222.895000", "182224.385000", "182225.875000", "182227.365000", "182228.855000", "182230.345000", "182231.835000", "182233.325000", "182234.815000", "182236.305000", "182237.795000", "182239.285000", "182240.775000", "182242.265000", "182243.755000", "182245.245000", "182246.735000", "182248.225000", "182249.715000", "182251.205000", "182252.695000", "182254.185000", "182255.675000", "182257.165000", "182258.655000", "182300.145000", "182301.635000", "182303.125000", "182304.615000", "182306.105000", "182307.595000", "182309.085000", "182310.575000", "182312.065000", "182313.555000", "182315.045000", "182316.535000", "182318.025000", "182319.515000", "182321.005000", "182322.495000", "182323.985000", "182325.475000", "182326.965000", "182328.455000", "182329.945000", "182331.435000", "182332.925000", "182334.415000", "182335.905000", "182337.395000", "182338.885000", "182340.375000", "182341.865000", "182343.355000", "182344.845000", "182346.335000", "182347.825000", "182349.315000", "182350.805000", "182352.295000", "182353.785000", "182355.275000", "182356.765000", "182358.255000", "182359.745000", "182401.235000", "182402.725000", "182404.215000", "182405.705000", "182407.195000", "182408.685000", "182410.175000", "182411.665000", "182413.155000", "182414.645000", "182416.135000", "182417.625000", "182419.115000", "182420.605000", "182422.095000", "182423.585000", "182425.075000", "182426.565000", "182428.055000", "182429.545000", "182431.035000", "182432.525000", "182434.015000", "182435.505000", "182436.995000", "182438.485000", "182439.975000", "182441.465000", "182442.955000", "182444.445000", "182445.935000", "182447.425000", "182448.915000", "182450.405000", "182451.895000", "182453.385000", "182454.875000", "182456.365000", "182457.855000", "182459.345000", "182500.835000", "182502.325000", "182503.815000", "182505.305000", "182506.795000", "182508.285000", "182509.775000", "182511.265000", "182512.755000", "182514.245000", "182515.735000", "182517.225000", "182518.715000", "182520.205000", "182521.695000", "182523.185000", "182524.675000", "182526.165000", "182527.655000", "182529.145000", "182530.635000", "182532.125000", "182533.615000", "182535.105000", "182536.595000", "182538.085000", "182539.575000", "182541.065000", "182542.555000", "182544.045000", "182545.535000", "182547.025000", "182548.515000", "182550.005000", "182551.495000", "182552.985000", "182554.475000", "182555.965000", "182557.455000", "182558.945000", "182600.435000", "182601.925000", "182603.415000", "182604.905000", "182606.395000", "182607.885000", "182609.375000", "182610.865000", "182612.355000", "182613.845000", "182615.335000", "182616.825000", "182618.315000", "182619.805000", "182621.295000", "182622.785000", "182624.275000", "182625.765000", "182627.255000", "182628.745000", "182630.235000", "182631.725000", "182633.215000", "182634.705000", "182636.195000", "182637.685000", "182639.175000", "182640.665000", "182642.155000", "182643.645000", "182645.135000", "182646.625000", "182648.115000", "182649.605000", "182651.095000", "182652.585000", "182654.075000", "182655.565000", "182657.055000", "182658.545000", "182700.035000", "182701.525000", "182703.015000", "182704.505000", "182705.995000", "182707.485000", "182708.975000", "182710.465000", "182711.955000", "182713.445000", "182714.935000", "182716.425000", "182717.915000", "182719.405000", "182720.895000", "182722.385000", "182723.875000", "182725.365000", "182726.855000", "182728.345000", "182729.835000", "182731.325000", "182732.815000", "182734.305000", "182735.795000", "182737.285000", "182738.775000", "182740.265000", "182741.755000", "182743.245000", "182744.735000", "182746.225000", "182747.715000", "182749.205000", "182750.695000", "182752.185000", "182753.675000", "182755.165000", "182756.655000", "182758.145000", "182759.635000", "182801.125000", "182802.615000", "182804.105000", "182805.595000", "182807.085000", "182808.575000", "182810.065000", "182811.555000", "182813.045000", "182814.535000", "182816.025000", "182817.515000", "182819.005000", "182820.495000", "182821.985000", "182823.475000", "182824.965000", "182826.455000", "182827.945000", "182829.435000", "182830.925000", "182832.415000", "182833.905000", "182835.395000", "182836.885000", "182838.375000", "182839.865000", "182841.355000", "182842.845000", "182844.335000", "182845.825000", "182847.315000", "182848.805000", "182850.295000", "182851.785000", "182853.275000", "182854.765000", "182856.255000", "182857.745000", "182859.235000", "182900.725000", "182902.215000", "182903.705000", "182905.195000", "182906.685000", "182908.175000", "182909.665000", "182911.155000", "182912.645000", "182914.135000", "182915.625000", "182917.115000", "182918.605000", "182920.095000", "182921.585000", "182923.075000", "182924.565000", "182926.055000", "182927.545000", "182929.035000", "182930.525000", "182932.015000", "182933.505000", "182934.995000", "182936.485000", "182937.975000", "182939.465000", "182940.955000", "182942.445000", "182943.935000", "182945.425000", "182946.915000", "182948.405000", "182949.895000", "182951.385000", "182952.875000", "182954.365000", "182955.855000", "182957.345000", "182958.835000", "183000.325000", "183001.815000", "183003.305000", "183004.795000", "183006.285000", "183007.775000", "183009.265000", "183010.755000", "183012.245000", "183013.735000", "183015.225000", "183016.715000", "183018.205000", "183019.695000", "183021.185000", "183022.675000", "183024.165000", "183025.655000", "183027.145000", "183028.635000", "183030.125000", "183031.615000", "183033.105000", "183034.595000", "183036.085000", "183037.575000", "183039.065000", "183040.555000", "183042.045000", "183043.535000", "183045.025000", "183046.515000", "183048.005000", "183049.495000", "183050.985000", "183052.475000", "183053.965000", "183055.455000", "183056.945000", "183058.435000", "183059.925000", "183101.415000", "183102.905000", "183104.395000", "183105.885000", "183107.375000", "183108.865000", "183110.355000", "183111.845000", "183113.335000", "183114.825000", "183116.315000", "183117.805000", "183119.295000", "183120.785000", "183122.275000", "183123.765000", "183125.255000", "183126.745000", "183128.235000", "183129.725000", "183131.215000", "183132.705000", "183134.195000", "183135.685000", "183137.175000", "183138.665000", "183140.155000", "183141.645000", "183143.135000", "183144.625000", "183146.115000", "183147.605000", "183149.095000", "183150.585000", "183152.075000", "183153.565000", "183155.055000", "183156.545000", "183158.035000", "183159.525000", "183201.015000", "183202.505000", "183203.995000", "183205.485000", "183206.975000", "183208.465000", "183209.955000", "183211.445000", "183212.935000", "183214.425000", "183215.915000", "183217.405000", "183218.895000"],
      "ContentTime": ["182242.113000", "182242.116000", "182242.119000", "182242.122000", "182242.125000", "182242.128000", "182242.131000", "182242.134000", "182242.137000", "182242.140000", "182242.143000", "182242.146000", "182242.163000", "182242.165000", "182242.168000", "182242.171000", "182242.174000", "182242.177000", "182242.180000", "182242.183000", "182242.186000", "182242.189000", "182242.192000", "182242.195000", "182242.198000", "182242.201000", "182242.204000", "182302.070000", "182302.073000", "182302.076000", "182302.079000", "182302.082000", "182302.085000", "182302.088000", "182302.091000", "182302.099000", "182302.102000", "182302.105000", "182302.108000", "182302.111000", "182302.114000", "182302.116000", "182302.119000", "182302.122000", "182302.125000", "182302.128000", "182302.131000", "182302.134000", "182322.070000", "182322.073000", "182322.076000", "182322.087000", "182322.090000", "182322.093000", "182322.096000", "182322.099000", "182322.102000", "182322.105000", "182322.108000", "182322.110000", "182322.113000", "182322.116000", "182322.119000", "182322.122000", "182322.125000", "182322.128000", "182322.131000", "182322.134000", "182342.070000", "182342.073000", "182342.076000", "182342.079000", "182342.082000", "182342.085000", "182342.088000", "182342.091000", "182342.094000", "182342.097000", "182342.100000", "182342.103000", "182342.105000", "182342.108000", "182342.111000", "182342.114000", "182342.117000", "182342.120000", "182342.123000", "182342.125000", "182422.070000", "182422.073000", "182422.076000", "182422.079000", "182422.090000", "182422.093000", "182422.101000", "182422.104000", "182422.107000", "182422.110000", "182422.113000", "182422.116000", "182422.119000", "182422.122000", "182422.124000", "182422.127000", "182422.130000", "182422.133000", "182422.150000", "182422.153000", "182422.156000", "182422.159000", "182422.162000", "182422.165000", "182422.168000", "182422.171000", "182422.173000", "182422.176000", "182422.179000", "182502.070000", "182502.073000", "182502.076000", "182502.079000", "182502.082000", "182502.085000", "182502.088000", "182502.090000", "182502.093000", "182502.096000", "182502.099000", "182502.102000", "182502.105000", "182502.108000", "182502.111000", "182502.114000", "182502.117000", "182502.120000", "182502.123000", "182502.126000", "182502.128000", "182502.131000", "182502.134000", "182502.137000", "182502.140000", "182502.143000", "182502.146000", "182542.070000", "182542.073000", "182542.077000", "182542.079000", "182542.082000", "182542.085000", "182542.088000", "182542.091000", "182542.094000", "182542.097000", "182542.100000", "182542.103000", "182542.106000", "182542.109000", "182542.112000", "182542.115000", "182542.118000", "182542.121000", "182542.123000", "182542.126000", "182542.129000", "182542.132000", "182542.135000", "182542.138000", "182542.141000", "182542.144000", "182622.070000", "182622.073000", "182622.076000", "182622.079000", "182622.082000", "182622.085000", "182622.088000", "182622.091000", "182622.093000", "182622.096000", "182622.099000", "182622.102000", "182622.105000", "182622.108000", "182622.111000", "182622.114000", "182622.117000", "182622.120000", "182622.123000", "182622.126000", "182622.129000", "182622.132000", "182622.134000", "182622.137000", "182622.140000", "182622.143000", "182622.146000", "182702.070000", "182702.073000", "182702.076000", "182702.079000", "182702.082000", "182702.085000", "182702.087000", "182702.090000", "182702.093000", "182702.096000", "182702.099000", "182702.102000", "182702.105000", "182702.108000", "182702.111000", "182702.114000", "182702.125000", "182702.128000", "182702.131000", "182702.139000", "182702.142000", "182702.145000", "182702.148000", "182702.151000", "182702.154000", "182702.157000", "182702.160000", "182742.070000", "182742.073000", "182742.076000", "182742.079000", "182742.082000", "182742.085000", "182742.088000", "182742.091000", "182742.093000", "182742.096000", "182742.099000", "182742.102000", "182742.105000", "182742.108000", "182742.111000", "182742.114000", "182742.127000", "182742.130000", "182742.133000", "182742.135000", "182742.138000", "182742.141000", "182742.144000", "182742.147000", "182742.150000", "182742.153000", "182742.156000", "182822.070000", "182822.073000", "182822.076000", "182822.079000", "182822.082000", "182822.085000", "182822.088000", "182822.091000", "182822.094000", "182822.097000", "182822.100000", "182822.102000", "182822.105000", "182822.108000", "182822.111000", "182822.114000", "182822.117000", "182822.120000", "182822.123000", "182822.126000", "182822.129000", "182822.132000", "182822.135000", "182822.137000", "182822.140000", "182822.143000", "182822.146000", "182902.070000", "182902.073000", "182902.076000", "182902.079000", "182902.082000", "182902.085000", "182902.087000", "182902.090000", "182902.093000", "182902.096000", "182902.099000", "182902.102000", "182902.105000", "182902.108000", "182902.111000", "182902.113000", "182902.116000", "182902.119000", "182902.122000", "182902.125000", "182902.128000", "182902.131000", "182902.134000", "182902.137000", "182902.140000", "182902.143000", "182902.145000", "182942.070000", "182942.073000", "182942.076000", "182942.079000", "182942.082000", "182942.085000", "182942.088000", "182942.091000", "182942.094000", "182942.096000", "182942.099000", "182942.102000", "182942.112000", "182942.115000", "182942.117000", "182942.120000", "182942.123000", "182942.126000", "182942.129000", "182942.132000", "182942.135000", "182942.138000", "182942.141000", "182942.144000", "182942.147000", "182942.150000", "182942.153000", "183022.070000", "183022.073000", "183022.076000", "183022.079000", "183022.082000", "183022.085000", "183022.088000", "183022.091000", "183022.094000", "183022.097000", "183022.099000", "183022.102000", "183022.105000", "183022.108000", "183022.111000", "183022.114000", "183022.117000", "183022.120000", "183022.123000", "183022.126000", "183022.129000", "183022.132000", "183022.135000", "183022.138000", "183022.140000", "183022.143000", "183102.070000", "183102.073000", "183102.076000", "183102.079000", "183102.082000", "183102.085000", "183102.088000", "183102.091000", "183102.094000", "183102.097000", "183102.100000", "183102.102000", "183102.105000", "183102.108000", "183102.111000", "183102.114000", "183102.117000", "183102.129000", "183102.132000", "183102.135000", "183102.138000", "183102.141000", "183102.144000", "183102.147000", "183102.149000", "183102.152000", "183102.155000", "183142.070000", "183142.073000", "183142.076000", "183142.079000", "183142.082000", "183142.086000", "183142.089000", "183142.092000", "183142.095000", "183142.098000", "183142.100000", "183142.103000", "183142.106000", "183142.109000", "183142.112000", "183142.115000", "183142.118000", "183142.121000", "183142.124000", "183142.127000", "183142.130000", "183142.132000", "183142.135000", "183142.138000", "183142.141000", "183142.144000", "183142.147000", "183221.446000", "183221.458000", "183221.461000", "183221.464000", "183221.467000", "183221.470000", "183221.473000", "183221.476000", "183221.480000", "183221.483000", "183221.486000", "183221.489000", "183221.492000", "183221.495000", "183221.498000", "183221.501000", "183221.504000", "183221.507000", "183221.510000", "183221.513000", "183221.516000", "183221.519000", "183221.522000", "183221.525000", "183221.528000", "183221.531000", "183221.534000"],
