{
  "AcquisitionMatrixPE": 104,
  "AcquisitionNumber": 1,
  "AcquisitionTime": "18:07:48.310000",
  "BandwidthPerPixelPhaseEncode": 17.17,
  "BaseResolution": 104,
  "BodyPartExamined": "BRAIN",
  "CoilCombinationMethod": "Sum of Squares",
  "ConsistencyInfo": "N4_VE11C_LATEST_20160120",
  "ConversionSoftware": "dcm2niix",
  "ConversionSoftwareVersion": "v1.0.20220505",
  "DerivedVendorReportedEchoSpacing": 0.000560011,
  "DeviceSerialNumber": "167006",
  "DwellTime": 2.1e-06,
  "EchoTime": 0.037,
  "EchoTrainLength": 104,
  "EffectiveEchoSpacing": 0.000560011,
  "FlipAngle": 52,
  "HeudiconvVersion": "0.5.3.post811+g6206e14",
  "ImageComments": "Unaliased MB4/PE3/LB",
  "ImageOrientationPatientDICOM": [0.999744, -0.0219145, -0.00561919, 0.0184979, 0.934815, -0.354652],
  "ImageOrientationText": "Tra>Cor(-20.8)>Sag(-0.7)",
  "ImageType": [
    "ORIGINAL",
    "PRIMARY",
    "M",
    "MB",
    "ND",
    "MOSAIC"
],
  "ImagingFrequency": 123.259,
  "InPlanePhaseEncodingDirectionDICOM": "COL",
  "InstitutionAddress": "Chemin Queen-Mary 4565,Montreal,District,CA,H3W 1W5",
  "InstitutionName": "IUGM",
  "InstitutionalDepartmentName": "Department",
  "MRAcquisitionType": "2D",
  "MagneticFieldStrength": 3,
  "Manufacturer": "Siemens",
  "ManufacturersModelName": "Prisma_fit",
  "MatrixCoilMode": "SENSE",
  "Modality": "MR",
  "MultibandAccelerationFactor": 4,
  "PartialFourier": 1,
  "PatientPosition": "HFS",
  "PercentPhaseFOV": 100,
  "PercentSampling": 100,
  "PhaseEncodingDirection": "j",
  "PhaseEncodingSteps": 104,
  "PhaseResolution": 1,
  "PixelBandwidth": 2290,
  "ProcedureStepDescription": "video^friends",
  "ProtocolName": "func_task-friends-s06e02b",
  "PulseSequenceDetails": "%CustomerSeq%\\cmrr_mbep2d_bold",
  "ReceiveCoilActiveElements": "HC1-7;NC1,2",
  "ReceiveCoilName": "HeadNeck_64",
  "ReconMatrixPE": 104,
  "RepetitionTime": 1.49,
  "SAR": 0.0740399,
  "ScanOptions": "FS",
  "ScanningSequence": "EP",
  "SequenceName": "epfid2d1_104",
  "SequenceVariant": "SK\\SS",
  "SeriesDescription": "func_task-friends-s06e02b",
  "SeriesNumber": 12,
  "ShimSetting": [618, -7273, -8833, 406, 18, -402, -9, 46],
  "SliceThickness": 2,
  "SliceTiming": [0, 0.785, 0.1, 0.8825, 0.1975, 0.98, 0.295, 1.08, 0.3925, 1.1775, 0.49, 1.275, 0.59, 1.3725, 0.6875, 0, 0.785, 0.1, 0.8825, 0.1975, 0.98, 0.295, 1.08, 0.3925, 1.1775, 0.49, 1.275, 0.59, 1.3725, 0.6875, 0, 0.785, 0.1, 0.8825, 0.1975, 0.98, 0.295, 1.08, 0.3925, 1.1775, 0.49, 1.275, 0.59, 1.3725, 0.6875, 0, 0.785, 0.1, 0.8825, 0.1975, 0.98, 0.295, 1.08, 0.3925, 1.1775, 0.49, 1.275, 0.59, 1.3725, 0.6875],
  "SoftwareVersions": "syngo MR E11",
  "SpacingBetweenSlices": 2,
  "StationName": "MRC35049",
  "TaskName": "s06e02b",
  "TotalReadoutTime": 0.0576811,
  "TxRefAmp": 293.453,
  "WipMemBlock": "0a02a255-d2c1-4fd7-9c43-4e5959e7e9b2||Sequence: R017 ve11c/master r/75a17815+; Jun 28 2022 16:32:11 by eja",
  "dcmmeta_affine": [
    [-1.999488115310669, 0.036995742470026016, -0.02604985237121582, 98.26258850097656],
    [0.043828971683979034, 1.8696305751800537, -0.708915114402771, -74.21338653564453],
    [-0.011238377541303635, 0.7093045711517334, 1.8699626922607422, -67.96468353271484],
    [0.0, 0.0, 0.0, 1.0]
],
  "dcmmeta_reorient_transform": [
    [0.0, -1.0, 0.0, 103.0],
    [1.0, 0.0, 0.0, 0.0],
    [0.0, 0.0, 1.0, 0.0],
    [0.0, 0.0, 0.0, 1.0]
],
  "dcmmeta_shape": [104, 104, 60, 487],
  "dcmmeta_slice_dim": 2,
  "dcmmeta_version": 0.6,
  "global": {
    "const": {
      "AcquisitionMatrix": [104, 0, 0, 104],
      "AngioFlag": "N",
      "BitsAllocated": 16,
      "BitsStored": 16,
      "BodyPartExamined": "BRAIN",
      "Columns": 832,
      "EchoNumbers": 1,
      "EchoTime": 37.0,
      "EchoTrainLength": 104,
      "FlipAngle": 52.0,
      "HighBit": 15,
      "ImageOrientationPatient": [0.99974405726799, -0.0219144854717, -0.0056191888964, 0.01849787177594, 0.93481526675497, -0.3546522885611],
      "ImagePositionPatient": [-843.35327149294, -782.95032395953, 267.3713231936],
      "ImageType": [
        "ORIGINAL",
        "PRIMARY",
        "M",
        "MB",
        "ND",
        "MOSAIC"
],
      "ImagedNucleus": "1H",
      "ImagingFrequency": 123.258799,
      "InPlanePhaseEncodingDirection": "COL",
      "MRAcquisitionType": "2D",
      "MagneticFieldStrength": 3.0,
      "Manufacturer": "SIEMENS",
      "ManufacturerModelName": "Prisma_fit",
      "Modality": "MR",
      "NumberOfAverages": 1.0,
      "NumberOfPhaseEncodingSteps": 104,
      "PercentPhaseFieldOfView": 100.0,
      "PercentSampling": 100.0,
      "PerformedProcedureStepStartTime": "175113.652000",
      "PhotometricInterpretation": "MONOCHROME2",
      "PixelBandwidth": 2290.0,
      "PixelRepresentation": 0,
      "PixelSpacing": [2.0, 2.0],
      "ProtocolName": "func_task-friends-s06e02b",
      "RepetitionTime": 1490.0,
      "Rows": 832,
      "SAR": 0.07403991773611,
      "SamplesPerPixel": 1,
      "ScanOptions": "FS",
      "ScanningSequence": "EP",
      "SequenceName": "epfid2d1_104",
      "SequenceVariant": [
        "SK",
        "SS"
],
      "SeriesDescription": "func_task-friends-s06e02b",
      "SeriesNumber": 12,
      "SeriesTime": "180900.054000",
      "SliceLocation": -38.520078560821,
      "SliceThickness": 2.0,
      "SmallestImagePixelValue": 0,
      "SoftwareVersions": "syngo MR E11",
      "SpacingBetweenSlices": 1.9999999724482,
      "SpecificCharacterSet": "ISO_IR 100",
      "StudyID": "1",
      "StudyTime": "175113.574000",
      "TransmitCoilName": "Body",
      "VariableFlipAngleFlag": "N",
      "WindowCenterWidthExplanation": "Algo1",
      "dBdt": 0.0},
    "slices": {}
  },
  "time": {
    "samples": {
      "AcquisitionNumber": [1, 2, 3, 4, 5, 6, 7, 8, 9, 10, 11, 12, 13, 14, 15, 16, 17, 18, 19, 20, 21, 22, 23, 24, 25, 26, 27, 28, 29, 30, 31, 32, 33, 34, 35, 36, 37, 38, 39, 40, 41, 42, 43, 44, 45, 46, 47, 48, 49, 50, 51, 52, 53, 54, 55, 56, 57, 58, 59, 60, 61, 62, 63, 64, 65, 66, 67, 68, 69, 70, 71, 72, 73, 74, 75, 76, 77, 78, 79, 80, 81, 82, 83, 84, 85, 86, 87, 88, 89, 90, 91, 92, 93, 94, 95, 96, 97, 98, 99, 100, 101, 102, 103, 104, 105, 106, 107, 108, 109, 110, 111, 112, 113, 114, 115, 116, 117, 118, 119, 120, 121, 122, 123, 124, 125, 126, 127, 128, 129, 130, 131, 132, 133, 134, 135, 136, 137, 138, 139, 140, 141, 142, 143, 144, 145, 146, 147, 148, 149, 150, 151, 152, 153, 154, 155, 156, 157, 158, 159, 160, 161, 162, 163, 164, 165, 166, 167, 168, 169, 170, 171, 172, 173, 174, 175, 176, 177, 178, 179, 180, 181, 182, 183, 184, 185, 186, 187, 188, 189, 190, 191, 192, 193, 194, 195, 196, 197, 198, 199, 200, 201, 202, 203, 204, 205, 206, 207, 208, 209, 210, 211, 212, 213, 214, 215, 216, 217, 218, 219, 220, 221, 222, 223, 224, 225, 226, 227, 228, 229, 230, 231, 232, 233, 234, 235, 236, 237, 238, 239, 240, 241, 242, 243, 244, 245, 246, 247, 248, 249, 250, 251, 252, 253, 254, 255, 256, 257, 258, 259, 260, 261, 262, 263, 264, 265, 266, 267, 268, 269, 270, 271, 272, 273, 274, 275, 276, 277, 278, 279, 280, 281, 282, 283, 284, 285, 286, 287, 288, 289, 290, 291, 292, 293, 294, 295, 296, 297, 298, 299, 300, 301, 302, 303, 304, 305, 306, 307, 308, 309, 310, 311, 312, 313, 314, 315, 316, 317, 318, 319, 320, 321, 322, 323, 324, 325, 326, 327, 328, 329, 330, 331, 332, 333, 334, 335, 336, 337, 338, 339, 340, 341, 342, 343, 344, 345, 346, 347, 348, 349, 350, 351, 352, 353, 354, 355, 356, 357, 358, 359, 360, 361, 362, 363, 364, 365, 366, 367, 368, 369, 370, 371, 372, 373, 374, 375, 376, 377, 378, 379, 380, 381, 382, 383, 384, 385, 386, 387, 388, 389, 390, 391, 392, 393, 394, 395, 396, 397, 398, 399, 400, 401, 402, 403, 404, 405, 406, 407, 408, 409, 410, 411, 412, 413, 414, 415, 416, 417, 418, 419, 420, 421, 422, 423, 424, 425, 426, 427, 428, 429, 430, 431, 432, 433, 434, 435, 436, 437, 438, 439, 440, 441, 442, 443, 444, 445, 446, 447, 448, 449, 450, 451, 452, 453, 454, 455, 456, 457, 458, 459, 460, 461, 462, 463, 464, 465, 466, 467, 468, 469, 470, 471, 472, 473, 474, 475, 476, 477, 478, 479, 480, 481, 482, 483, 484, 485, 486, 487],
      "AcquisitionTime": ["180748.310000", "180749.800000", "180751.290000", "180752.780000", "180754.270000", "180755.760000", "180757.250000", "180758.740000", "180800.230000", "180801.720000", "180803.210000", "180804.700000", "180806.190000", "180807.680000", "180809.170000", "180810.660000", "180812.150000", "180813.640000", "180815.130000", "180816.620000", "180818.110000", "180819.600000", "180821.090000", "180822.580000", "180824.070000", "180825.560000", "180827.050000", "180828.540000", "180830.030000", "180831.520000", "180833.010000", "180834.500000", "180835.990000", "180837.480000", "180838.970000", "180840.460000", "180841.950000", "180843.440000", "180844.930000", "180846.420000", "180847.910000", "180849.400000", "180850.890000", "180852.380000", "180853.870000", "180855.360000", "180856.850000", "180858.340000", "180859.830000", "180901.320000", "180902.810000", "180904.300000", "180905.790000", "180907.280000", "180908.770000", "180910.260000", "180911.750000", "180913.240000", "180914.730000", "180916.220000", "180917.710000", "180919.200000", "180920.690000", "180922.180000", "180923.670000", "180925.160000", "180926.650000", "180928.140000", "180929.630000", "180931.120000", "180932.610000", "180934.100000", "180935.590000", "180937.080000", "180938.570000", "180940.060000", "180941.550000", "180943.040000", "180944.530000", "180946.020000", "180947.510000", "180949.000000", "180950.490000", "180951.980000", "180953.470000", "180954.960000", "180956.450000", "180957.940000", "180959.430000", "181000.920000", "181002.410000", "181003.900000", "181005.390000", "181006.880000", "181008.370000", "181009.860000", "181011.350000", "181012.840000", "181014.330000", "181015.820000", "181017.310000", "181018.800000", "181020.290000", "181021.780000", "181023.270000", "181024.760000", "181026.250000", "181027.740000", "181029.230000", "181030.720000", "181032.210000", "181033.700000", "181035.190000", "181036.680000", "181038.170000", "181039.660000", "181041.150000", "181042.640000", "181044.130000", "181045.620000", "181047.110000", "181048.600000", "181050.090000", "181051.580000", "181053.070000", "181054.560000", "181056.050000", "181057.540000", "181059.030000", "181100.520000", "181102.010000", "181103.500000", "181104.990000", "181106.480000", "181107.970000", "181109.460000", "181110.950000", "181112.440000", "181113.930000", "181115.420000", "181116.910000", "181118.400000", "181119.890000", "181121.380000", "181122.870000", "181124.360000", "181125.850000", "181127.340000", "181128.830000", "181130.320000", "181131.810000", "181133.300000", "181134.790000", "181136.280000", "181137.770000", "181139.260000", "181140.750000", "181142.240000", "181143.730000", "181145.220000", "181146.710000", "181148.200000", "181149.690000", "181151.180000", "181152.670000", "181154.160000", "181155.650000", "181157.140000", "181158.630000", "181200.120000", "181201.610000", "181203.100000", "181204.590000", "181206.080000", "181207.570000", "181209.060000", "181210.550000", "181212.040000", "181213.530000", "181215.020000", "181216.510000", "181218.000000", "181219.490000", "181220.980000", "181222.470000", "181223.960000", "181225.450000", "181226.940000", "181228.430000", "181229.920000", "181231.410000", "181232.900000", "181234.390000", "181235.880000", "181237.370000", "181238.860000", "181240.350000", "181241.840000", "181243.330000", "181244.820000", "181246.310000", "181247.800000", "181249.290000", "181250.780000", "181252.270000", "181253.760000", "181255.250000", "181256.740000", "181258.230000", "181259.720000", "181301.210000", "181302.700000", "181304.190000", "181305.680000", "181307.170000", "181308.660000", "181310.150000", "181311.640000", "181313.130000", "181314.620000", "181316.110000", "181317.600000", "181319.090000", "181320.580000", "181322.070000", "181323.560000", "181325.050000", "181326.540000", "181328.030000", "181329.520000", "181331.010000", "181332.500000", "181333.990000", "181335.480000", "181336.970000", "181338.460000", "181339.950000", "181341.440000", "181342.930000", "181344.420000", "181345.910000", "181347.400000", "181348.890000", "181350.380000", "181351.870000", "181353.360000", "181354.850000", "181356.340000", "181357.830000", "181359.320000", "181400.810000", "181402.300000", "181403.790000", "181405.280000", "181406.770000", "181408.260000", "181409.750000", "181411.240000", "181412.730000", "181414.220000", "181415.710000", "181417.200000", "181418.690000", "181420.180000", "181421.670000", "181423.160000", "181424.650000", "181426.140000", "181427.630000", "181429.120000", "181430.610000", "181432.100000", "181433.590000", "181435.080000", "181436.570000", "181438.060000", "181439.550000", "181441.040000", "181442.530000", "181444.020000", "181445.510000", "181447.000000", "181448.490000", "181449.980000", "181451.470000", "181452.960000", "181454.450000", "181455.940000", "181457.430000", "181458.920000", "181500.410000", "181501.900000", "181503.390000", "181504.880000", "181506.370000", "181507.860000", "181509.350000", "181510.840000", "181512.330000", "181513.820000", "181515.310000", "181516.800000", "181518.290000", "181519.780000", "181521.270000", "181522.760000", "181524.250000", "181525.740000", "181527.230000", "181528.720000", "181530.210000", "181531.700000", "181533.190000", "181534.680000", "181536.170000", "181537.660000", "181539.150000", "181540.640000", "181542.130000", "181543.620000", "181545.110000", "181546.600000", "181548.090000", "181549.580000", "181551.070000", "181552.560000", "181554.050000", "181555.540000", "181557.030000", "181558.520000", "181600.010000", "181601.500000", "181602.990000", "181604.480000", "181605.970000", "181607.460000", "181608.950000", "181610.440000", "181611.930000", "181613.420000", "181614.910000", "181616.400000", "181617.890000", "181619.380000", "181620.870000", "181622.360000", "181623.850000", "181625.340000", "181626.830000", "181628.320000", "181629.810000", "181631.300000", "181632.790000", "181634.280000", "181635.770000", "181637.260000", "181638.750000", "181640.240000", "181641.730000", "181643.220000", "181644.710000", "181646.200000", "181647.690000", "181649.180000", "181650.670000", "181652.160000", "181653.650000", "181655.140000", "181656.630000", "181658.120000", "181659.610000", "181701.100000", "181702.590000", "181704.080000", "181705.570000", "181707.060000", "181708.550000", "181710.040000", "181711.530000", "181713.020000", "181714.510000", "181716.000000", "181717.490000", "181718.980000", "181720.470000", "181721.960000", "181723.450000", "181724.940000", "181726.430000", "181727.920000", "181729.410000", "181730.900000", "181732.390000", "181733.880000", "181735.370000", "181736.860000", "181738.350000", "181739.840000", "181741.330000", "181742.820000", "181744.310000", "181745.800000", "181747.290000", "181748.780000", "181750.270000", "181751.760000", "181753.250000", "181754.740000", "181756.230000", "181757.720000", "181759.210000", "181800.700000", "181802.190000", "181803.680000", "181805.170000", "181806.660000", "181808.150000", "181809.640000", "181811.130000", "181812.620000", "181814.110000", "181815.600000", "181817.090000", "181818.580000", "181820.070000", "181821.560000", "181823.050000", "181824.540000", "181826.030000", "181827.520000", "181829.010000", "181830.500000", "181831.990000", "181833.480000", "181834.970000", "181836.460000", "181837.950000", "181839.440000", "181840.930000", "181842.420000", "181843.910000", "181845.400000", "181846.890000", "181848.380000", "181849.870000", "181851.360000", "181852.850000", "181854.340000", "181855.830000", "181857.320000", "181858.810000", "181900.300000", "181901.790000", "181903.280000", "181904.770000", "181906.260000", "181907.750000", "181909.240000", "181910.730000", "181912.220000", "181913.710000", "181915.200000", "181916.690000", "181918.180000", "181919.670000", "181921.160000", "181922.650000", "181924.140000", "181925.630000", "181927.120000", "181928.610000", "181930.100000", "181931.590000", "181933.080000", "181934.570000", "181936.060000", "181937.550000", "181939.040000", "181940.530000", "181942.020000", "181943.510000", "181945.000000", "181946.490000", "181947.980000", "181949.470000", "181950.960000", "181952.450000"],
      "ContentTime": ["180900.057000", "180900.064000", "180900.067000", "180900.070000", "180900.073000", "180900.076000", "180900.078000", "180900.081000", "180900.084000", "180900.087000", "180900.090000", "180900.093000", "180900.096000", "180900.105000", "180900.108000", "180900.111000", "180900.114000", "180900.117000", "180900.124000", "180900.127000", "180900.130000", "180900.133000", "180900.136000", "180920.022000", "180920.025000", "180920.028000", "180920.031000", "180920.034000", "180920.037000", "180920.039000", "180920.042000", "180920.045000", "180920.048000", "180920.051000", "180920.054000", "180920.057000", "180920.059000", "180920.062000", "180920.065000", "180920.085000", "180920.088000", "180920.091000", "180920.093000", "180940.022000", "180940.025000", "180940.028000", "180940.030000", "180940.033000", "180940.037000", "180940.040000", "180940.043000", "180940.046000", "180940.049000", "180940.052000", "180940.054000", "180940.057000", "180940.060000", "180940.063000", "180940.066000", "180940.069000", "180940.072000", "180940.075000", "180940.078000", "181000.021000", "181000.024000", "181000.027000", "181000.030000", "181000.033000", "181000.035000", "181000.038000", "181000.041000", "181000.044000", "181000.047000", "181000.050000", "181000.053000", "181000.056000", "181000.059000", "181000.062000", "181000.065000", "181000.068000", "181000.071000", "181000.074000", "181000.077000", "181040.021000", "181040.024000", "181040.027000", "181040.030000", "181040.033000", "181040.036000", "181040.038000", "181040.041000", "181040.045000", "181040.047000", "181040.050000", "181040.053000", "181040.056000", "181040.059000", "181040.062000", "181040.065000", "181040.067000", "181040.081000", "181040.084000", "181040.086000", "181040.089000", "181040.092000", "181040.095000", "181040.098000", "181040.101000", "181040.104000", "181040.107000", "181040.110000", "181040.112000", "181040.115000", "181040.118000", "181120.022000", "181120.025000", "181120.028000", "181120.031000", "181120.034000", "181120.037000", "181120.039000", "181120.042000", "181120.045000", "181120.048000", "181120.051000", "181120.054000", "181120.057000", "181120.060000", "181120.063000", "181120.066000", "181120.068000", "181120.082000", "181120.085000", "181120.088000", "181120.091000", "181120.094000", "181120.097000", "181120.099000", "181120.102000", "181120.105000", "181120.108000", "181200.022000", "181200.025000", "181200.028000", "181200.031000", "181200.034000", "181200.037000", "181200.040000", "181200.043000", "181200.045000", "181200.048000", "181200.051000", "181200.054000", "181200.057000", "181200.060000", "181200.063000", "181200.066000", "181200.069000", "181200.072000", "181200.075000", "181200.078000", "181200.081000", "181200.083000", "181200.086000", "181200.089000", "181200.092000", "181200.095000", "181200.098000", "181240.021000", "181240.024000", "181240.027000", "181240.030000", "181240.033000", "181240.036000", "181240.039000", "181240.041000", "181240.044000", "181240.047000", "181240.050000", "181240.053000", "181240.056000", "181240.059000", "181240.062000", "181240.065000", "181240.068000", "181240.070000", "181240.073000", "181240.076000", "181240.079000", "181240.082000", "181240.085000", "181240.088000", "181240.091000", "181240.094000", "181240.097000", "181320.022000", "181320.025000", "181320.028000", "181320.031000", "181320.034000", "181320.037000", "181320.039000", "181320.042000", "181320.045000", "181320.048000", "181320.051000", "181320.054000", "181320.057000", "181320.060000", "181320.063000", "181320.066000", "181320.069000", "181320.071000", "181320.074000", "181320.077000", "181320.080000", "181320.083000", "181320.086000", "181320.089000", "181320.092000", "181320.095000", "181320.097000", "181340.022000", "181340.025000", "181340.028000", "181340.031000", "181340.034000", "181340.037000", "181340.040000", "181340.043000", "181340.045000", "181340.053000", "181340.056000", "181340.059000", "181340.062000", "181420.022000", "181420.025000", "181420.035000", "181420.038000", "181420.041000", "181420.051000", "181420.054000", "181420.057000", "181420.060000", "181420.063000", "181420.066000", "181420.069000", "181420.072000", "181420.075000", "181420.078000", "181420.080000", "181420.083000", "181420.086000", "181420.089000", "181420.092000", "181420.095000", "181420.098000", "181420.101000", "181420.104000", "181420.106000", "181420.109000", "181420.112000", "181500.021000", "181500.024000", "181500.027000", "181500.030000", "181500.033000", "181500.036000", "181500.039000", "181500.041000", "181500.044000", "181500.047000", "181500.056000", "181500.059000", "181500.062000", "181500.065000", "181500.068000", "181500.071000", "181500.074000", "181500.077000", "181500.080000", "181500.083000", "181500.085000", "181500.088000", "181500.091000", "181500.094000", "181500.097000", "181500.100000", "181500.103000", "181540.022000", "181540.025000", "181540.028000", "181540.031000", "181540.034000", "181540.037000", "181540.040000", "181540.043000", "181540.046000", "181540.049000", "181540.052000", "181540.055000", "181540.057000", "181540.060000", "181540.063000", "181540.066000", "181540.069000", "181540.072000", "181540.075000", "181540.078000", "181540.081000", "181540.084000", "181540.087000", "181540.089000", "181540.092000", "181540.095000", "181620.022000", "181620.025000", "181620.028000", "181620.031000", "181620.034000", "181620.037000", "181620.040000", "181620.042000", "181620.045000", "181620.048000", "181620.051000", "181620.054000", "181620.057000", "181620.060000", "181620.063000", "181620.066000", "181620.069000", "181620.071000", "181620.074000", "181620.077000", "181620.080000", "181620.083000", "181620.086000", "181620.089000", "181620.092000", "181620.095000", "181620.098000", "181700.021000", "181700.024000", "181700.027000", "181700.030000", "181700.033000", "181700.041000", "181700.044000", "181700.047000", "181700.050000", "181700.053000", "181700.056000", "181700.059000", "181700.061000", "181700.064000", "181700.067000", "181700.070000", "181700.073000", "181700.076000", "181700.079000", "181700.082000", "181700.085000", "181700.088000", "181700.091000", "181700.094000", "181700.097000", "181700.100000", "181700.103000", "181740.021000", "181740.024000", "181740.027000", "181740.030000", "181740.033000", "181740.036000", "181740.039000", "181740.042000", "181740.044000", "181740.047000", "181740.050000", "181740.056000", "181740.059000", "181740.062000", "181740.065000", "181740.068000", "181740.071000", "181740.074000", "181740.077000", "181740.080000", "181740.082000", "181740.085000", "181740.088000", "181740.091000", "181740.094000", "181740.097000", "181740.100000", "181820.022000", "181820.025000", "181820.028000", "181820.031000", "181820.034000", "181820.037000", "181820.040000", "181820.043000", "181820.046000", "181820.048000", "181820.051000", "181820.054000", "181820.057000", "181820.060000", "181820.063000", "181820.066000", "181820.069000", "181820.072000", "181820.075000", "181820.078000", "181820.081000", "181820.083000", "181820.086000", "181820.089000", "181820.092000", "181820.095000", "181820.098000", "181900.022000", "181900.025000", "181900.028000", "181900.031000", "181900.034000", "181900.037000", "181900.051000", "181900.054000", "181900.057000", "181900.060000", "181900.062000", "181900.065000", "181900.068000", "181900.071000", "181900.074000", "181900.077000", "181900.080000", "181900.083000", "181900.086000", "181900.089000", "181900.092000", "181900.095000", "181900.098000", "181900.100000", "181900.103000", "181900.106000", "181900.109000", "181940.021000", "181940.024000", "181940.027000", "181940.030000", "181940.033000", "181940.036000", "181940.039000", "181940.042000", "181940.045000", "181940.048000", "181940.051000", "181940.054000", "181940.057000", "181940.060000", "181940.063000", "181940.066000", "181940.068000", "181940.071000", "181940.074000", "181940.077000", "181940.080000", "181940.083000", "181940.086000", "181940.089000", "181940.092000", "181940.095000", "181940.098000", "181954.885000", "181954.888000", "181954.891000", "181954.894000", "181954.897000", "181954.900000", "181954.903000", "181954.906000", "181954.909000", "181954.912000"],
