{
  "AcquisitionMatrixPE": 104,
  "AcquisitionNumber": 1,
  "AcquisitionTime": "19:42:1.480000",
  "BandwidthPerPixelPhaseEncode": 17.17,
  "BaseResolution": 104,
  "BodyPartExamined": "BRAIN",
  "CoilString": "HC1-7;NC1_2",
  "ConsistencyInfo": "N4_VE11C_LATEST_20160120",
  "ConversionSoftware": "dcm2niix",
  "ConversionSoftwareVersion": "v1.0.20190720  (JP2:OpenJPEG) GCC7.3.0",
  "DerivedVendorReportedEchoSpacing": 0.000560011,
  "DeviceSerialNumber": "167006",
  "DwellTime": 2.1e-06,
  "EchoTime": 0.037,
  "EchoTrainLength": 104,
  "EffectiveEchoSpacing": 0.000560011,
  "FlipAngle": 52,
  "ImageComments": "Unaliased_MB4_PE3_LB",
  "ImageOrientationPatientDICOM": [0.996352, -0.0847044, -0.0103784, 0.0754407, 0.931109, -0.356853],
  "ImageType": [
    "ORIGINAL",
    "PRIMARY",
    "M",
    "MB",
    "ND",
    "MOSAIC"
],
  "ImagingFrequency": 123.259,
  "InPlanePhaseEncodingDirectionDICOM": "COL",
  "InstitutionAddress": "Chemin_Queen-Mary_4565_Montreal_District_CA_H3W_1W5",
  "InstitutionName": "IUGM",
  "InstitutionalDepartmentName": "Department",
  "MRAcquisitionType": "2D",
  "MagneticFieldStrength": 3,
  "Manufacturer": "Siemens",
  "ManufacturersModelName": "Prisma_fit",
  "Modality": "MR",
  "MultibandAccelerationFactor": 4,
  "PartialFourier": 1,
  "PatientPosition": "HFS",
  "PercentPhaseFOV": 100,
  "PhaseEncodingDirection": "j",
  "PhaseEncodingSteps": 104,
  "PhaseResolution": 1,
  "PixelBandwidth": 2290,
  "ProcedureStepDescription": "video_friends",
  "ProtocolName": "func_task-s01e20b",
  "PulseSequenceDetails": "%CustomerSeq%_cmrr_mbep2d_bold",
  "ReceiveCoilActiveElements": "HC1-7;NC1,2",
  "ReceiveCoilName": "HeadNeck_64",
  "ReconMatrixPE": 104,
  "RepetitionTime": 1.49,
  "SAR": 0.0322229,
  "ScanOptions": "FS",
  "ScanningSequence": "EP",
  "SequenceName": "epfid2d1_104",
  "SequenceVariant": "SK_SS",
  "SeriesDescription": "func_task-s01e20b",
  "SeriesNumber": 21,
  "ShimSetting": [622, -7265, -8862, 381, 64, -440, 3, 45],
  "SliceThickness": 2,
  "SliceTiming": [0, 0.7825, 0.0975, 0.8825, 0.195, 0.98, 0.2925, 1.0775, 0.3925, 1.175, 0.49, 1.2725, 0.5875, 1.3725, 0.685, 0, 0.7825, 0.0975, 0.8825, 0.195, 0.98, 0.2925, 1.0775, 0.3925, 1.175, 0.49, 1.2725, 0.5875, 1.3725, 0.685, 0, 0.7825, 0.0975, 0.8825, 0.195, 0.98, 0.2925, 1.0775, 0.3925, 1.175, 0.49, 1.2725, 0.5875, 1.3725, 0.685, 0, 0.7825, 0.0975, 0.8825, 0.195, 0.98, 0.2925, 1.0775, 0.3925, 1.175, 0.49, 1.2725, 0.5875, 1.3725, 0.685],
  "SoftwareVersions": "syngo_MR_E11",
  "SpacingBetweenSlices": 2,
  "StationName": "MRC35049",
  "TaskName": "friends",
  "TotalReadoutTime": 0.0576811,
  "TxRefAmp": 232.646,
  "WipMemBlock": "c552feb4-5cbe-4373-b2f7-69c0d37b6185||Sequence: R016 ve11c/master r/e634e98; Dec 19 2017 11:00:25 by eja",
  "dcmmeta_affine": [
    [-1.992704153060913, 0.15088145434856415, -0.07978096604347229, 93.45552062988281],
    [0.1694088727235794, 1.8622186183929443, -0.7095369100570679, -79.00889587402344],
    [-0.02075681835412979, 0.7137063145637512, 1.8682056665420532, -73.73194885253906],
    [0.0, 0.0, 0.0, 1.0]
],
  "dcmmeta_reorient_transform": [
    [0.0, -1.0, 0.0, 103.0],
    [1.0, 0.0, 0.0, 0.0],
    [0.0, 0.0, 1.0, 0.0],
    [0.0, 0.0, 0.0, 1.0]
],
  "dcmmeta_shape": [104, 104, 60, 460],
  "dcmmeta_slice_dim": 2,
  "dcmmeta_version": 0.6,
  "global": {
    "const": {
      "AcquisitionMatrix": [104, 0, 0, 104],
      "AngioFlag": "N",
      "BitsAllocated": 16,
      "BitsStored": 16,
      "BodyPartExamined": "BRAIN",
      "Columns": 832,
      "EchoNumbers": 1,
      "EchoTime": 37.0,
      "EchoTrainLength": 104,
      "FlipAngle": 52.0,
      "HighBit": 15,
      "ImageOrientationPatient": [0.99635206957457, -0.0847044394905, -0.0103784095633, 0.07544072490873, 0.93110929235096, -0.3568531668949],
      "ImagePositionPatient": [-889.26146121509, -728.98234946647, 267.12439439157],
      "ImageType": [
        "ORIGINAL",
        "PRIMARY",
        "M",
        "MB",
        "ND",
        "MOSAIC"
],
      "ImagedNucleus": "1H",
      "ImagingFrequency": 123.259474,
      "InPlanePhaseEncodingDirection": "COL",
      "MRAcquisitionType": "2D",
      "MagneticFieldStrength": 3.0,
      "Manufacturer": "SIEMENS",
      "ManufacturerModelName": "Prisma_fit",
      "Modality": "MR",
      "NumberOfAverages": 1.0,
      "NumberOfPhaseEncodingSteps": 104,
      "PercentPhaseFieldOfView": 100.0,
      "PercentSampling": 100.0,
      "PerformedProcedureStepStartTime": "180642.828000",
      "PhotometricInterpretation": "MONOCHROME2",
      "PixelBandwidth": 2290.0,
      "PixelRepresentation": 0,
      "PixelSpacing": [2.0, 2.0],
      "ProtocolName": "func_task-s01e20b",
      "RepetitionTime": 1490.0,
      "Rows": 832,
      "SAR": 0.03222290552949,
      "SamplesPerPixel": 1,
      "ScanOptions": "FS",
      "ScanningSequence": "EP",
      "SequenceName": "epfid2d1_104",
      "SequenceVariant": [
        "SK",
        "SS"
],
      "SeriesDescription": "func_task-s01e20b",
      "SeriesNumber": 21,
      "SeriesTime": "194323.967000",
      "SliceLocation": -44.571341899591,
      "SliceThickness": 2.0,
      "SmallestImagePixelValue": 0,
      "SoftwareVersions": "syngo MR E11",
      "SpacingBetweenSlices": 2.0000000243065,
      "SpecificCharacterSet": "ISO_IR 100",
      "StudyID": "1",
      "StudyTime": "180642.764000",
      "TransmitCoilName": "Body",
      "VariableFlipAngleFlag": "N",
      "WindowCenterWidthExplanation": "Algo1",
      "dBdt": 0.0},
    "slices": {}
  },
  "time": {
    "samples": {
      "AcquisitionNumber": [1, 2, 3, 4, 5, 6, 7, 8, 9, 10, 11, 12, 13, 14, 15, 16, 17, 18, 19, 20, 21, 22, 23, 24, 25, 26, 27, 28, 29, 30, 31, 32, 33, 34, 35, 36, 37, 38, 39, 40, 41, 42, 43, 44, 45, 46, 47, 48, 49, 50, 51, 52, 53, 54, 55, 56, 57, 58, 59, 60, 61, 62, 63, 64, 65, 66, 67, 68, 69, 70, 71, 72, 73, 74, 75, 76, 77, 78, 79, 80, 81, 82, 83, 84, 85, 86, 87, 88, 89, 90, 91, 92, 93, 94, 95, 96, 97, 98, 99, 100, 101, 102, 103, 104, 105, 106, 107, 108, 109, 110, 111, 112, 113, 114, 115, 116, 117, 118, 119, 120, 121, 122, 123, 124, 125, 126, 127, 128, 129, 130, 131, 132, 133, 134, 135, 136, 137, 138, 139, 140, 141, 142, 143, 144, 145, 146, 147, 148, 149, 150, 151, 152, 153, 154, 155, 156, 157, 158, 159, 160, 161, 162, 163, 164, 165, 166, 167, 168, 169, 170, 171, 172, 173, 174, 175, 176, 177, 178, 179, 180, 181, 182, 183, 184, 185, 186, 187, 188, 189, 190, 191, 192, 193, 194, 195, 196, 197, 198, 199, 200, 201, 202, 203, 204, 205, 206, 207, 208, 209, 210, 211, 212, 213, 214, 215, 216, 217, 218, 219, 220, 221, 222, 223, 224, 225, 226, 227, 228, 229, 230, 231, 232, 233, 234, 235, 236, 237, 238, 239, 240, 241, 242, 243, 244, 245, 246, 247, 248, 249, 250, 251, 252, 253, 254, 255, 256, 257, 258, 259, 260, 261, 262, 263, 264, 265, 266, 267, 268, 269, 270, 271, 272, 273, 274, 275, 276, 277, 278, 279, 280, 281, 282, 283, 284, 285, 286, 287, 288, 289, 290, 291, 292, 293, 294, 295, 296, 297, 298, 299, 300, 301, 302, 303, 304, 305, 306, 307, 308, 309, 310, 311, 312, 313, 314, 315, 316, 317, 318, 319, 320, 321, 322, 323, 324, 325, 326, 327, 328, 329, 330, 331, 332, 333, 334, 335, 336, 337, 338, 339, 340, 341, 342, 343, 344, 345, 346, 347, 348, 349, 350, 351, 352, 353, 354, 355, 356, 357, 358, 359, 360, 361, 362, 363, 364, 365, 366, 367, 368, 369, 370, 371, 372, 373, 374, 375, 376, 377, 378, 379, 380, 381, 382, 383, 384, 385, 386, 387, 388, 389, 390, 391, 392, 393, 394, 395, 396, 397, 398, 399, 400, 401, 402, 403, 404, 405, 406, 407, 408, 409, 410, 411, 412, 413, 414, 415, 416, 417, 418, 419, 420, 421, 422, 423, 424, 425, 426, 427, 428, 429, 430, 431, 432, 433, 434, 435, 436, 437, 438, 439, 440, 441, 442, 443, 444, 445, 446, 447, 448, 449, 450, 451, 452, 453, 454, 455, 456, 457, 458, 459, 460],
      "AcquisitionTime": ["194201.480000", "194202.970000", "194204.460000", "194205.950000", "194207.440000", "194208.930000", "194210.420000", "194211.910000", "194213.400000", "194214.890000", "194216.380000", "194217.870000", "194219.360000", "194220.850000", "194222.340000", "194223.830000", "194225.320000", "194226.810000", "194228.300000", "194229.790000", "194231.280000", "194232.770000", "194234.260000", "194235.750000", "194237.240000", "194238.730000", "194240.220000", "194241.710000", "194243.200000", "194244.690000", "194246.180000", "194247.670000", "194249.160000", "194250.650000", "194252.140000", "194253.630000", "194255.120000", "194256.610000", "194258.100000", "194259.590000", "194301.080000", "194302.570000", "194304.060000", "194305.550000", "194307.040000", "194308.530000", "194310.020000", "194311.510000", "194313.000000", "194314.490000", "194315.980000", "194317.470000", "194318.960000", "194320.450000", "194321.940000", "194323.430000", "194324.920000", "194326.410000", "194327.900000", "194329.390000", "194330.880000", "194332.370000", "194333.860000", "194335.350000", "194336.840000", "194338.330000", "194339.820000", "194341.310000", "194342.800000", "194344.290000", "194345.780000", "194347.270000", "194348.760000", "194350.250000", "194351.740000", "194353.230000", "194354.720000", "194356.210000", "194357.700000", "194359.190000", "194400.680000", "194402.170000", "194403.660000", "194405.150000", "194406.640000", "194408.130000", "194409.620000", "194411.110000", "194412.600000", "194414.090000", "194415.580000", "194417.070000", "194418.560000", "194420.050000", "194421.540000", "194423.030000", "194424.520000", "194426.010000", "194427.500000", "194428.990000", "194430.480000", "194431.970000", "194433.460000", "194434.950000", "194436.440000", "194437.930000", "194439.420000", "194440.910000", "194442.400000", "194443.890000", "194445.380000", "194446.870000", "194448.360000", "194449.850000", "194451.340000", "194452.830000", "194454.320000", "194455.810000", "194457.300000", "194458.790000", "194500.280000", "194501.770000", "194503.260000", "194504.750000", "194506.240000", "194507.730000", "194509.220000", "194510.710000", "194512.200000", "194513.690000", "194515.180000", "194516.670000", "194518.160000", "194519.650000", "194521.140000", "194522.630000", "194524.120000", "194525.610000", "194527.100000", "194528.590000", "194530.080000", "194531.570000", "194533.060000", "194534.550000", "194536.040000", "194537.530000", "194539.020000", "194540.510000", "194542.000000", "194543.490000", "194544.980000", "194546.470000", "194547.960000", "194549.450000", "194550.940000", "194552.430000", "194553.920000", "194555.410000", "194556.900000", "194558.390000", "194559.880000", "194601.370000", "194602.860000", "194604.350000", "194605.840000", "194607.330000", "194608.820000", "194610.310000", "194611.800000", "194613.290000", "194614.780000", "194616.270000", "194617.760000", "194619.250000", "194620.740000", "194622.230000", "194623.720000", "194625.210000", "194626.700000", "194628.190000", "194629.680000", "194631.170000", "194632.660000", "194634.150000", "194635.640000", "194637.130000", "194638.620000", "194640.110000", "194641.600000", "194643.090000", "194644.580000", "194646.070000", "194647.560000", "194649.050000", "194650.540000", "194652.030000", "194653.520000", "194655.010000", "194656.500000", "194657.990000", "194659.480000", "194700.970000", "194702.460000", "194703.950000", "194705.440000", "194706.930000", "194708.420000", "194709.910000", "194711.400000", "194712.890000", "194714.380000", "194715.870000", "194717.360000", "194718.850000", "194720.340000", "194721.830000", "194723.320000", "194724.810000", "194726.300000", "194727.790000", "194729.280000", "194730.770000", "194732.260000", "194733.750000", "194735.240000", "194736.730000", "194738.220000", "194739.710000", "194741.200000", "194742.690000", "194744.180000", "194745.670000", "194747.160000", "194748.650000", "194750.140000", "194751.630000", "194753.120000", "194754.610000", "194756.100000", "194757.590000", "194759.080000", "194800.570000", "194802.060000", "194803.550000", "194805.040000", "194806.530000", "194808.020000", "194809.510000", "194811.000000", "194812.490000", "194813.980000", "194815.470000", "194816.960000", "194818.450000", "194819.940000", "194821.430000", "194822.920000", "194824.410000", "194825.900000", "194827.390000", "194828.880000", "194830.370000", "194831.860000", "194833.350000", "194834.840000", "194836.330000", "194837.820000", "194839.310000", "194840.800000", "194842.290000", "194843.780000", "194845.270000", "194846.760000", "194848.250000", "194849.740000", "194851.230000", "194852.720000", "194854.210000", "194855.700000", "194857.190000", "194858.680000", "194900.170000", "194901.660000", "194903.150000", "194904.640000", "194906.130000", "194907.620000", "194909.110000", "194910.600000", "194912.090000", "194913.580000", "194915.070000", "194916.560000", "194918.050000", "194919.540000", "194921.030000", "194922.520000", "194924.010000", "194925.500000", "194926.990000", "194928.480000", "194929.970000", "194931.460000", "194932.950000", "194934.440000", "194935.930000", "194937.420000", "194938.910000", "194940.400000", "194941.890000", "194943.380000", "194944.870000", "194946.360000", "194947.850000", "194949.340000", "194950.830000", "194952.320000", "194953.810000", "194955.300000", "194956.790000", "194958.280000", "194959.770000", "195001.260000", "195002.750000", "195004.240000", "195005.730000", "195007.220000", "195008.710000", "195010.200000", "195011.690000", "195013.180000", "195014.670000", "195016.160000", "195017.650000", "195019.140000", "195020.630000", "195022.120000", "195023.610000", "195025.100000", "195026.590000", "195028.080000", "195029.570000", "195031.060000", "195032.550000", "195034.040000", "195035.530000", "195037.020000", "195038.510000", "195040.000000", "195041.490000", "195042.980000", "195044.470000", "195045.960000", "195047.450000", "195048.940000", "195050.430000", "195051.920000", "195053.410000", "195054.900000", "195056.390000", "195057.880000", "195059.370000", "195100.860000", "195102.350000", "195103.840000", "195105.330000", "195106.820000", "195108.310000", "195109.800000", "195111.290000", "195112.780000", "195114.270000", "195115.760000", "195117.250000", "195118.740000", "195120.230000", "195121.720000", "195123.210000", "195124.700000", "195126.190000", "195127.680000", "195129.170000", "195130.660000", "195132.150000", "195133.640000", "195135.130000", "195136.620000", "195138.110000", "195139.600000", "195141.090000", "195142.580000", "195144.070000", "195145.560000", "195147.050000", "195148.540000", "195150.030000", "195151.520000", "195153.010000", "195154.500000", "195155.990000", "195157.480000", "195158.970000", "195200.460000", "195201.950000", "195203.440000", "195204.930000", "195206.420000", "195207.910000", "195209.400000", "195210.890000", "195212.380000", "195213.870000", "195215.360000", "195216.850000", "195218.340000", "195219.830000", "195221.320000", "195222.810000", "195224.300000", "195225.790000", "195227.280000", "195228.770000", "195230.260000", "195231.750000", "195233.240000", "195234.730000", "195236.220000", "195237.710000", "195239.200000", "195240.690000", "195242.180000", "195243.670000", "195245.160000", "195246.650000", "195248.140000", "195249.630000", "195251.120000", "195252.610000", "195254.100000", "195255.590000", "195257.080000", "195258.570000", "195300.060000", "195301.550000", "195303.040000", "195304.530000", "195306.020000", "195307.510000", "195309.000000", "195310.490000", "195311.980000", "195313.470000", "195314.960000", "195316.450000", "195317.940000", "195319.430000", "195320.920000", "195322.410000", "195323.900000", "195325.390000"],
      "ContentTime": ["194323.969000", "194323.973000", "194323.976000", "194323.979000", "194323.982000", "194323.985000", "194323.987000", "194323.990000", "194323.993000", "194323.996000", "194324.006000", "194324.009000", "194324.011000", "194324.014000", "194324.017000", "194324.020000", "194324.023000", "194324.026000", "194324.029000", "194324.032000", "194324.035000", "194324.038000", "194324.041000", "194324.047000", "194324.050000", "194324.053000", "194324.056000", "194324.059000", "194324.061000", "194324.064000", "194343.934000", "194343.937000", "194343.940000", "194343.943000", "194343.946000", "194343.949000", "194343.952000", "194343.955000", "194343.958000", "194343.960000", "194343.963000", "194343.966000", "194343.969000", "194343.972000", "194343.975000", "194343.978000", "194343.981000", "194343.984000", "194343.987000", "194343.990000", "194403.934000", "194403.937000", "194403.940000", "194403.943000", "194403.946000", "194403.948000", "194403.951000", "194403.954000", "194403.957000", "194403.960000", "194403.963000", "194403.966000", "194403.968000", "194403.971000", "194403.974000", "194403.977000", "194403.980000", "194403.983000", "194403.986000", "194403.989000", "194423.933000", "194423.936000", "194423.939000", "194423.942000", "194423.945000", "194423.947000", "194423.950000", "194423.953000", "194423.956000", "194423.966000", "194423.969000", "194423.972000", "194423.975000", "194423.978000", "194423.981000", "194423.984000", "194423.987000", "194423.990000", "194423.993000", "194423.996000", "194423.998000", "194503.934000", "194503.937000", "194503.940000", "194503.943000", "194503.946000", "194503.949000", "194503.952000", "194503.955000", "194503.958000", "194503.961000", "194503.964000", "194503.967000", "194503.970000", "194503.973000", "194503.975000", "194503.978000", "194503.981000", "194503.984000", "194503.987000", "194503.990000", "194503.993000", "194503.996000", "194504.000000", "194504.003000", "194504.006000", "194504.008000", "194504.011000", "194504.014000", "194504.030000", "194504.033000", "194504.036000", "194543.934000", "194543.937000", "194543.940000", "194543.943000", "194543.946000", "194543.949000", "194543.952000", "194543.955000", "194543.958000", "194543.960000", "194543.964000", "194543.966000", "194543.969000", "194543.972000", "194543.975000", "194543.978000", "194543.981000", "194543.984000", "194543.987000", "194543.990000", "194543.993000", "194543.996000", "194544.000000", "194544.002000", "194544.005000", "194544.008000", "194544.011000", "194623.933000", "194623.944000", "194623.947000", "194623.950000", "194623.952000", "194623.955000", "194623.958000", "194623.961000", "194623.964000", "194623.967000", "194623.970000", "194623.973000", "194623.976000", "194623.979000", "194623.982000", "194623.984000", "194623.987000", "194623.990000", "194623.993000", "194623.996000", "194624.000000", "194624.003000", "194624.006000", "194624.009000", "194624.012000", "194624.015000", "194624.017000", "194703.934000", "194703.937000", "194703.941000", "194703.944000", "194703.947000", "194703.950000", "194703.953000", "194703.956000", "194703.959000", "194703.962000", "194703.965000", "194703.968000", "194703.971000", "194703.974000", "194703.977000", "194703.979000", "194703.982000", "194703.985000", "194703.988000", "194703.991000", "194703.994000", "194703.997000", "194704.001000", "194704.004000", "194704.007000", "194704.010000", "194743.934000", "194743.937000", "194743.940000", "194743.943000", "194743.946000", "194743.949000", "194743.952000", "194743.955000", "194743.958000", "194743.960000", "194743.963000", "194743.966000", "194743.969000", "194743.972000", "194743.975000", "194743.978000", "194743.981000", "194743.984000", "194743.987000", "194743.990000", "194743.992000", "194743.995000", "194743.998000", "194744.002000", "194744.005000", "194744.008000", "194744.011000", "194823.934000", "194823.937000", "194823.940000", "194823.943000", "194823.946000", "194823.949000", "194823.952000", "194823.955000", "194823.958000", "194823.961000", "194823.964000", "194823.967000", "194823.970000", "194823.973000", "194823.976000", "194823.979000", "194823.982000", "194823.985000", "194823.988000", "194823.991000", "194823.993000", "194823.996000", "194824.000000", "194824.003000", "194824.006000", "194824.009000", "194824.012000", "194903.933000", "194903.936000", "194903.939000", "194903.942000", "194903.945000", "194903.948000", "194903.951000", "194903.954000", "194903.957000", "194903.960000", "194903.962000", "194903.965000", "194903.968000", "194903.971000", "194903.974000", "194903.977000", "194903.980000", "194903.983000", "194903.986000", "194903.989000", "194903.992000", "194903.995000", "194903.997000", "194904.001000", "194904.004000", "194904.007000", "194904.010000", "194943.934000", "194943.937000", "194943.940000", "194943.943000", "194943.946000", "194943.949000", "194943.952000", "194943.955000", "194943.958000", "194943.961000", "194943.963000", "194943.967000", "194943.970000", "194943.972000", "194943.975000", "194943.978000", "194943.981000", "194943.984000", "194943.987000", "194943.990000", "194943.993000", "194943.996000", "194944.000000", "194944.003000", "194944.005000", "194944.008000", "194944.011000", "195023.934000", "195023.937000", "195023.940000", "195023.943000", "195023.946000", "195023.949000", "195023.952000", "195023.955000", "195023.958000", "195023.960000", "195023.964000", "195023.982000", "195023.985000", "195023.988000", "195023.991000", "195023.994000", "195023.997000", "195024.001000", "195024.004000", "195024.007000", "195024.010000", "195024.013000", "195024.016000", "195024.018000", "195024.021000", "195024.024000", "195024.027000", "195103.933000", "195103.936000", "195103.939000", "195103.942000", "195103.945000", "195103.948000", "195103.951000", "195103.954000", "195103.957000", "195103.960000", "195103.963000", "195103.966000", "195103.969000", "195103.972000", "195103.975000", "195103.978000", "195103.980000", "195103.983000", "195103.986000", "195103.989000", "195103.992000", "195103.995000", "195103.998000", "195104.002000", "195104.005000", "195104.008000", "195143.934000", "195143.937000", "195143.940000", "195143.943000", "195143.946000", "195143.949000", "195143.952000", "195143.955000", "195143.958000", "195143.961000", "195143.964000", "195143.967000", "195143.969000", "195143.972000", "195143.975000", "195143.978000", "195143.981000", "195143.984000", "195143.987000", "195143.998000", "195144.001000", "195144.004000", "195144.007000", "195144.010000", "195144.013000", "195144.016000", "195144.019000", "195223.934000", "195223.937000", "195223.940000", "195223.943000", "195223.946000", "195223.949000", "195223.952000", "195223.955000", "195223.957000", "195223.960000", "195223.963000", "195223.966000", "195223.969000", "195223.972000", "195223.975000", "195223.978000", "195223.980000", "195223.983000", "195223.986000", "195223.989000", "195223.992000", "195223.995000", "195223.998000", "195224.002000", "195224.004000", "195224.007000", "195224.010000", "195303.934000", "195303.937000", "195303.940000", "195303.943000", "195303.946000", "195303.949000", "195303.952000", "195303.955000", "195303.958000", "195303.960000", "195303.963000", "195303.966000", "195303.969000", "195303.972000", "195303.975000", "195303.978000", "195303.981000", "195303.984000", "195303.987000", "195303.989000", "195303.992000", "195303.995000", "195303.998000", "195304.002000", "195304.005000", "195304.008000", "195304.011000", "195327.053000", "195327.057000", "195327.060000", "195327.062000", "195327.065000", "195327.068000", "195327.071000", "195327.074000", "195327.077000", "195327.080000", "195327.083000", "195327.086000", "195327.089000", "195327.092000", "195327.095000", "195327.097000"],
