{
  "AcquisitionMatrixPE": 104,
  "AcquisitionNumber": 1,
  "AcquisitionTime": "19:54:2.222500",
  "BandwidthPerPixelPhaseEncode": 17.17,
  "BaseResolution": 104,
  "BodyPartExamined": "BRAIN",
  "CoilString": "HC1-7;NC1_2",
  "ConsistencyInfo": "N4_VE11C_LATEST_20160120",
  "ConversionSoftware": "dcm2niix",
  "ConversionSoftwareVersion": "v1.0.20190720  (JP2:OpenJPEG) GCC7.3.0",
  "DerivedVendorReportedEchoSpacing": 0.000560011,
  "DeviceSerialNumber": "167006",
  "DwellTime": 2.1e-06,
  "EchoTime": 0.037,
  "EchoTrainLength": 104,
  "EffectiveEchoSpacing": 0.000560011,
  "FlipAngle": 52,
  "ImageComments": "Unaliased_MB4_PE3_LB",
  "ImageOrientationPatientDICOM": [0.996352, -0.0847044, -0.0103784, 0.0754407, 0.931109, -0.356853],
  "ImageType": [
    "ORIGINAL",
    "PRIMARY",
    "M",
    "MB",
    "ND",
    "MOSAIC"
],
  "ImagingFrequency": 123.259,
  "InPlanePhaseEncodingDirectionDICOM": "COL",
  "InstitutionAddress": "Chemin_Queen-Mary_4565_Montreal_District_CA_H3W_1W5",
  "InstitutionName": "IUGM",
  "InstitutionalDepartmentName": "Department",
  "MRAcquisitionType": "2D",
  "MagneticFieldStrength": 3,
  "Manufacturer": "Siemens",
  "ManufacturersModelName": "Prisma_fit",
  "Modality": "MR",
  "MultibandAccelerationFactor": 4,
  "PartialFourier": 1,
  "PatientPosition": "HFS",
  "PercentPhaseFOV": 100,
  "PhaseEncodingDirection": "j",
  "PhaseEncodingSteps": 104,
  "PhaseResolution": 1,
  "PixelBandwidth": 2290,
  "ProcedureStepDescription": "video_friends",
  "ProtocolName": "func_task-s01e21a",
  "PulseSequenceDetails": "%CustomerSeq%_cmrr_mbep2d_bold",
  "ReceiveCoilActiveElements": "HC1-7;NC1,2",
  "ReceiveCoilName": "HeadNeck_64",
  "ReconMatrixPE": 104,
  "RepetitionTime": 1.49,
  "SAR": 0.0322278,
  "ScanOptions": "FS",
  "ScanningSequence": "EP",
  "SequenceName": "epfid2d1_104",
  "SequenceVariant": "SK_SS",
  "SeriesDescription": "func_task-s01e21a",
  "SeriesNumber": 23,
  "ShimSetting": [622, -7265, -8862, 381, 64, -440, 3, 45],
  "SliceThickness": 2,
  "SliceTiming": [0, 0.785, 0.0975, 0.8825, 0.1975, 0.98, 0.295, 1.0775, 0.3925, 1.1775, 0.49, 1.275, 0.5875, 1.3725, 0.6875, 0, 0.785, 0.0975, 0.8825, 0.1975, 0.98, 0.295, 1.0775, 0.3925, 1.1775, 0.49, 1.275, 0.5875, 1.3725, 0.6875, 0, 0.785, 0.0975, 0.8825, 0.1975, 0.98, 0.295, 1.0775, 0.3925, 1.1775, 0.49, 1.275, 0.5875, 1.3725, 0.6875, 0, 0.785, 0.0975, 0.8825, 0.1975, 0.98, 0.295, 1.0775, 0.3925, 1.1775, 0.49, 1.275, 0.5875, 1.3725, 0.6875],
  "SoftwareVersions": "syngo_MR_E11",
  "SpacingBetweenSlices": 2,
  "StationName": "MRC35049",
  "TaskName": "friends",
  "TotalReadoutTime": 0.0576811,
  "TxRefAmp": 232.646,
  "WipMemBlock": "87ff34e3-957e-4fa5-873c-e6a155c0e567||Sequence: R016 ve11c/master r/e634e98; Dec 19 2017 11:00:25 by eja",
  "dcmmeta_affine": [
    [-1.992704153060913, 0.15088145434856415, -0.07978096604347229, 93.45552062988281],
    [0.1694088727235794, 1.8622186183929443, -0.7095369100570679, -79.00889587402344],
    [-0.02075681835412979, 0.7137063145637512, 1.8682056665420532, -73.73194885253906],
    [0.0, 0.0, 0.0, 1.0]
],
  "dcmmeta_reorient_transform": [
    [0.0, -1.0, 0.0, 103.0],
    [1.0, 0.0, 0.0, 0.0],
    [0.0, 0.0, 1.0, 0.0],
    [0.0, 0.0, 0.0, 1.0]
],
  "dcmmeta_shape": [104, 104, 60, 477],
  "dcmmeta_slice_dim": 2,
  "dcmmeta_version": 0.6,
  "global": {
    "const": {
      "AcquisitionMatrix": [104, 0, 0, 104],
      "AngioFlag": "N",
      "BitsAllocated": 16,
      "BitsStored": 16,
      "BodyPartExamined": "BRAIN",
      "Columns": 832,
      "EchoNumbers": 1,
      "EchoTime": 37.0,
      "EchoTrainLength": 104,
      "FlipAngle": 52.0,
      "HighBit": 15,
      "ImageOrientationPatient": [0.99635206957457, -0.0847044394905, -0.0103784095633, 0.07544072490873, 0.93110929235096, -0.3568531668949],
      "ImagePositionPatient": [-889.26146121509, -728.98234946647, 267.12439439157],
      "ImageType": [
        "ORIGINAL",
        "PRIMARY",
        "M",
        "MB",
        "ND",
        "MOSAIC"
],
      "ImagedNucleus": "1H",
      "ImagingFrequency": 123.259474,
      "InPlanePhaseEncodingDirection": "COL",
      "MRAcquisitionType": "2D",
      "MagneticFieldStrength": 3.0,
      "Manufacturer": "SIEMENS",
      "ManufacturerModelName": "Prisma_fit",
      "Modality": "MR",
      "NumberOfAverages": 1.0,
      "NumberOfPhaseEncodingSteps": 104,
      "PercentPhaseFieldOfView": 100.0,
      "PercentSampling": 100.0,
      "PerformedProcedureStepStartTime": "180642.828000",
      "PhotometricInterpretation": "MONOCHROME2",
      "PixelBandwidth": 2290.0,
      "PixelRepresentation": 0,
      "PixelSpacing": [2.0, 2.0],
      "ProtocolName": "func_task-s01e21a",
      "RepetitionTime": 1490.0,
      "Rows": 832,
      "SAR": 0.03222784122242,
      "SamplesPerPixel": 1,
      "ScanOptions": "FS",
      "ScanningSequence": "EP",
      "SequenceName": "epfid2d1_104",
      "SequenceVariant": [
        "SK",
        "SS"
],
      "SeriesDescription": "func_task-s01e21a",
      "SeriesNumber": 23,
      "SeriesTime": "195501.235000",
      "SliceLocation": -44.571341899591,
      "SliceThickness": 2.0,
      "SmallestImagePixelValue": 0,
      "SoftwareVersions": "syngo MR E11",
      "SpacingBetweenSlices": 2.0000000243065,
      "SpecificCharacterSet": "ISO_IR 100",
      "StudyID": "1",
      "StudyTime": "180642.764000",
      "TransmitCoilName": "Body",
      "VariableFlipAngleFlag": "N",
      "WindowCenterWidthExplanation": "Algo1",
      "dBdt": 0.0},
    "slices": {}
  },
  "time": {
    "samples": {
      "AcquisitionNumber": [1, 2, 3, 4, 5, 6, 7, 8, 9, 10, 11, 12, 13, 14, 15, 16, 17, 18, 19, 20, 21, 22, 23, 24, 25, 26, 27, 28, 29, 30, 31, 32, 33, 34, 35, 36, 37, 38, 39, 40, 41, 42, 43, 44, 45, 46, 47, 48, 49, 50, 51, 52, 53, 54, 55, 56, 57, 58, 59, 60, 61, 62, 63, 64, 65, 66, 67, 68, 69, 70, 71, 72, 73, 74, 75, 76, 77, 78, 79, 80, 81, 82, 83, 84, 85, 86, 87, 88, 89, 90, 91, 92, 93, 94, 95, 96, 97, 98, 99, 100, 101, 102, 103, 104, 105, 106, 107, 108, 109, 110, 111, 112, 113, 114, 115, 116, 117, 118, 119, 120, 121, 122, 123, 124, 125, 126, 127, 128, 129, 130, 131, 132, 133, 134, 135, 136, 137, 138, 139, 140, 141, 142, 143, 144, 145, 146, 147, 148, 149, 150, 151, 152, 153, 154, 155, 156, 157, 158, 159, 160, 161, 162, 163, 164, 165, 166, 167, 168, 169, 170, 171, 172, 173, 174, 175, 176, 177, 178, 179, 180, 181, 182, 183, 184, 185, 186, 187, 188, 189, 190, 191, 192, 193, 194, 195, 196, 197, 198, 199, 200, 201, 202, 203, 204, 205, 206, 207, 208, 209, 210, 211, 212, 213, 214, 215, 216, 217, 218, 219, 220, 221, 222, 223, 224, 225, 226, 227, 228, 229, 230, 231, 232, 233, 234, 235, 236, 237, 238, 239, 240, 241, 242, 243, 244, 245, 246, 247, 248, 249, 250, 251, 252, 253, 254, 255, 256, 257, 258, 259, 260, 261, 262, 263, 264, 265, 266, 267, 268, 269, 270, 271, 272, 273, 274, 275, 276, 277, 278, 279, 280, 281, 282, 283, 284, 285, 286, 287, 288, 289, 290, 291, 292, 293, 294, 295, 296, 297, 298, 299, 300, 301, 302, 303, 304, 305, 306, 307, 308, 309, 310, 311, 312, 313, 314, 315, 316, 317, 318, 319, 320, 321, 322, 323, 324, 325, 326, 327, 328, 329, 330, 331, 332, 333, 334, 335, 336, 337, 338, 339, 340, 341, 342, 343, 344, 345, 346, 347, 348, 349, 350, 351, 352, 353, 354, 355, 356, 357, 358, 359, 360, 361, 362, 363, 364, 365, 366, 367, 368, 369, 370, 371, 372, 373, 374, 375, 376, 377, 378, 379, 380, 381, 382, 383, 384, 385, 386, 387, 388, 389, 390, 391, 392, 393, 394, 395, 396, 397, 398, 399, 400, 401, 402, 403, 404, 405, 406, 407, 408, 409, 410, 411, 412, 413, 414, 415, 416, 417, 418, 419, 420, 421, 422, 423, 424, 425, 426, 427, 428, 429, 430, 431, 432, 433, 434, 435, 436, 437, 438, 439, 440, 441, 442, 443, 444, 445, 446, 447, 448, 449, 450, 451, 452, 453, 454, 455, 456, 457, 458, 459, 460, 461, 462, 463, 464, 465, 466, 467, 468, 469, 470, 471, 472, 473, 474, 475, 476, 477],
      "AcquisitionTime": ["195402.222500", "195403.712500", "195405.202500", "195406.692500", "195408.182500", "195409.672500", "195411.162500", "195412.652500", "195414.142500", "195415.632500", "195417.122500", "195418.612500", "195420.102500", "195421.592500", "195423.082500", "195424.572500", "195426.062500", "195427.552500", "195429.042500", "195430.532500", "195432.022500", "195433.512500", "195435.002500", "195436.492500", "195437.982500", "195439.472500", "195440.962500", "195442.452500", "195443.942500", "195445.432500", "195446.922500", "195448.412500", "195449.902500", "195451.392500", "195452.882500", "195454.372500", "195455.862500", "195457.352500", "195458.842500", "195500.332500", "195501.822500", "195503.312500", "195504.802500", "195506.292500", "195507.782500", "195509.272500", "195510.762500", "195512.252500", "195513.742500", "195515.232500", "195516.722500", "195518.212500", "195519.702500", "195521.192500", "195522.682500", "195524.172500", "195525.662500", "195527.152500", "195528.642500", "195530.132500", "195531.622500", "195533.112500", "195534.602500", "195536.092500", "195537.582500", "195539.072500", "195540.562500", "195542.052500", "195543.542500", "195545.032500", "195546.522500", "195548.012500", "195549.502500", "195550.992500", "195552.482500", "195553.972500", "195555.462500", "195556.952500", "195558.442500", "195559.932500", "195601.422500", "195602.912500", "195604.402500", "195605.892500", "195607.382500", "195608.872500", "195610.362500", "195611.852500", "195613.342500", "195614.832500", "195616.322500", "195617.812500", "195619.302500", "195620.792500", "195622.282500", "195623.772500", "195625.262500", "195626.752500", "195628.242500", "195629.732500", "195631.222500", "195632.712500", "195634.202500", "195635.692500", "195637.182500", "195638.672500", "195640.162500", "195641.652500", "195643.142500", "195644.632500", "195646.122500", "195647.612500", "195649.102500", "195650.592500", "195652.082500", "195653.572500", "195655.062500", "195656.552500", "195658.042500", "195659.532500", "195701.022500", "195702.512500", "195704.002500", "195705.492500", "195706.982500", "195708.472500", "195709.962500", "195711.452500", "195712.942500", "195714.432500", "195715.922500", "195717.412500", "195718.902500", "195720.392500", "195721.882500", "195723.372500", "195724.862500", "195726.352500", "195727.842500", "195729.332500", "195730.822500", "195732.312500", "195733.802500", "195735.292500", "195736.782500", "195738.272500", "195739.762500", "195741.252500", "195742.742500", "195744.232500", "195745.722500", "195747.212500", "195748.702500", "195750.192500", "195751.682500", "195753.172500", "195754.662500", "195756.152500", "195757.642500", "195759.132500", "195800.622500", "195802.112500", "195803.602500", "195805.092500", "195806.582500", "195808.072500", "195809.562500", "195811.052500", "195812.542500", "195814.032500", "195815.522500", "195817.012500", "195818.502500", "195819.992500", "195821.482500", "195822.972500", "195824.462500", "195825.952500", "195827.442500", "195828.932500", "195830.422500", "195831.912500", "195833.402500", "195834.892500", "195836.382500", "195837.872500", "195839.362500", "195840.852500", "195842.342500", "195843.832500", "195845.322500", "195846.812500", "195848.302500", "195849.792500", "195851.282500", "195852.772500", "195854.262500", "195855.752500", "195857.242500", "195858.732500", "195900.222500", "195901.712500", "195903.202500", "195904.692500", "195906.182500", "195907.672500", "195909.162500", "195910.652500", "195912.142500", "195913.632500", "195915.122500", "195916.612500", "195918.102500", "195919.592500", "195921.082500", "195922.572500", "195924.062500", "195925.552500", "195927.042500", "195928.532500", "195930.022500", "195931.512500", "195933.002500", "195934.492500", "195935.982500", "195937.472500", "195938.962500", "195940.452500", "195941.942500", "195943.432500", "195944.922500", "195946.412500", "195947.902500", "195949.392500", "195950.882500", "195952.372500", "195953.862500", "195955.352500", "195956.842500", "195958.332500", "195959.822500", "200001.312500", "200002.802500", "200004.292500", "200005.782500", "200007.272500", "200008.762500", "200010.252500", "200011.742500", "200013.232500", "200014.722500", "200016.212500", "200017.702500", "200019.192500", "200020.682500", "200022.172500", "200023.662500", "200025.152500", "200026.642500", "200028.132500", "200029.622500", "200031.112500", "200032.602500", "200034.092500", "200035.582500", "200037.072500", "200038.562500", "200040.052500", "200041.542500", "200043.032500", "200044.522500", "200046.012500", "200047.502500", "200048.992500", "200050.482500", "200051.972500", "200053.462500", "200054.952500", "200056.442500", "200057.932500", "200059.422500", "200100.912500", "200102.402500", "200103.892500", "200105.382500", "200106.872500", "200108.362500", "200109.852500", "200111.342500", "200112.832500", "200114.322500", "200115.812500", "200117.302500", "200118.792500", "200120.282500", "200121.772500", "200123.262500", "200124.752500", "200126.242500", "200127.732500", "200129.222500", "200130.712500", "200132.202500", "200133.692500", "200135.182500", "200136.672500", "200138.162500", "200139.652500", "200141.142500", "200142.632500", "200144.122500", "200145.612500", "200147.102500", "200148.592500", "200150.082500", "200151.572500", "200153.062500", "200154.552500", "200156.042500", "200157.532500", "200159.022500", "200200.512500", "200202.002500", "200203.492500", "200204.982500", "200206.472500", "200207.962500", "200209.452500", "200210.942500", "200212.432500", "200213.922500", "200215.412500", "200216.902500", "200218.392500", "200219.882500", "200221.372500", "200222.862500", "200224.352500", "200225.842500", "200227.332500", "200228.822500", "200230.312500", "200231.802500", "200233.292500", "200234.782500", "200236.272500", "200237.762500", "200239.252500", "200240.742500", "200242.232500", "200243.722500", "200245.212500", "200246.702500", "200248.192500", "200249.682500", "200251.172500", "200252.662500", "200254.152500", "200255.642500", "200257.132500", "200258.622500", "200300.112500", "200301.602500", "200303.092500", "200304.582500", "200306.072500", "200307.562500", "200309.052500", "200310.542500", "200312.032500", "200313.522500", "200315.012500", "200316.502500", "200317.992500", "200319.482500", "200320.972500", "200322.462500", "200323.952500", "200325.442500", "200326.932500", "200328.422500", "200329.912500", "200331.402500", "200332.892500", "200334.382500", "200335.872500", "200337.362500", "200338.852500", "200340.342500", "200341.832500", "200343.322500", "200344.812500", "200346.302500", "200347.792500", "200349.282500", "200350.772500", "200352.262500", "200353.752500", "200355.242500", "200356.732500", "200358.222500", "200359.712500", "200401.202500", "200402.692500", "200404.182500", "200405.672500", "200407.162500", "200408.652500", "200410.142500", "200411.632500", "200413.122500", "200414.612500", "200416.102500", "200417.592500", "200419.082500", "200420.572500", "200422.062500", "200423.552500", "200425.042500", "200426.532500", "200428.022500", "200429.512500", "200431.002500", "200432.492500", "200433.982500", "200435.472500", "200436.962500", "200438.452500", "200439.942500", "200441.432500", "200442.922500", "200444.412500", "200445.902500", "200447.392500", "200448.882500", "200450.372500", "200451.862500", "200453.352500", "200454.842500", "200456.332500", "200457.822500", "200459.312500", "200500.802500", "200502.292500", "200503.782500", "200505.272500", "200506.762500", "200508.252500", "200509.742500", "200511.232500", "200512.722500", "200514.212500", "200515.702500", "200517.192500", "200518.682500", "200520.172500", "200521.662500", "200523.152500", "200524.642500", "200526.132500", "200527.622500", "200529.112500", "200530.602500", "200532.092500", "200533.582500", "200535.072500", "200536.562500", "200538.052500", "200539.542500", "200541.032500", "200542.522500", "200544.012500", "200545.502500", "200546.992500", "200548.482500", "200549.972500", "200551.462500"],
      "ContentTime": ["195501.238000", "195501.246000", "195501.249000", "195501.251000", "195521.203000", "195521.206000", "195521.217000", "195521.220000", "195521.223000", "195521.225000", "195521.228000", "195521.242000", "195521.245000", "195521.247000", "195521.250000", "195521.253000", "195521.256000", "195521.259000", "195521.262000", "195521.265000", "195521.267000", "195521.270000", "195521.273000", "195521.276000", "195541.203000", "195541.206000", "195541.209000", "195541.212000", "195541.215000", "195541.218000", "195541.220000", "195541.223000", "195541.226000", "195541.229000", "195541.237000", "195541.240000", "195541.243000", "195541.245000", "195541.248000", "195541.267000", "195541.270000", "195541.272000", "195541.275000", "195541.278000", "195541.281000", "195601.203000", "195601.206000", "195601.209000", "195601.212000", "195601.214000", "195601.217000", "195601.220000", "195601.223000", "195601.226000", "195601.229000", "195601.238000", "195601.240000", "195601.243000", "195601.246000", "195601.249000", "195601.252000", "195601.255000", "195601.257000", "195601.260000", "195601.263000", "195621.202000", "195621.205000", "195621.208000", "195621.211000", "195621.213000", "195621.216000", "195621.219000", "195621.222000", "195621.225000", "195621.228000", "195621.231000", "195621.233000", "195621.236000", "195621.239000", "195621.242000", "195621.245000", "195621.248000", "195621.251000", "195621.254000", "195621.262000", "195641.203000", "195641.206000", "195641.209000", "195641.212000", "195641.214000", "195641.217000", "195641.220000", "195641.223000", "195641.226000", "195641.229000", "195641.232000", "195641.234000", "195641.237000", "195641.240000", "195641.243000", "195641.246000", "195641.249000", "195641.251000", "195641.254000", "195641.257000", "195721.203000", "195721.206000", "195721.209000", "195721.212000", "195721.215000", "195721.217000", "195721.220000", "195721.223000", "195721.226000", "195721.229000", "195721.232000", "195721.235000", "195721.237000", "195721.240000", "195721.243000", "195721.246000", "195721.249000", "195721.252000", "195721.255000", "195721.257000", "195721.264000", "195721.267000", "195721.270000", "195721.273000", "195721.276000", "195721.279000", "195721.283000", "195801.203000", "195801.206000", "195801.209000", "195801.212000", "195801.215000", "195801.218000", "195801.220000", "195801.223000", "195801.226000", "195801.229000", "195801.232000", "195801.235000", "195801.238000", "195801.240000", "195801.243000", "195801.246000", "195801.249000", "195801.252000", "195801.255000", "195801.258000", "195801.261000", "195801.264000", "195801.266000", "195801.269000", "195801.272000", "195801.275000", "195801.278000", "195841.202000", "195841.205000", "195841.208000", "195841.211000", "195841.214000", "195841.218000", "195841.220000", "195841.223000", "195841.226000", "195841.229000", "195841.232000", "195841.235000", "195841.238000", "195841.241000", "195841.244000", "195841.246000", "195841.249000", "195841.252000", "195841.255000", "195841.258000", "195841.261000", "195841.264000", "195841.267000", "195841.270000", "195841.272000", "195841.275000", "195841.278000", "195921.203000", "195921.206000", "195921.209000", "195921.212000", "195921.215000", "195921.218000", "195921.221000", "195921.223000", "195921.226000", "195921.229000", "195921.232000", "195921.235000", "195921.238000", "195921.244000", "195921.247000", "195921.250000", "195921.252000", "195921.255000", "195921.258000", "195921.261000", "195921.264000", "195921.267000", "195921.270000", "195921.273000", "195921.276000", "195921.278000", "195921.281000", "200001.203000", "200001.206000", "200001.209000", "200001.212000", "200001.215000", "200001.218000", "200001.220000", "200001.223000", "200001.226000", "200001.229000", "200001.232000", "200001.235000", "200001.238000", "200001.241000", "200001.244000", "200001.247000", "200001.250000", "200001.252000", "200001.255000", "200001.258000", "200001.261000", "200001.264000", "200001.267000", "200001.270000", "200001.273000", "200001.276000", "200001.278000", "200041.203000", "200041.206000", "200041.209000", "200041.212000", "200041.215000", "200041.218000", "200041.221000", "200041.223000", "200041.226000", "200041.229000", "200041.232000", "200041.235000", "200041.238000", "200041.241000", "200041.244000", "200041.247000", "200041.249000", "200041.252000", "200041.255000", "200041.258000", "200041.261000", "200041.264000", "200041.274000", "200041.277000", "200041.280000", "200041.283000", "200041.286000", "200121.203000", "200121.206000", "200121.209000", "200121.212000", "200121.215000", "200121.218000", "200121.221000", "200121.224000", "200121.227000", "200121.229000", "200121.232000", "200121.235000", "200121.238000", "200121.241000", "200121.244000", "200121.247000", "200121.250000", "200121.253000", "200121.256000", "200121.258000", "200121.261000", "200121.264000", "200121.267000", "200121.270000", "200121.273000", "200121.276000", "200201.203000", "200201.206000", "200201.209000", "200201.212000", "200201.215000", "200201.217000", "200201.220000", "200201.223000", "200201.226000", "200201.229000", "200201.232000", "200201.235000", "200201.238000", "200201.241000", "200201.243000", "200201.246000", "200201.249000", "200201.252000", "200201.255000", "200201.258000", "200201.261000", "200201.264000", "200201.267000", "200201.270000", "200201.272000", "200201.275000", "200201.278000", "200241.203000", "200241.213000", "200241.216000", "200241.219000", "200241.222000", "200241.225000", "200241.228000", "200241.231000", "200241.234000", "200241.237000", "200241.239000", "200241.242000", "200241.245000", "200241.248000", "200241.251000", "200241.254000", "200241.257000", "200241.260000", "200241.263000", "200241.266000", "200241.269000", "200241.271000", "200241.274000", "200241.277000", "200241.280000", "200241.283000", "200241.286000", "200321.203000", "200321.206000", "200321.209000", "200321.212000", "200321.215000", "200321.218000", "200321.221000", "200321.223000", "200321.226000", "200321.229000", "200321.232000", "200321.235000", "200321.238000", "200321.241000", "200321.244000", "200321.247000", "200321.250000", "200321.252000", "200321.255000", "200321.258000", "200321.261000", "200321.264000", "200321.273000", "200321.276000", "200321.279000", "200321.281000", "200321.285000", "200401.203000", "200401.206000", "200401.209000", "200401.212000", "200401.215000", "200401.218000", "200401.221000", "200401.224000", "200401.226000", "200401.229000", "200401.232000", "200401.235000", "200401.238000", "200401.241000", "200401.244000", "200401.247000", "200401.250000", "200401.253000", "200401.256000", "200401.259000", "200401.262000", "200401.264000", "200401.267000", "200401.270000", "200401.273000", "200401.276000", "200401.279000", "200441.203000", "200441.206000", "200441.209000", "200441.212000", "200441.215000", "200441.218000", "200441.220000", "200441.223000", "200441.226000", "200441.229000", "200441.232000", "200441.235000", "200441.238000", "200441.241000", "200441.262000", "200441.265000", "200441.268000", "200441.271000", "200441.274000", "200441.276000", "200441.279000", "200441.282000", "200441.285000", "200441.288000", "200441.291000", "200441.293000", "200441.296000", "200521.203000", "200521.206000", "200521.209000", "200521.212000", "200521.215000", "200521.218000", "200521.220000", "200521.223000", "200521.226000", "200521.229000", "200521.232000", "200521.235000", "200521.238000", "200521.240000", "200521.244000", "200521.246000", "200521.249000", "200521.252000", "200521.255000", "200521.258000", "200521.261000", "200521.264000", "200521.267000", "200521.270000", "200521.272000", "200521.275000", "200521.278000", "200554.011000", "200554.014000", "200554.017000", "200554.020000", "200554.023000", "200554.026000", "200554.028000", "200554.031000", "200554.034000", "200554.037000", "200554.040000", "200554.043000", "200554.046000", "200554.049000", "200554.052000", "200554.055000", "200554.057000", "200554.060000", "200554.063000", "200554.066000", "200554.069000", "200554.072000"],
