{
  "AcquisitionMatrixPE": 104,
  "AcquisitionNumber": 1,
  "AcquisitionTime": "18:40:28.187500",
  "BandwidthPerPixelPhaseEncode": 17.17,
  "BaseResolution": 104,
  "BodyPartExamined": "BRAIN",
  "CoilString": "HC1-7;NC1_2",
  "ConsistencyInfo": "N4_VE11C_LATEST_20160120",
  "ConversionSoftware": "dcm2niix",
  "ConversionSoftwareVersion": "v1.0.20190720  (JP2:OpenJPEG) GCC7.3.0",
  "DerivedVendorReportedEchoSpacing": 0.000560011,
  "DeviceSerialNumber": "167006",
  "DwellTime": 2.1e-06,
  "EchoTime": 0.037,
  "EchoTrainLength": 104,
  "EffectiveEchoSpacing": 0.000560011,
  "FlipAngle": 52,
  "ImageComments": "Unaliased_MB4_PE3_LB",
  "ImageOrientationPatientDICOM": [0.996352, -0.0847044, -0.0103784, 0.0754407, 0.931109, -0.356853],
  "ImageType": [
    "ORIGINAL",
    "PRIMARY",
    "M",
    "MB",
    "ND",
    "MOSAIC"
],
  "ImagingFrequency": 123.259,
  "InPlanePhaseEncodingDirectionDICOM": "COL",
  "InstitutionAddress": "Chemin_Queen-Mary_4565_Montreal_District_CA_H3W_1W5",
  "InstitutionName": "IUGM",
  "InstitutionalDepartmentName": "Department",
  "MRAcquisitionType": "2D",
  "MagneticFieldStrength": 3,
  "Manufacturer": "Siemens",
  "ManufacturersModelName": "Prisma_fit",
  "Modality": "MR",
  "MultibandAccelerationFactor": 4,
  "PartialFourier": 1,
  "PatientPosition": "HFS",
  "PercentPhaseFOV": 100,
  "PhaseEncodingDirection": "j",
  "PhaseEncodingSteps": 104,
  "PhaseResolution": 1,
  "PixelBandwidth": 2290,
  "ProcedureStepDescription": "video_friends",
  "ProtocolName": "func_task-friends-s01e18a",
  "PulseSequenceDetails": "%CustomerSeq%_cmrr_mbep2d_bold",
  "ReceiveCoilActiveElements": "HC1-7;NC1,2",
  "ReceiveCoilName": "HeadNeck_64",
  "ReconMatrixPE": 104,
  "RepetitionTime": 1.49,
  "SAR": 0.0322332,
  "ScanOptions": "FS",
  "ScanningSequence": "EP",
  "SequenceName": "epfid2d1_104",
  "SequenceVariant": "SK_SS",
  "SeriesDescription": "func_task-friends-s01e18a",
  "SeriesNumber": 11,
  "ShimSetting": [622, -7265, -8862, 381, 64, -440, 3, 45],
  "SliceThickness": 2,
  "SliceTiming": [0, 0.785, 0.0975, 0.8825, 0.195, 0.98, 0.295, 1.0775, 0.3925, 1.175, 0.49, 1.275, 0.5875, 1.3725, 0.685, 0, 0.785, 0.0975, 0.8825, 0.195, 0.98, 0.295, 1.0775, 0.3925, 1.175, 0.49, 1.275, 0.5875, 1.3725, 0.685, 0, 0.785, 0.0975, 0.8825, 0.195, 0.98, 0.295, 1.0775, 0.3925, 1.175, 0.49, 1.275, 0.5875, 1.3725, 0.685, 0, 0.785, 0.0975, 0.8825, 0.195, 0.98, 0.295, 1.0775, 0.3925, 1.175, 0.49, 1.275, 0.5875, 1.3725, 0.685],
  "SoftwareVersions": "syngo_MR_E11",
  "SpacingBetweenSlices": 2,
  "StationName": "MRC35049",
  "TaskName": "friends",
  "TotalReadoutTime": 0.0576811,
  "TxRefAmp": 232.646,
  "WipMemBlock": "fb05d16d-5871-4042-8edb-7e522eca6738||Sequence: R016 ve11c/master r/e634e98; Dec 19 2017 11:00:25 by eja",
  "dcmmeta_affine": [
    [-1.992704153060913, 0.15088145434856415, -0.07978096604347229, 93.45552062988281],
    [0.1694088727235794, 1.8622186183929443, -0.7095369100570679, -79.00889587402344],
    [-0.02075681835412979, 0.7137063145637512, 1.8682056665420532, -73.73194885253906],
    [0.0, 0.0, 0.0, 1.0]
],
  "dcmmeta_reorient_transform": [
    [0.0, -1.0, 0.0, 103.0],
    [1.0, 0.0, 0.0, 0.0],
    [0.0, 0.0, 1.0, 0.0],
    [0.0, 0.0, 0.0, 1.0]
],
  "dcmmeta_shape": [104, 104, 60, 497],
  "dcmmeta_slice_dim": 2,
  "dcmmeta_version": 0.6,
  "global": {
    "const": {
      "AcquisitionMatrix": [104, 0, 0, 104],
      "AngioFlag": "N",
      "BitsAllocated": 16,
      "BitsStored": 16,
      "BodyPartExamined": "BRAIN",
      "Columns": 832,
      "EchoNumbers": 1,
      "EchoTime": 37.0,
      "EchoTrainLength": 104,
      "FlipAngle": 52.0,
      "HighBit": 15,
      "ImageOrientationPatient": [0.99635206957457, -0.0847044394905, -0.0103784095633, 0.07544072490873, 0.93110929235096, -0.3568531668949],
      "ImagePositionPatient": [-889.26146121509, -728.98234946647, 267.12439439157],
      "ImageType": [
        "ORIGINAL",
        "PRIMARY",
        "M",
        "MB",
        "ND",
        "MOSAIC"
],
      "ImagedNucleus": "1H",
      "ImagingFrequency": 123.259444,
      "InPlanePhaseEncodingDirection": "COL",
      "MRAcquisitionType": "2D",
      "MagneticFieldStrength": 3.0,
      "Manufacturer": "SIEMENS",
      "ManufacturerModelName": "Prisma_fit",
      "Modality": "MR",
      "NumberOfAverages": 1.0,
      "NumberOfPhaseEncodingSteps": 104,
      "PercentPhaseFieldOfView": 100.0,
      "PercentSampling": 100.0,
      "PerformedProcedureStepStartTime": "180642.828000",
      "PhotometricInterpretation": "MONOCHROME2",
      "PixelBandwidth": 2290.0,
      "PixelRepresentation": 0,
      "PixelSpacing": [2.0, 2.0],
      "ProtocolName": "func_task-friends-s01e18a",
      "RepetitionTime": 1490.0,
      "Rows": 832,
      "SAR": 0.0322332156639,
      "SamplesPerPixel": 1,
      "ScanOptions": "FS",
      "ScanningSequence": "EP",
      "SequenceName": "epfid2d1_104",
      "SequenceVariant": [
        "SK",
        "SS"
],
      "SeriesDescription": "func_task-friends-s01e18a",
      "SeriesNumber": 11,
      "SeriesTime": "184201.233000",
      "SliceLocation": -44.571341899591,
      "SliceThickness": 2.0,
      "SmallestImagePixelValue": 0,
      "SoftwareVersions": "syngo MR E11",
      "SpacingBetweenSlices": 2.0000000243065,
      "SpecificCharacterSet": "ISO_IR 100",
      "StudyID": "1",
      "StudyTime": "180642.764000",
      "TransmitCoilName": "Body",
      "VariableFlipAngleFlag": "N",
      "WindowCenterWidthExplanation": "Algo1",
      "dBdt": 0.0},
    "slices": {}
  },
  "time": {
    "samples": {
      "AcquisitionNumber": [1, 2, 3, 4, 5, 6, 7, 8, 9, 10, 11, 12, 13, 14, 15, 16, 17, 18, 19, 20, 21, 22, 23, 24, 25, 26, 27, 28, 29, 30, 31, 32, 33, 34, 35, 36, 37, 38, 39, 40, 41, 42, 43, 44, 45, 46, 47, 48, 49, 50, 51, 52, 53, 54, 55, 56, 57, 58, 59, 60, 61, 62, 63, 64, 65, 66, 67, 68, 69, 70, 71, 72, 73, 74, 75, 76, 77, 78, 79, 80, 81, 82, 83, 84, 85, 86, 87, 88, 89, 90, 91, 92, 93, 94, 95, 96, 97, 98, 99, 100, 101, 102, 103, 104, 105, 106, 107, 108, 109, 110, 111, 112, 113, 114, 115, 116, 117, 118, 119, 120, 121, 122, 123, 124, 125, 126, 127, 128, 129, 130, 131, 132, 133, 134, 135, 136, 137, 138, 139, 140, 141, 142, 143, 144, 145, 146, 147, 148, 149, 150, 151, 152, 153, 154, 155, 156, 157, 158, 159, 160, 161, 162, 163, 164, 165, 166, 167, 168, 169, 170, 171, 172, 173, 174, 175, 176, 177, 178, 179, 180, 181, 182, 183, 184, 185, 186, 187, 188, 189, 190, 191, 192, 193, 194, 195, 196, 197, 198, 199, 200, 201, 202, 203, 204, 205, 206, 207, 208, 209, 210, 211, 212, 213, 214, 215, 216, 217, 218, 219, 220, 221, 222, 223, 224, 225, 226, 227, 228, 229, 230, 231, 232, 233, 234, 235, 236, 237, 238, 239, 240, 241, 242, 243, 244, 245, 246, 247, 248, 249, 250, 251, 252, 253, 254, 255, 256, 257, 258, 259, 260, 261, 262, 263, 264, 265, 266, 267, 268, 269, 270, 271, 272, 273, 274, 275, 276, 277, 278, 279, 280, 281, 282, 283, 284, 285, 286, 287, 288, 289, 290, 291, 292, 293, 294, 295, 296, 297, 298, 299, 300, 301, 302, 303, 304, 305, 306, 307, 308, 309, 310, 311, 312, 313, 314, 315, 316, 317, 318, 319, 320, 321, 322, 323, 324, 325, 326, 327, 328, 329, 330, 331, 332, 333, 334, 335, 336, 337, 338, 339, 340, 341, 342, 343, 344, 345, 346, 347, 348, 349, 350, 351, 352, 353, 354, 355, 356, 357, 358, 359, 360, 361, 362, 363, 364, 365, 366, 367, 368, 369, 370, 371, 372, 373, 374, 375, 376, 377, 378, 379, 380, 381, 382, 383, 384, 385, 386, 387, 388, 389, 390, 391, 392, 393, 394, 395, 396, 397, 398, 399, 400, 401, 402, 403, 404, 405, 406, 407, 408, 409, 410, 411, 412, 413, 414, 415, 416, 417, 418, 419, 420, 421, 422, 423, 424, 425, 426, 427, 428, 429, 430, 431, 432, 433, 434, 435, 436, 437, 438, 439, 440, 441, 442, 443, 444, 445, 446, 447, 448, 449, 450, 451, 452, 453, 454, 455, 456, 457, 458, 459, 460, 461, 462, 463, 464, 465, 466, 467, 468, 469, 470, 471, 472, 473, 474, 475, 476, 477, 478, 479, 480, 481, 482, 483, 484, 485, 486, 487, 488, 489, 490, 491, 492, 493, 494, 495, 496, 497],
      "AcquisitionTime": ["184028.187500", "184029.677500", "184031.167500", "184032.657500", "184034.147500", "184035.637500", "184037.127500", "184038.617500", "184040.107500", "184041.597500", "184043.087500", "184044.577500", "184046.067500", "184047.557500", "184049.047500", "184050.537500", "184052.027500", "184053.517500", "184055.007500", "184056.497500", "184057.987500", "184059.477500", "184100.967500", "184102.457500", "184103.947500", "184105.437500", "184106.927500", "184108.417500", "184109.907500", "184111.397500", "184112.887500", "184114.377500", "184115.867500", "184117.357500", "184118.847500", "184120.337500", "184121.827500", "184123.317500", "184124.807500", "184126.297500", "184127.787500", "184129.277500", "184130.767500", "184132.257500", "184133.747500", "184135.237500", "184136.727500", "184138.217500", "184139.707500", "184141.197500", "184142.687500", "184144.177500", "184145.667500", "184147.157500", "184148.647500", "184150.137500", "184151.627500", "184153.117500", "184154.607500", "184156.097500", "184157.587500", "184159.077500", "184200.567500", "184202.057500", "184203.547500", "184205.037500", "184206.527500", "184208.017500", "184209.507500", "184210.997500", "184212.487500", "184213.977500", "184215.467500", "184216.957500", "184218.447500", "184219.937500", "184221.427500", "184222.917500", "184224.407500", "184225.897500", "184227.387500", "184228.877500", "184230.367500", "184231.857500", "184233.347500", "184234.837500", "184236.327500", "184237.817500", "184239.307500", "184240.797500", "184242.287500", "184243.777500", "184245.267500", "184246.757500", "184248.247500", "184249.737500", "184251.227500", "184252.717500", "184254.207500", "184255.697500", "184257.187500", "184258.677500", "184300.167500", "184301.657500", "184303.147500", "184304.637500", "184306.127500", "184307.617500", "184309.107500", "184310.597500", "184312.087500", "184313.577500", "184315.067500", "184316.557500", "184318.047500", "184319.537500", "184321.027500", "184322.517500", "184324.007500", "184325.497500", "184326.987500", "184328.477500", "184329.967500", "184331.457500", "184332.947500", "184334.437500", "184335.927500", "184337.417500", "184338.907500", "184340.397500", "184341.887500", "184343.377500", "184344.867500", "184346.357500", "184347.847500", "184349.337500", "184350.827500", "184352.317500", "184353.807500", "184355.297500", "184356.787500", "184358.277500", "184359.767500", "184401.257500", "184402.747500", "184404.237500", "184405.727500", "184407.217500", "184408.707500", "184410.197500", "184411.687500", "184413.177500", "184414.667500", "184416.157500", "184417.647500", "184419.137500", "184420.627500", "184422.117500", "184423.607500", "184425.097500", "184426.587500", "184428.077500", "184429.567500", "184431.057500", "184432.547500", "184434.037500", "184435.527500", "184437.017500", "184438.507500", "184439.997500", "184441.487500", "184442.977500", "184444.467500", "184445.957500", "184447.447500", "184448.937500", "184450.427500", "184451.917500", "184453.407500", "184454.897500", "184456.387500", "184457.877500", "184459.367500", "184500.857500", "184502.347500", "184503.837500", "184505.327500", "184506.817500", "184508.307500", "184509.797500", "184511.287500", "184512.777500", "184514.267500", "184515.757500", "184517.247500", "184518.737500", "184520.227500", "184521.717500", "184523.207500", "184524.697500", "184526.187500", "184527.677500", "184529.167500", "184530.657500", "184532.147500", "184533.637500", "184535.127500", "184536.617500", "184538.107500", "184539.597500", "184541.087500", "184542.577500", "184544.067500", "184545.557500", "184547.047500", "184548.537500", "184550.027500", "184551.517500", "184553.007500", "184554.497500", "184555.987500", "184557.477500", "184558.967500", "184600.457500", "184601.947500", "184603.437500", "184604.927500", "184606.417500", "184607.907500", "184609.397500", "184610.887500", "184612.377500", "184613.867500", "184615.357500", "184616.847500", "184618.337500", "184619.827500", "184621.317500", "184622.807500", "184624.297500", "184625.787500", "184627.277500", "184628.767500", "184630.257500", "184631.747500", "184633.237500", "184634.727500", "184636.217500", "184637.707500", "184639.197500", "184640.687500", "184642.177500", "184643.667500", "184645.157500", "184646.647500", "184648.137500", "184649.627500", "184651.117500", "184652.607500", "184654.097500", "184655.587500", "184657.077500", "184658.567500", "184700.057500", "184701.547500", "184703.037500", "184704.527500", "184706.017500", "184707.507500", "184708.997500", "184710.487500", "184711.977500", "184713.467500", "184714.957500", "184716.447500", "184717.937500", "184719.427500", "184720.917500", "184722.407500", "184723.897500", "184725.387500", "184726.877500", "184728.367500", "184729.857500", "184731.347500", "184732.837500", "184734.327500", "184735.817500", "184737.307500", "184738.797500", "184740.287500", "184741.777500", "184743.267500", "184744.757500", "184746.247500", "184747.737500", "184749.227500", "184750.717500", "184752.207500", "184753.697500", "184755.187500", "184756.677500", "184758.167500", "184759.657500", "184801.147500", "184802.637500", "184804.127500", "184805.617500", "184807.107500", "184808.597500", "184810.087500", "184811.577500", "184813.067500", "184814.557500", "184816.047500", "184817.537500", "184819.027500", "184820.517500", "184822.007500", "184823.497500", "184824.987500", "184826.477500", "184827.967500", "184829.457500", "184830.947500", "184832.437500", "184833.927500", "184835.417500", "184836.907500", "184838.397500", "184839.887500", "184841.377500", "184842.867500", "184844.357500", "184845.847500", "184847.337500", "184848.827500", "184850.317500", "184851.807500", "184853.297500", "184854.787500", "184856.277500", "184857.767500", "184859.257500", "184900.747500", "184902.237500", "184903.727500", "184905.217500", "184906.707500", "184908.197500", "184909.687500", "184911.177500", "184912.667500", "184914.157500", "184915.647500", "184917.137500", "184918.627500", "184920.117500", "184921.607500", "184923.097500", "184924.587500", "184926.077500", "184927.567500", "184929.057500", "184930.547500", "184932.037500", "184933.527500", "184935.017500", "184936.507500", "184937.997500", "184939.487500", "184940.977500", "184942.467500", "184943.957500", "184945.447500", "184946.937500", "184948.427500", "184949.917500", "184951.407500", "184952.897500", "184954.387500", "184955.877500", "184957.367500", "184958.857500", "185000.347500", "185001.837500", "185003.327500", "185004.817500", "185006.307500", "185007.797500", "185009.287500", "185010.777500", "185012.267500", "185013.757500", "185015.247500", "185016.737500", "185018.227500", "185019.717500", "185021.207500", "185022.697500", "185024.187500", "185025.677500", "185027.167500", "185028.657500", "185030.147500", "185031.637500", "185033.127500", "185034.617500", "185036.107500", "185037.597500", "185039.087500", "185040.577500", "185042.067500", "185043.557500", "185045.047500", "185046.537500", "185048.027500", "185049.517500", "185051.007500", "185052.497500", "185053.987500", "185055.477500", "185056.967500", "185058.457500", "185059.947500", "185101.437500", "185102.927500", "185104.417500", "185105.907500", "185107.397500", "185108.887500", "185110.377500", "185111.867500", "185113.357500", "185114.847500", "185116.337500", "185117.827500", "185119.317500", "185120.807500", "185122.297500", "185123.787500", "185125.277500", "185126.767500", "185128.257500", "185129.747500", "185131.237500", "185132.727500", "185134.217500", "185135.707500", "185137.197500", "185138.687500", "185140.177500", "185141.667500", "185143.157500", "185144.647500", "185146.137500", "185147.627500", "185149.117500", "185150.607500", "185152.097500", "185153.587500", "185155.077500", "185156.567500", "185158.057500", "185159.547500", "185201.037500", "185202.527500", "185204.017500", "185205.507500", "185206.997500", "185208.487500", "185209.977500", "185211.467500", "185212.957500", "185214.447500", "185215.937500", "185217.427500", "185218.917500", "185220.407500", "185221.897500", "185223.387500", "185224.877500", "185226.367500", "185227.857500", "185229.347500", "185230.837500", "185232.327500", "185233.817500", "185235.307500", "185236.797500", "185238.287500", "185239.777500", "185241.267500", "185242.757500", "185244.247500", "185245.737500", "185247.227500"],
      "ContentTime": ["184201.235000", "184201.239000", "184201.242000", "184201.245000", "184201.248000", "184201.250000", "184201.253000", "184201.256000", "184201.259000", "184201.262000", "184201.265000", "184201.268000", "184201.270000", "184201.273000", "184201.276000", "184201.279000", "184201.282000", "184201.285000", "184201.288000", "184201.291000", "184201.293000", "184201.296000", "184201.308000", "184201.311000", "184201.314000", "184201.317000", "184201.319000", "184201.322000", "184201.325000", "184201.328000", "184201.331000", "184201.334000", "184201.336000", "184201.339000", "184201.342000", "184201.345000", "184201.348000", "184201.351000", "184201.354000", "184221.203000", "184221.211000", "184221.214000", "184221.216000", "184221.219000", "184221.222000", "184221.225000", "184221.228000", "184221.231000", "184221.233000", "184221.236000", "184221.239000", "184221.242000", "184221.245000", "184221.248000", "184221.251000", "184221.254000", "184221.257000", "184221.260000", "184221.263000", "184241.203000", "184241.207000", "184241.210000", "184241.213000", "184241.216000", "184241.219000", "184241.222000", "184241.225000", "184241.228000", "184241.231000", "184241.233000", "184241.236000", "184241.239000", "184241.242000", "184241.245000", "184241.248000", "184241.251000", "184241.253000", "184241.256000", "184241.259000", "184301.203000", "184301.206000", "184301.209000", "184301.212000", "184301.215000", "184301.218000", "184301.225000", "184301.228000", "184301.231000", "184301.234000", "184301.237000", "184301.239000", "184301.242000", "184301.258000", "184301.261000", "184301.264000", "184301.267000", "184301.270000", "184301.273000", "184301.276000", "184301.278000", "184341.203000", "184341.206000", "184341.209000", "184341.212000", "184341.215000", "184341.217000", "184341.220000", "184341.223000", "184341.226000", "184341.229000", "184341.232000", "184341.235000", "184341.238000", "184341.240000", "184341.243000", "184341.246000", "184341.249000", "184341.252000", "184341.255000", "184341.258000", "184341.260000", "184341.263000", "184341.266000", "184341.269000", "184341.272000", "184341.275000", "184341.277000", "184341.280000", "184341.283000", "184421.202000", "184421.205000", "184421.208000", "184421.211000", "184421.214000", "184421.216000", "184421.222000", "184421.225000", "184421.228000", "184421.230000", "184421.233000", "184421.236000", "184421.239000", "184421.242000", "184421.245000", "184421.248000", "184421.250000", "184421.253000", "184421.256000", "184421.259000", "184421.262000", "184421.265000", "184421.268000", "184421.270000", "184421.273000", "184421.276000", "184421.279000", "184441.203000", "184441.206000", "184441.209000", "184441.212000", "184441.215000", "184441.218000", "184441.220000", "184441.223000", "184441.226000", "184441.229000", "184441.232000", "184441.235000", "184441.238000", "184521.203000", "184521.206000", "184521.209000", "184521.212000", "184521.215000", "184521.217000", "184521.220000", "184521.223000", "184521.226000", "184521.229000", "184521.232000", "184521.235000", "184521.238000", "184521.240000", "184521.243000", "184521.246000", "184521.249000", "184521.252000", "184521.255000", "184521.258000", "184521.260000", "184521.263000", "184521.266000", "184521.269000", "184521.272000", "184521.275000", "184521.278000", "184601.203000", "184601.206000", "184601.209000", "184601.212000", "184601.220000", "184601.223000", "184601.226000", "184601.228000", "184601.231000", "184601.234000", "184601.237000", "184601.240000", "184601.243000", "184601.246000", "184601.249000", "184601.252000", "184601.255000", "184601.258000", "184601.261000", "184601.264000", "184601.266000", "184601.269000", "184601.277000", "184601.280000", "184601.283000", "184601.286000", "184601.289000", "184641.202000", "184641.205000", "184641.208000", "184641.211000", "184641.214000", "184641.217000", "184641.219000", "184641.222000", "184641.225000", "184641.228000", "184641.231000", "184641.234000", "184641.236000", "184641.239000", "184641.242000", "184641.245000", "184641.248000", "184641.251000", "184641.254000", "184641.256000", "184641.259000", "184641.262000", "184641.265000", "184641.268000", "184641.271000", "184641.274000", "184641.276000", "184721.203000", "184721.206000", "184721.209000", "184721.212000", "184721.215000", "184721.218000", "184721.220000", "184721.223000", "184721.226000", "184721.229000", "184721.232000", "184721.235000", "184721.238000", "184721.241000", "184721.243000", "184721.246000", "184721.249000", "184721.252000", "184721.255000", "184721.258000", "184721.261000", "184721.263000", "184721.266000", "184721.269000", "184721.272000", "184721.275000", "184721.278000", "184801.203000", "184801.206000", "184801.209000", "184801.212000", "184801.215000", "184801.217000", "184801.220000", "184801.223000", "184801.226000", "184801.229000", "184801.232000", "184801.234000", "184801.237000", "184801.240000", "184801.243000", "184801.246000", "184801.249000", "184801.265000", "184801.268000", "184801.271000", "184801.274000", "184801.277000", "184801.280000", "184801.283000", "184801.286000", "184801.289000", "184841.203000", "184841.206000", "184841.209000", "184841.212000", "184841.215000", "184841.218000", "184841.220000", "184841.223000", "184841.226000", "184841.229000", "184841.232000", "184841.235000", "184841.237000", "184841.240000", "184841.243000", "184841.246000", "184841.249000", "184841.252000", "184841.261000", "184841.264000", "184841.267000", "184841.270000", "184841.273000", "184841.276000", "184841.278000", "184841.281000", "184841.284000", "184921.203000", "184921.206000", "184921.209000", "184921.212000", "184921.215000", "184921.218000", "184921.221000", "184921.223000", "184921.226000", "184921.229000", "184921.232000", "184921.235000", "184921.238000", "184921.240000", "184921.243000", "184921.246000", "184921.249000", "184921.252000", "184921.255000", "184921.258000", "184921.261000", "184921.263000", "184921.266000", "184921.269000", "184921.272000", "184921.275000", "184921.278000", "185001.203000", "185001.206000", "185001.209000", "185001.212000", "185001.215000", "185001.218000", "185001.221000", "185001.223000", "185001.226000", "185001.229000", "185001.232000", "185001.235000", "185001.238000", "185001.240000", "185001.243000", "185001.246000", "185001.249000", "185001.252000", "185001.255000", "185001.258000", "185001.261000", "185001.263000", "185001.266000", "185001.269000", "185001.272000", "185001.275000", "185001.278000", "185041.203000", "185041.206000", "185041.209000", "185041.212000", "185041.215000", "185041.218000", "185041.220000", "185041.223000", "185041.226000", "185041.229000", "185041.232000", "185041.235000", "185041.238000", "185041.240000", "185041.243000", "185041.246000", "185041.249000", "185041.252000", "185041.255000", "185041.258000", "185041.261000", "185041.263000", "185041.266000", "185041.269000", "185041.272000", "185041.275000", "185041.278000", "185121.202000", "185121.205000", "185121.208000", "185121.211000", "185121.214000", "185121.217000", "185121.220000", "185121.222000", "185121.225000", "185121.228000", "185121.231000", "185121.234000", "185121.237000", "185121.240000", "185121.242000", "185121.245000", "185121.248000", "185121.251000", "185121.254000", "185121.257000", "185121.260000", "185121.262000", "185121.265000", "185121.268000", "185121.271000", "185121.274000", "185121.277000", "185201.203000", "185201.206000", "185201.209000", "185201.212000", "185201.215000", "185201.218000", "185201.221000", "185201.224000", "185201.226000", "185201.229000", "185201.232000", "185201.235000", "185201.238000", "185201.241000", "185201.244000", "185201.246000", "185201.249000", "185201.252000", "185201.255000", "185201.258000", "185201.261000", "185201.264000", "185201.266000", "185201.269000", "185201.272000", "185201.275000", "185241.203000", "185241.206000", "185241.209000", "185241.212000", "185241.215000", "185241.237000", "185241.240000", "185241.243000", "185241.246000", "185241.249000", "185241.251000", "185241.254000", "185241.257000", "185241.260000", "185241.263000", "185241.266000", "185241.269000", "185241.271000", "185241.274000", "185241.277000", "185241.280000", "185241.283000", "185241.286000", "185241.288000", "185241.291000", "185241.294000", "185241.297000", "185249.033000", "185249.036000", "185249.039000", "185249.042000", "185249.044000", "185249.047000"],
