{
  "AcquisitionMatrixPE": 104,
  "AcquisitionNumber": 1,
  "AcquisitionTime": "19:30:5.607500",
  "BandwidthPerPixelPhaseEncode": 17.17,
  "BaseResolution": 104,
  "BodyPartExamined": "BRAIN",
  "CoilString": "HC1-7;NC1_2",
  "ConsistencyInfo": "N4_VE11C_LATEST_20160120",
  "ConversionSoftware": "dcm2niix",
  "ConversionSoftwareVersion": "v1.0.20190720  (JP2:OpenJPEG) GCC7.3.0",
  "DerivedVendorReportedEchoSpacing": 0.000560011,
  "DeviceSerialNumber": "167006",
  "DwellTime": 2.1e-06,
  "EchoTime": 0.037,
  "EchoTrainLength": 104,
  "EffectiveEchoSpacing": 0.000560011,
  "FlipAngle": 52,
  "ImageComments": "Unaliased_MB4_PE3_LB",
  "ImageOrientationPatientDICOM": [0.996352, -0.0847044, -0.0103784, 0.0754407, 0.931109, -0.356853],
  "ImageType": [
    "ORIGINAL",
    "PRIMARY",
    "M",
    "MB",
    "ND",
    "MOSAIC"
],
  "ImagingFrequency": 123.259,
  "InPlanePhaseEncodingDirectionDICOM": "COL",
  "InstitutionAddress": "Chemin_Queen-Mary_4565_Montreal_District_CA_H3W_1W5",
  "InstitutionName": "IUGM",
  "InstitutionalDepartmentName": "Department",
  "MRAcquisitionType": "2D",
  "MagneticFieldStrength": 3,
  "Manufacturer": "Siemens",
  "ManufacturersModelName": "Prisma_fit",
  "Modality": "MR",
  "MultibandAccelerationFactor": 4,
  "PartialFourier": 1,
  "PatientPosition": "HFS",
  "PercentPhaseFOV": 100,
  "PhaseEncodingDirection": "j",
  "PhaseEncodingSteps": 104,
  "PhaseResolution": 1,
  "PixelBandwidth": 2290,
  "ProcedureStepDescription": "video_friends",
  "ProtocolName": "func_task-s01e20a",
  "PulseSequenceDetails": "%CustomerSeq%_cmrr_mbep2d_bold",
  "ReceiveCoilActiveElements": "HC1-7;NC1,2",
  "ReceiveCoilName": "HeadNeck_64",
  "ReconMatrixPE": 104,
  "RepetitionTime": 1.49,
  "SAR": 0.0322229,
  "ScanOptions": "FS",
  "ScanningSequence": "EP",
  "SequenceName": "epfid2d1_104",
  "SequenceVariant": "SK_SS",
  "SeriesDescription": "func_task-s01e20a",
  "SeriesNumber": 19,
  "ShimSetting": [622, -7265, -8862, 381, 64, -440, 3, 45],
  "SliceThickness": 2,
  "SliceTiming": [0, 0.785, 0.0975, 0.8825, 0.195, 0.98, 0.295, 1.0775, 0.3925, 1.175, 0.49, 1.275, 0.5875, 1.3725, 0.685, 0, 0.785, 0.0975, 0.8825, 0.195, 0.98, 0.295, 1.0775, 0.3925, 1.175, 0.49, 1.275, 0.5875, 1.3725, 0.685, 0, 0.785, 0.0975, 0.8825, 0.195, 0.98, 0.295, 1.0775, 0.3925, 1.175, 0.49, 1.275, 0.5875, 1.3725, 0.685, 0, 0.785, 0.0975, 0.8825, 0.195, 0.98, 0.295, 1.0775, 0.3925, 1.175, 0.49, 1.275, 0.5875, 1.3725, 0.685],
  "SoftwareVersions": "syngo_MR_E11",
  "SpacingBetweenSlices": 2,
  "StationName": "MRC35049",
  "TaskName": "friends",
  "TotalReadoutTime": 0.0576811,
  "TxRefAmp": 232.646,
  "WipMemBlock": "c8e55d26-90a8-432b-92af-d9c519ddb2b7||Sequence: R016 ve11c/master r/e634e98; Dec 19 2017 11:00:25 by eja",
  "dcmmeta_affine": [
    [-1.992704153060913, 0.15088145434856415, -0.07978096604347229, 93.45552062988281],
    [0.1694088727235794, 1.8622186183929443, -0.7095369100570679, -79.00889587402344],
    [-0.02075681835412979, 0.7137063145637512, 1.8682056665420532, -73.73194885253906],
    [0.0, 0.0, 0.0, 1.0]
],
  "dcmmeta_reorient_transform": [
    [0.0, -1.0, 0.0, 103.0],
    [1.0, 0.0, 0.0, 0.0],
    [0.0, 0.0, 1.0, 0.0],
    [0.0, 0.0, 0.0, 1.0]
],
  "dcmmeta_shape": [104, 104, 60, 460],
  "dcmmeta_slice_dim": 2,
  "dcmmeta_version": 0.6,
  "global": {
    "const": {
      "AcquisitionMatrix": [104, 0, 0, 104],
      "AngioFlag": "N",
      "BitsAllocated": 16,
      "BitsStored": 16,
      "BodyPartExamined": "BRAIN",
      "Columns": 832,
      "EchoNumbers": 1,
      "EchoTime": 37.0,
      "EchoTrainLength": 104,
      "FlipAngle": 52.0,
      "HighBit": 15,
      "ImageOrientationPatient": [0.99635206957457, -0.0847044394905, -0.0103784095633, 0.07544072490873, 0.93110929235096, -0.3568531668949],
      "ImagePositionPatient": [-889.26146121509, -728.98234946647, 267.12439439157],
      "ImageType": [
        "ORIGINAL",
        "PRIMARY",
        "M",
        "MB",
        "ND",
        "MOSAIC"
],
      "ImagedNucleus": "1H",
      "ImagingFrequency": 123.259468,
      "InPlanePhaseEncodingDirection": "COL",
      "MRAcquisitionType": "2D",
      "MagneticFieldStrength": 3.0,
      "Manufacturer": "SIEMENS",
      "ManufacturerModelName": "Prisma_fit",
      "Modality": "MR",
      "NumberOfAverages": 1.0,
      "NumberOfPhaseEncodingSteps": 104,
      "PercentPhaseFieldOfView": 100.0,
      "PercentSampling": 100.0,
      "PerformedProcedureStepStartTime": "180642.828000",
      "PhotometricInterpretation": "MONOCHROME2",
      "PixelBandwidth": 2290.0,
      "PixelRepresentation": 0,
      "PixelSpacing": [2.0, 2.0],
      "ProtocolName": "func_task-s01e20a",
      "RepetitionTime": 1490.0,
      "Rows": 832,
      "SAR": 0.03222290552949,
      "SamplesPerPixel": 1,
      "ScanOptions": "FS",
      "ScanningSequence": "EP",
      "SequenceName": "epfid2d1_104",
      "SequenceVariant": [
        "SK",
        "SS"
],
      "SeriesDescription": "func_task-s01e20a",
      "SeriesNumber": 19,
      "SeriesTime": "193136.467000",
      "SliceLocation": -44.571341899591,
      "SliceThickness": 2.0,
      "SmallestImagePixelValue": 0,
      "SoftwareVersions": "syngo MR E11",
      "SpacingBetweenSlices": 2.0000000243065,
      "SpecificCharacterSet": "ISO_IR 100",
      "StudyID": "1",
      "StudyTime": "180642.764000",
      "TransmitCoilName": "Body",
      "VariableFlipAngleFlag": "N",
      "WindowCenterWidthExplanation": "Algo1",
      "dBdt": 0.0},
    "slices": {}
  },
  "time": {
    "samples": {
      "AcquisitionNumber": [1, 2, 3, 4, 5, 6, 7, 8, 9, 10, 11, 12, 13, 14, 15, 16, 17, 18, 19, 20, 21, 22, 23, 24, 25, 26, 27, 28, 29, 30, 31, 32, 33, 34, 35, 36, 37, 38, 39, 40, 41, 42, 43, 44, 45, 46, 47, 48, 49, 50, 51, 52, 53, 54, 55, 56, 57, 58, 59, 60, 61, 62, 63, 64, 65, 66, 67, 68, 69, 70, 71, 72, 73, 74, 75, 76, 77, 78, 79, 80, 81, 82, 83, 84, 85, 86, 87, 88, 89, 90, 91, 92, 93, 94, 95, 96, 97, 98, 99, 100, 101, 102, 103, 104, 105, 106, 107, 108, 109, 110, 111, 112, 113, 114, 115, 116, 117, 118, 119, 120, 121, 122, 123, 124, 125, 126, 127, 128, 129, 130, 131, 132, 133, 134, 135, 136, 137, 138, 139, 140, 141, 142, 143, 144, 145, 146, 147, 148, 149, 150, 151, 152, 153, 154, 155, 156, 157, 158, 159, 160, 161, 162, 163, 164, 165, 166, 167, 168, 169, 170, 171, 172, 173, 174, 175, 176, 177, 178, 179, 180, 181, 182, 183, 184, 185, 186, 187, 188, 189, 190, 191, 192, 193, 194, 195, 196, 197, 198, 199, 200, 201, 202, 203, 204, 205, 206, 207, 208, 209, 210, 211, 212, 213, 214, 215, 216, 217, 218, 219, 220, 221, 222, 223, 224, 225, 226, 227, 228, 229, 230, 231, 232, 233, 234, 235, 236, 237, 238, 239, 240, 241, 242, 243, 244, 245, 246, 247, 248, 249, 250, 251, 252, 253, 254, 255, 256, 257, 258, 259, 260, 261, 262, 263, 264, 265, 266, 267, 268, 269, 270, 271, 272, 273, 274, 275, 276, 277, 278, 279, 280, 281, 282, 283, 284, 285, 286, 287, 288, 289, 290, 291, 292, 293, 294, 295, 296, 297, 298, 299, 300, 301, 302, 303, 304, 305, 306, 307, 308, 309, 310, 311, 312, 313, 314, 315, 316, 317, 318, 319, 320, 321, 322, 323, 324, 325, 326, 327, 328, 329, 330, 331, 332, 333, 334, 335, 336, 337, 338, 339, 340, 341, 342, 343, 344, 345, 346, 347, 348, 349, 350, 351, 352, 353, 354, 355, 356, 357, 358, 359, 360, 361, 362, 363, 364, 365, 366, 367, 368, 369, 370, 371, 372, 373, 374, 375, 376, 377, 378, 379, 380, 381, 382, 383, 384, 385, 386, 387, 388, 389, 390, 391, 392, 393, 394, 395, 396, 397, 398, 399, 400, 401, 402, 403, 404, 405, 406, 407, 408, 409, 410, 411, 412, 413, 414, 415, 416, 417, 418, 419, 420, 421, 422, 423, 424, 425, 426, 427, 428, 429, 430, 431, 432, 433, 434, 435, 436, 437, 438, 439, 440, 441, 442, 443, 444, 445, 446, 447, 448, 449, 450, 451, 452, 453, 454, 455, 456, 457, 458, 459, 460],
      "AcquisitionTime": ["193005.607500", "193007.097500", "193008.587500", "193010.077500", "193011.567500", "193013.057500", "193014.547500", "193016.037500", "193017.527500", "193019.017500", "193020.507500", "193021.997500", "193023.487500", "193024.977500", "193026.467500", "193027.957500", "193029.447500", "193030.937500", "193032.427500", "193033.917500", "193035.407500", "193036.897500", "193038.387500", "193039.877500", "193041.367500", "193042.857500", "193044.347500", "193045.837500", "193047.327500", "193048.817500", "193050.307500", "193051.797500", "193053.287500", "193054.777500", "193056.267500", "193057.757500", "193059.247500", "193100.737500", "193102.227500", "193103.717500", "193105.207500", "193106.697500", "193108.187500", "193109.677500", "193111.167500", "193112.657500", "193114.147500", "193115.637500", "193117.127500", "193118.617500", "193120.107500", "193121.597500", "193123.087500", "193124.577500", "193126.067500", "193127.557500", "193129.047500", "193130.537500", "193132.027500", "193133.517500", "193135.007500", "193136.497500", "193137.987500", "193139.477500", "193140.967500", "193142.457500", "193143.947500", "193145.437500", "193146.927500", "193148.417500", "193149.907500", "193151.397500", "193152.887500", "193154.377500", "193155.867500", "193157.357500", "193158.847500", "193200.337500", "193201.827500", "193203.317500", "193204.807500", "193206.297500", "193207.787500", "193209.277500", "193210.767500", "193212.257500", "193213.747500", "193215.237500", "193216.727500", "193218.217500", "193219.707500", "193221.197500", "193222.687500", "193224.177500", "193225.667500", "193227.157500", "193228.647500", "193230.137500", "193231.627500", "193233.117500", "193234.607500", "193236.097500", "193237.587500", "193239.077500", "193240.567500", "193242.057500", "193243.547500", "193245.037500", "193246.527500", "193248.017500", "193249.507500", "193250.997500", "193252.487500", "193253.977500", "193255.467500", "193256.957500", "193258.447500", "193259.937500", "193301.427500", "193302.917500", "193304.407500", "193305.897500", "193307.387500", "193308.877500", "193310.367500", "193311.857500", "193313.347500", "193314.837500", "193316.327500", "193317.817500", "193319.307500", "193320.797500", "193322.287500", "193323.777500", "193325.267500", "193326.757500", "193328.247500", "193329.737500", "193331.227500", "193332.717500", "193334.207500", "193335.697500", "193337.187500", "193338.677500", "193340.167500", "193341.657500", "193343.147500", "193344.637500", "193346.127500", "193347.617500", "193349.107500", "193350.597500", "193352.087500", "193353.577500", "193355.067500", "193356.557500", "193358.047500", "193359.537500", "193401.027500", "193402.517500", "193404.007500", "193405.497500", "193406.987500", "193408.477500", "193409.967500", "193411.457500", "193412.947500", "193414.437500", "193415.927500", "193417.417500", "193418.907500", "193420.397500", "193421.887500", "193423.377500", "193424.867500", "193426.357500", "193427.847500", "193429.337500", "193430.827500", "193432.317500", "193433.807500", "193435.297500", "193436.787500", "193438.277500", "193439.767500", "193441.257500", "193442.747500", "193444.237500", "193445.727500", "193447.217500", "193448.707500", "193450.197500", "193451.687500", "193453.177500", "193454.667500", "193456.157500", "193457.647500", "193459.137500", "193500.627500", "193502.117500", "193503.607500", "193505.097500", "193506.587500", "193508.077500", "193509.567500", "193511.057500", "193512.547500", "193514.037500", "193515.527500", "193517.017500", "193518.507500", "193519.997500", "193521.487500", "193522.977500", "193524.467500", "193525.957500", "193527.447500", "193528.937500", "193530.427500", "193531.917500", "193533.407500", "193534.897500", "193536.387500", "193537.877500", "193539.367500", "193540.857500", "193542.347500", "193543.837500", "193545.327500", "193546.817500", "193548.307500", "193549.797500", "193551.287500", "193552.777500", "193554.267500", "193555.757500", "193557.247500", "193558.737500", "193600.227500", "193601.717500", "193603.207500", "193604.697500", "193606.187500", "193607.677500", "193609.167500", "193610.657500", "193612.147500", "193613.637500", "193615.127500", "193616.617500", "193618.107500", "193619.597500", "193621.087500", "193622.577500", "193624.067500", "193625.557500", "193627.047500", "193628.537500", "193630.027500", "193631.517500", "193633.007500", "193634.497500", "193635.987500", "193637.477500", "193638.967500", "193640.457500", "193641.947500", "193643.437500", "193644.927500", "193646.417500", "193647.907500", "193649.397500", "193650.887500", "193652.377500", "193653.867500", "193655.357500", "193656.847500", "193658.337500", "193659.827500", "193701.317500", "193702.807500", "193704.297500", "193705.787500", "193707.277500", "193708.767500", "193710.257500", "193711.747500", "193713.237500", "193714.727500", "193716.217500", "193717.707500", "193719.197500", "193720.687500", "193722.177500", "193723.667500", "193725.157500", "193726.647500", "193728.137500", "193729.627500", "193731.117500", "193732.607500", "193734.097500", "193735.587500", "193737.077500", "193738.567500", "193740.057500", "193741.547500", "193743.037500", "193744.527500", "193746.017500", "193747.507500", "193748.997500", "193750.487500", "193751.977500", "193753.467500", "193754.957500", "193756.447500", "193757.937500", "193759.427500", "193800.917500", "193802.407500", "193803.897500", "193805.387500", "193806.877500", "193808.367500", "193809.857500", "193811.347500", "193812.837500", "193814.327500", "193815.817500", "193817.307500", "193818.797500", "193820.287500", "193821.777500", "193823.267500", "193824.757500", "193826.247500", "193827.737500", "193829.227500", "193830.717500", "193832.207500", "193833.697500", "193835.187500", "193836.677500", "193838.167500", "193839.657500", "193841.147500", "193842.637500", "193844.127500", "193845.617500", "193847.107500", "193848.597500", "193850.087500", "193851.577500", "193853.067500", "193854.557500", "193856.047500", "193857.537500", "193859.027500", "193900.517500", "193902.007500", "193903.497500", "193904.987500", "193906.477500", "193907.967500", "193909.457500", "193910.947500", "193912.437500", "193913.927500", "193915.417500", "193916.907500", "193918.397500", "193919.887500", "193921.377500", "193922.867500", "193924.357500", "193925.847500", "193927.337500", "193928.827500", "193930.317500", "193931.807500", "193933.297500", "193934.787500", "193936.277500", "193937.767500", "193939.257500", "193940.747500", "193942.237500", "193943.727500", "193945.217500", "193946.707500", "193948.197500", "193949.687500", "193951.177500", "193952.667500", "193954.157500", "193955.647500", "193957.137500", "193958.627500", "194000.117500", "194001.607500", "194003.097500", "194004.587500", "194006.077500", "194007.567500", "194009.057500", "194010.547500", "194012.037500", "194013.527500", "194015.017500", "194016.507500", "194017.997500", "194019.487500", "194020.977500", "194022.467500", "194023.957500", "194025.447500", "194026.937500", "194028.427500", "194029.917500", "194031.407500", "194032.897500", "194034.387500", "194035.877500", "194037.367500", "194038.857500", "194040.347500", "194041.837500", "194043.327500", "194044.817500", "194046.307500", "194047.797500", "194049.287500", "194050.777500", "194052.267500", "194053.757500", "194055.247500", "194056.737500", "194058.227500", "194059.717500", "194101.207500", "194102.697500", "194104.187500", "194105.677500", "194107.167500", "194108.657500", "194110.147500", "194111.637500", "194113.127500", "194114.617500", "194116.107500", "194117.597500", "194119.087500", "194120.577500", "194122.067500", "194123.557500", "194125.047500", "194126.537500", "194128.027500", "194129.517500"],
      "ContentTime": ["193136.470000", "193136.473000", "193136.476000", "193136.479000", "193136.482000", "193136.485000", "193136.488000", "193136.491000", "193136.494000", "193136.496000", "193136.499000", "193136.502000", "193136.511000", "193136.514000", "193136.517000", "193136.520000", "193136.523000", "193136.526000", "193136.529000", "193136.532000", "193136.535000", "193136.538000", "193136.541000", "193136.544000", "193136.547000", "193136.560000", "193136.564000", "193136.567000", "193136.570000", "193136.573000", "193136.576000", "193136.579000", "193136.582000", "193136.585000", "193136.587000", "193156.434000", "193156.437000", "193156.440000", "193156.443000", "193156.446000", "193156.449000", "193156.451000", "193156.455000", "193156.457000", "193156.460000", "193156.463000", "193156.466000", "193156.469000", "193156.472000", "193156.475000", "193156.478000", "193156.481000", "193156.483000", "193156.486000", "193156.489000", "193216.434000", "193216.437000", "193216.440000", "193216.443000", "193216.446000", "193216.449000", "193216.451000", "193216.454000", "193216.457000", "193216.460000", "193216.463000", "193216.466000", "193216.469000", "193216.472000", "193216.475000", "193216.478000", "193216.480000", "193216.483000", "193216.486000", "193216.489000", "193236.434000", "193236.437000", "193236.440000", "193236.448000", "193236.451000", "193236.453000", "193236.456000", "193236.459000", "193236.462000", "193236.465000", "193236.468000", "193236.471000", "193236.474000", "193236.477000", "193236.479000", "193236.482000", "193236.485000", "193236.488000", "193236.491000", "193236.494000", "193316.434000", "193316.437000", "193316.440000", "193316.443000", "193316.446000", "193316.449000", "193316.452000", "193316.455000", "193316.458000", "193316.460000", "193316.463000", "193316.467000", "193316.469000", "193316.472000", "193316.475000", "193316.479000", "193316.482000", "193316.485000", "193316.488000", "193316.491000", "193316.494000", "193316.497000", "193316.500000", "193316.503000", "193316.506000", "193316.509000", "193316.512000", "193316.515000", "193316.517000", "193316.520000", "193316.523000", "193316.526000", "193356.434000", "193356.437000", "193356.440000", "193356.443000", "193356.446000", "193356.449000", "193356.452000", "193356.454000", "193356.457000", "193356.460000", "193356.463000", "193356.466000", "193356.469000", "193356.472000", "193356.475000", "193356.478000", "193356.481000", "193356.484000", "193356.487000", "193356.490000", "193356.492000", "193356.495000", "193356.498000", "193356.501000", "193356.504000", "193356.507000", "193356.510000", "193436.434000", "193436.437000", "193436.440000", "193436.443000", "193436.446000", "193436.449000", "193436.452000", "193436.454000", "193436.458000", "193436.466000", "193436.469000", "193436.472000", "193436.475000", "193436.478000", "193436.481000", "193436.484000", "193436.487000", "193436.490000", "193436.493000", "193436.495000", "193436.498000", "193436.501000", "193436.504000", "193436.507000", "193436.510000", "193436.513000", "193436.516000", "193516.434000", "193516.437000", "193516.440000", "193516.443000", "193516.446000", "193516.449000", "193516.452000", "193516.455000", "193516.458000", "193516.461000", "193516.463000", "193516.467000", "193516.469000", "193516.472000", "193516.475000", "193516.478000", "193516.481000", "193516.484000", "193516.487000", "193516.490000", "193516.493000", "193516.496000", "193516.499000", "193516.502000", "193516.505000", "193516.507000", "193516.510000", "193556.433000", "193556.436000", "193556.439000", "193556.442000", "193556.445000", "193556.448000", "193556.451000", "193556.454000", "193556.457000", "193556.459000", "193556.462000", "193556.465000", "193556.468000", "193556.471000", "193556.474000", "193556.477000", "193556.480000", "193556.483000", "193556.486000", "193556.500000", "193556.503000", "193556.506000", "193556.509000", "193556.511000", "193556.514000", "193556.517000", "193556.520000", "193636.434000", "193636.437000", "193636.440000", "193636.443000", "193636.446000", "193636.449000", "193636.452000", "193636.454000", "193636.458000", "193636.460000", "193636.463000", "193636.466000", "193636.469000", "193636.472000", "193636.475000", "193636.478000", "193636.481000", "193636.484000", "193636.487000", "193636.490000", "193636.493000", "193636.495000", "193636.498000", "193636.501000", "193636.504000", "193636.507000", "193636.510000", "193716.434000", "193716.437000", "193716.440000", "193716.451000", "193716.454000", "193716.457000", "193716.460000", "193716.463000", "193716.466000", "193716.469000", "193716.472000", "193716.475000", "193716.478000", "193716.481000", "193716.483000", "193716.486000", "193716.489000", "193716.492000", "193716.495000", "193716.498000", "193716.501000", "193716.504000", "193716.507000", "193716.510000", "193716.513000", "193716.516000", "193716.518000", "193756.434000", "193756.437000", "193756.440000", "193756.443000", "193756.446000", "193756.449000", "193756.452000", "193756.455000", "193756.458000", "193756.461000", "193756.463000", "193756.468000", "193756.471000", "193756.474000", "193756.477000", "193756.480000", "193756.483000", "193756.486000", "193756.489000", "193756.492000", "193756.495000", "193756.497000", "193756.500000", "193756.503000", "193756.506000", "193756.509000", "193836.434000", "193836.437000", "193836.440000", "193836.443000", "193836.446000", "193836.449000", "193836.452000", "193836.455000", "193836.458000", "193836.461000", "193836.464000", "193836.467000", "193836.469000", "193836.472000", "193836.475000", "193836.478000", "193836.481000", "193836.484000", "193836.487000", "193836.490000", "193836.493000", "193836.496000", "193836.498000", "193836.501000", "193836.504000", "193836.507000", "193836.510000", "193916.434000", "193916.437000", "193916.440000", "193916.443000", "193916.446000", "193916.449000", "193916.452000", "193916.455000", "193916.458000", "193916.461000", "193916.464000", "193916.467000", "193916.469000", "193916.472000", "193916.475000", "193916.478000", "193916.481000", "193916.484000", "193916.487000", "193916.490000", "193916.493000", "193916.496000", "193916.499000", "193916.502000", "193916.505000", "193916.508000", "193916.511000", "193956.434000", "193956.441000", "193956.444000", "193956.447000", "193956.450000", "193956.453000", "193956.456000", "193956.458000", "193956.461000", "193956.464000", "193956.467000", "193956.470000", "193956.473000", "193956.476000", "193956.479000", "193956.482000", "193956.485000", "193956.488000", "193956.491000", "193956.494000", "193956.497000", "193956.499000", "193956.502000", "193956.505000", "193956.508000", "193956.511000", "193956.514000", "194036.433000", "194036.436000", "194036.439000", "194036.442000", "194036.445000", "194036.448000", "194036.451000", "194036.454000", "194036.456000", "194036.459000", "194036.462000", "194036.465000", "194036.468000", "194036.471000", "194036.474000", "194036.477000", "194036.479000", "194036.482000", "194036.485000", "194036.506000", "194036.509000", "194036.511000", "194036.514000", "194036.517000", "194036.520000", "194036.523000", "194036.526000", "194116.434000", "194116.437000", "194116.440000", "194116.443000", "194116.445000", "194116.448000", "194116.451000", "194116.454000", "194116.457000", "194116.460000", "194116.463000", "194116.466000", "194116.469000", "194116.472000", "194116.475000", "194116.478000", "194116.480000", "194116.483000", "194116.486000", "194116.489000", "194116.492000", "194116.495000", "194116.498000", "194116.501000", "194116.504000", "194116.507000", "194116.510000", "194131.227000", "194131.230000", "194131.233000", "194131.245000", "194131.248000", "194131.250000", "194131.253000", "194131.257000", "194131.259000", "194131.262000"],
