{
  "AcquisitionMatrixPE": 104,
  "AcquisitionNumber": 1,
  "AcquisitionTime": "11:22:58.907500",
  "BandwidthPerPixelPhaseEncode": 17.17,
  "BaseResolution": 104,
  "BodyPartExamined": "BRAIN",
  "CoilString": "HC1-7;NC1_2",
  "ConsistencyInfo": "N4_VE11C_LATEST_20160120",
  "ConversionSoftware": "dcm2niix",
  "ConversionSoftwareVersion": "v1.0.20190720  (JP2:OpenJPEG) GCC7.3.0",
  "DerivedVendorReportedEchoSpacing": 0.000560011,
  "DeviceSerialNumber": "167006",
  "DwellTime": 2.1e-06,
  "EchoTime": 0.037,
  "EchoTrainLength": 104,
  "EffectiveEchoSpacing": 0.000560011,
  "FlipAngle": 52,
  "ImageComments": "Unaliased_MB4_PE3_LB",
  "ImageOrientationPatientDICOM": [0.998323, 0.0516279, 0.0261854, -0.0420166, 0.95739, -0.285726],
  "ImageType": [
    "ORIGINAL",
    "PRIMARY",
    "M",
    "MB",
    "ND",
    "MOSAIC"
],
  "ImagingFrequency": 123.259,
  "InPlanePhaseEncodingDirectionDICOM": "COL",
  "InstitutionAddress": "Chemin_Queen-Mary_4565_Montreal_District_CA_H3W_1W5",
  "InstitutionName": "IUGM",
  "InstitutionalDepartmentName": "Department",
  "MRAcquisitionType": "2D",
  "MagneticFieldStrength": 3,
  "Manufacturer": "Siemens",
  "ManufacturersModelName": "Prisma_fit",
  "Modality": "MR",
  "MultibandAccelerationFactor": 4,
  "PartialFourier": 1,
  "PatientPosition": "HFS",
  "PercentPhaseFOV": 100,
  "PhaseEncodingDirection": "j",
  "PhaseEncodingSteps": 104,
  "PhaseResolution": 1,
  "PixelBandwidth": 2290,
  "ProcedureStepDescription": "video_friends",
  "ProtocolName": "func_task-friends-s01e08a",
  "PulseSequenceDetails": "%CustomerSeq%_cmrr_mbep2d_bold",
  "ReceiveCoilActiveElements": "HC1-7;NC1,2",
  "ReceiveCoilName": "HeadNeck_64",
  "ReconMatrixPE": 104,
  "RepetitionTime": 1.49,
  "SAR": 0.041116,
  "ScanOptions": "FS",
  "ScanningSequence": "EP",
  "SequenceName": "epfid2d1_104",
  "SequenceVariant": "SK_SS",
  "SeriesDescription": "func_task-friends-s01e08a",
  "SeriesNumber": 13,
  "ShimSetting": [637, -7206, -8814, 764, 91, -13, 19, -2],
  "SliceThickness": 2,
  "SliceTiming": [0, 0.7825, 0.0975, 0.88, 0.195, 0.98, 0.2925, 1.0775, 0.39, 1.175, 0.49, 1.2725, 0.5875, 1.37, 0.685, 0, 0.7825, 0.0975, 0.88, 0.195, 0.98, 0.2925, 1.0775, 0.39, 1.175, 0.49, 1.2725, 0.5875, 1.37, 0.685, 0, 0.7825, 0.0975, 0.88, 0.195, 0.98, 0.2925, 1.0775, 0.39, 1.175, 0.49, 1.2725, 0.5875, 1.37, 0.685, 0, 0.7825, 0.0975, 0.88, 0.195, 0.98, 0.2925, 1.0775, 0.39, 1.175, 0.49, 1.2725, 0.5875, 1.37, 0.685],
  "SoftwareVersions": "syngo_MR_E11",
  "SpacingBetweenSlices": 2,
  "StationName": "MRC35049",
  "TaskName": "friends",
  "TotalReadoutTime": 0.0576811,
  "TxRefAmp": 253.374,
  "WipMemBlock": "9562a609-4211-46ae-ac71-20b52f12859f||Sequence: R016 ve11c/master r/e634e98; Dec 19 2017 11:00:25 by eja",
  "dcmmeta_affine": [
    [-1.9966460466384888, -0.08403324335813522, 0.07964219897985458, 104.89108276367188],
    [-0.10325580835342407, 1.9147794246673584, -0.5682939291000366, -68.1041030883789],
    [0.0523708276450634, 0.5714526772499084, 1.9159069061279297, -55.63705825805664],
    [0.0, 0.0, 0.0, 1.0]
],
  "dcmmeta_reorient_transform": [
    [0.0, -1.0, 0.0, 103.0],
    [1.0, 0.0, 0.0, 0.0],
    [0.0, 0.0, 1.0, 0.0],
    [0.0, 0.0, 0.0, 1.0]
],
  "dcmmeta_shape": [104, 104, 60, 476],
  "dcmmeta_slice_dim": 2,
  "dcmmeta_version": 0.6,
  "global": {
    "const": {
      "AcquisitionMatrix": [104, 0, 0, 104],
      "AngioFlag": "N",
      "BitsAllocated": 16,
      "BitsStored": 16,
      "BodyPartExamined": "BRAIN",
      "Columns": 832,
      "EchoNumbers": 1,
      "EchoTime": 37.0,
      "EchoTrainLength": 104,
      "FlipAngle": 52.0,
      "HighBit": 15,
      "ImageOrientationPatient": [0.99832303576437, 0.05162790277173, 0.02618541421503, -0.0420166208393, 0.95738971300167, -0.2857263393736],
      "ImagePositionPatient": [-792.42672571176, -863.68300567345, 192.16836207932],
      "ImageType": [
        "ORIGINAL",
        "PRIMARY",
        "M",
        "MB",
        "ND",
        "MOSAIC"
],
      "ImagedNucleus": "1H",
      "ImagingFrequency": 123.259465,
      "InPlanePhaseEncodingDirection": "COL",
      "MRAcquisitionType": "2D",
      "MagneticFieldStrength": 3.0,
      "Manufacturer": "SIEMENS",
      "ManufacturerModelName": "Prisma_fit",
      "Modality": "MR",
      "NumberOfAverages": 1.0,
      "NumberOfPhaseEncodingSteps": 104,
      "PercentPhaseFieldOfView": 100.0,
      "PercentSampling": 100.0,
      "PerformedProcedureStepStartTime": "103940.202000",
      "PhotometricInterpretation": "MONOCHROME2",
      "PixelBandwidth": 2290.0,
      "PixelRepresentation": 0,
      "PixelSpacing": [2.0, 2.0],
      "ProtocolName": "func_task-friends-s01e08a",
      "RepetitionTime": 1490.0,
      "Rows": 832,
      "SAR": 0.04111600756626,
      "SamplesPerPixel": 1,
      "ScanOptions": "FS",
      "ScanningSequence": "EP",
      "SequenceName": "epfid2d1_104",
      "SequenceVariant": [
        "SK",
        "SS"
],
      "SeriesDescription": "func_task-friends-s01e08a",
      "SeriesNumber": 13,
      "SeriesTime": "112432.321000",
      "SliceLocation": -29.769259140141,
      "SliceThickness": 2.0,
      "SmallestImagePixelValue": 0,
      "SoftwareVersions": "syngo MR E11",
      "SpacingBetweenSlices": 2.0000000661347,
      "SpecificCharacterSet": "ISO_IR 100",
      "StudyID": "1",
      "StudyTime": "103940.150000",
      "TransmitCoilName": "Body",
      "VariableFlipAngleFlag": "N",
      "WindowCenterWidthExplanation": "Algo1",
      "dBdt": 0.0},
    "slices": {}
  },
  "time": {
    "samples": {
      "AcquisitionNumber": [1, 2, 3, 4, 5, 6, 7, 8, 9, 10, 11, 12, 13, 14, 15, 16, 17, 18, 19, 20, 21, 22, 23, 24, 25, 26, 27, 28, 29, 30, 31, 32, 33, 34, 35, 36, 37, 38, 39, 40, 41, 42, 43, 44, 45, 46, 47, 48, 49, 50, 51, 52, 53, 54, 55, 56, 57, 58, 59, 60, 61, 62, 63, 64, 65, 66, 67, 68, 69, 70, 71, 72, 73, 74, 75, 76, 77, 78, 79, 80, 81, 82, 83, 84, 85, 86, 87, 88, 89, 90, 91, 92, 93, 94, 95, 96, 97, 98, 99, 100, 101, 102, 103, 104, 105, 106, 107, 108, 109, 110, 111, 112, 113, 114, 115, 116, 117, 118, 119, 120, 121, 122, 123, 124, 125, 126, 127, 128, 129, 130, 131, 132, 133, 134, 135, 136, 137, 138, 139, 140, 141, 142, 143, 144, 145, 146, 147, 148, 149, 150, 151, 152, 153, 154, 155, 156, 157, 158, 159, 160, 161, 162, 163, 164, 165, 166, 167, 168, 169, 170, 171, 172, 173, 174, 175, 176, 177, 178, 179, 180, 181, 182, 183, 184, 185, 186, 187, 188, 189, 190, 191, 192, 193, 194, 195, 196, 197, 198, 199, 200, 201, 202, 203, 204, 205, 206, 207, 208, 209, 210, 211, 212, 213, 214, 215, 216, 217, 218, 219, 220, 221, 222, 223, 224, 225, 226, 227, 228, 229, 230, 231, 232, 233, 234, 235, 236, 237, 238, 239, 240, 241, 242, 243, 244, 245, 246, 247, 248, 249, 250, 251, 252, 253, 254, 255, 256, 257, 258, 259, 260, 261, 262, 263, 264, 265, 266, 267, 268, 269, 270, 271, 272, 273, 274, 275, 276, 277, 278, 279, 280, 281, 282, 283, 284, 285, 286, 287, 288, 289, 290, 291, 292, 293, 294, 295, 296, 297, 298, 299, 300, 301, 302, 303, 304, 305, 306, 307, 308, 309, 310, 311, 312, 313, 314, 315, 316, 317, 318, 319, 320, 321, 322, 323, 324, 325, 326, 327, 328, 329, 330, 331, 332, 333, 334, 335, 336, 337, 338, 339, 340, 341, 342, 343, 344, 345, 346, 347, 348, 349, 350, 351, 352, 353, 354, 355, 356, 357, 358, 359, 360, 361, 362, 363, 364, 365, 366, 367, 368, 369, 370, 371, 372, 373, 374, 375, 376, 377, 378, 379, 380, 381, 382, 383, 384, 385, 386, 387, 388, 389, 390, 391, 392, 393, 394, 395, 396, 397, 398, 399, 400, 401, 402, 403, 404, 405, 406, 407, 408, 409, 410, 411, 412, 413, 414, 415, 416, 417, 418, 419, 420, 421, 422, 423, 424, 425, 426, 427, 428, 429, 430, 431, 432, 433, 434, 435, 436, 437, 438, 439, 440, 441, 442, 443, 444, 445, 446, 447, 448, 449, 450, 451, 452, 453, 454, 455, 456, 457, 458, 459, 460, 461, 462, 463, 464, 465, 466, 467, 468, 469, 470, 471, 472, 473, 474, 475, 476],
      "AcquisitionTime": ["112258.907500", "112300.397500", "112301.887500", "112303.377500", "112304.867500", "112306.357500", "112307.847500", "112309.337500", "112310.827500", "112312.317500", "112313.807500", "112315.297500", "112316.787500", "112318.277500", "112319.767500", "112321.257500", "112322.747500", "112324.237500", "112325.727500", "112327.217500", "112328.707500", "112330.197500", "112331.687500", "112333.177500", "112334.667500", "112336.157500", "112337.647500", "112339.137500", "112340.627500", "112342.117500", "112343.607500", "112345.097500", "112346.587500", "112348.077500", "112349.567500", "112351.057500", "112352.547500", "112354.037500", "112355.527500", "112357.017500", "112358.507500", "112359.997500", "112401.487500", "112402.977500", "112404.467500", "112405.957500", "112407.447500", "112408.937500", "112410.427500", "112411.917500", "112413.407500", "112414.897500", "112416.387500", "112417.877500", "112419.367500", "112420.857500", "112422.347500", "112423.837500", "112425.327500", "112426.817500", "112428.307500", "112429.797500", "112431.287500", "112432.777500", "112434.267500", "112435.757500", "112437.247500", "112438.737500", "112440.227500", "112441.717500", "112443.207500", "112444.697500", "112446.187500", "112447.677500", "112449.167500", "112450.657500", "112452.147500", "112453.637500", "112455.127500", "112456.617500", "112458.107500", "112459.597500", "112501.087500", "112502.577500", "112504.067500", "112505.557500", "112507.047500", "112508.537500", "112510.027500", "112511.517500", "112513.007500", "112514.497500", "112515.987500", "112517.477500", "112518.967500", "112520.457500", "112521.947500", "112523.437500", "112524.927500", "112526.417500", "112527.907500", "112529.397500", "112530.887500", "112532.377500", "112533.867500", "112535.357500", "112536.847500", "112538.337500", "112539.827500", "112541.317500", "112542.807500", "112544.297500", "112545.787500", "112547.277500", "112548.767500", "112550.257500", "112551.747500", "112553.237500", "112554.727500", "112556.217500", "112557.707500", "112559.197500", "112600.687500", "112602.177500", "112603.667500", "112605.157500", "112606.647500", "112608.137500", "112609.627500", "112611.117500", "112612.607500", "112614.097500", "112615.587500", "112617.077500", "112618.567500", "112620.057500", "112621.547500", "112623.037500", "112624.527500", "112626.017500", "112627.507500", "112628.997500", "112630.487500", "112631.977500", "112633.467500", "112634.957500", "112636.447500", "112637.937500", "112639.427500", "112640.917500", "112642.407500", "112643.897500", "112645.387500", "112646.877500", "112648.367500", "112649.857500", "112651.347500", "112652.837500", "112654.327500", "112655.817500", "112657.307500", "112658.797500", "112700.287500", "112701.777500", "112703.267500", "112704.757500", "112706.247500", "112707.737500", "112709.227500", "112710.717500", "112712.207500", "112713.697500", "112715.187500", "112716.677500", "112718.167500", "112719.657500", "112721.147500", "112722.637500", "112724.127500", "112725.617500", "112727.107500", "112728.597500", "112730.087500", "112731.577500", "112733.067500", "112734.557500", "112736.047500", "112737.537500", "112739.027500", "112740.517500", "112742.007500", "112743.497500", "112744.987500", "112746.477500", "112747.967500", "112749.457500", "112750.947500", "112752.437500", "112753.927500", "112755.417500", "112756.907500", "112758.397500", "112759.887500", "112801.377500", "112802.867500", "112804.357500", "112805.847500", "112807.337500", "112808.827500", "112810.317500", "112811.807500", "112813.297500", "112814.787500", "112816.277500", "112817.767500", "112819.257500", "112820.747500", "112822.237500", "112823.727500", "112825.217500", "112826.707500", "112828.197500", "112829.687500", "112831.177500", "112832.667500", "112834.157500", "112835.647500", "112837.137500", "112838.627500", "112840.117500", "112841.607500", "112843.097500", "112844.587500", "112846.077500", "112847.567500", "112849.057500", "112850.547500", "112852.037500", "112853.527500", "112855.017500", "112856.507500", "112857.997500", "112859.487500", "112900.977500", "112902.467500", "112903.957500", "112905.447500", "112906.937500", "112908.427500", "112909.917500", "112911.407500", "112912.897500", "112914.387500", "112915.877500", "112917.367500", "112918.857500", "112920.347500", "112921.837500", "112923.327500", "112924.817500", "112926.307500", "112927.797500", "112929.287500", "112930.777500", "112932.267500", "112933.757500", "112935.247500", "112936.737500", "112938.227500", "112939.717500", "112941.207500", "112942.697500", "112944.187500", "112945.677500", "112947.167500", "112948.657500", "112950.147500", "112951.637500", "112953.127500", "112954.617500", "112956.107500", "112957.597500", "112959.087500", "113000.577500", "113002.067500", "113003.557500", "113005.047500", "113006.537500", "113008.027500", "113009.517500", "113011.007500", "113012.497500", "113013.987500", "113015.477500", "113016.967500", "113018.457500", "113019.947500", "113021.437500", "113022.927500", "113024.417500", "113025.907500", "113027.397500", "113028.887500", "113030.377500", "113031.867500", "113033.357500", "113034.847500", "113036.337500", "113037.827500", "113039.317500", "113040.807500", "113042.297500", "113043.787500", "113045.277500", "113046.767500", "113048.257500", "113049.747500", "113051.237500", "113052.727500", "113054.217500", "113055.707500", "113057.197500", "113058.687500", "113100.177500", "113101.667500", "113103.157500", "113104.647500", "113106.137500", "113107.627500", "113109.117500", "113110.607500", "113112.097500", "113113.587500", "113115.077500", "113116.567500", "113118.057500", "113119.547500", "113121.037500", "113122.527500", "113124.017500", "113125.507500", "113126.997500", "113128.487500", "113129.977500", "113131.467500", "113132.957500", "113134.447500", "113135.937500", "113137.427500", "113138.917500", "113140.407500", "113141.897500", "113143.387500", "113144.877500", "113146.367500", "113147.857500", "113149.347500", "113150.837500", "113152.327500", "113153.817500", "113155.307500", "113156.797500", "113158.287500", "113159.777500", "113201.267500", "113202.757500", "113204.247500", "113205.737500", "113207.227500", "113208.717500", "113210.207500", "113211.697500", "113213.187500", "113214.677500", "113216.167500", "113217.657500", "113219.147500", "113220.637500", "113222.127500", "113223.617500", "113225.107500", "113226.597500", "113228.087500", "113229.577500", "113231.067500", "113232.557500", "113234.047500", "113235.537500", "113237.027500", "113238.517500", "113240.007500", "113241.497500", "113242.987500", "113244.477500", "113245.967500", "113247.457500", "113248.947500", "113250.437500", "113251.927500", "113253.417500", "113254.907500", "113256.397500", "113257.887500", "113259.377500", "113300.867500", "113302.357500", "113303.847500", "113305.337500", "113306.827500", "113308.317500", "113309.807500", "113311.297500", "113312.787500", "113314.277500", "113315.767500", "113317.257500", "113318.747500", "113320.237500", "113321.727500", "113323.217500", "113324.707500", "113326.197500", "113327.687500", "113329.177500", "113330.667500", "113332.157500", "113333.647500", "113335.137500", "113336.627500", "113338.117500", "113339.607500", "113341.097500", "113342.587500", "113344.077500", "113345.567500", "113347.057500", "113348.547500", "113350.037500", "113351.527500", "113353.017500", "113354.507500", "113355.997500", "113357.487500", "113358.977500", "113400.467500", "113401.957500", "113403.447500", "113404.937500", "113406.427500", "113407.917500", "113409.407500", "113410.897500", "113412.387500", "113413.877500", "113415.367500", "113416.857500", "113418.347500", "113419.837500", "113421.327500", "113422.817500", "113424.307500", "113425.797500", "113427.287500", "113428.777500", "113430.267500", "113431.757500", "113433.247500", "113434.737500", "113436.227500", "113437.717500", "113439.207500", "113440.697500", "113442.187500", "113443.677500", "113445.167500", "113446.657500"],
      "ContentTime": ["112432.324000", "112432.327000", "112432.330000", "112432.333000", "112432.336000", "112432.339000", "112432.342000", "112432.345000", "112432.348000", "112432.351000", "112432.354000", "112432.357000", "112432.378000", "112432.381000", "112432.384000", "112432.388000", "112432.392000", "112432.396000", "112432.399000", "112432.402000", "112432.405000", "112432.408000", "112432.411000", "112432.414000", "112432.417000", "112432.420000", "112432.423000", "112432.425000", "112432.428000", "112432.431000", "112432.441000", "112432.444000", "112432.446000", "112432.449000", "112432.452000", "112432.455000", "112432.458000", "112432.461000", "112432.464000", "112452.292000", "112452.295000", "112452.298000", "112452.301000", "112452.304000", "112452.307000", "112452.309000", "112452.312000", "112452.315000", "112452.318000", "112452.321000", "112452.324000", "112452.327000", "112452.332000", "112452.335000", "112452.338000", "112452.341000", "112452.344000", "112452.347000", "112452.350000", "112452.352000", "112512.292000", "112512.295000", "112512.298000", "112512.300000", "112512.304000", "112512.306000", "112512.309000", "112512.312000", "112512.315000", "112512.318000", "112512.321000", "112512.324000", "112512.327000", "112512.330000", "112512.333000", "112512.335000", "112512.339000", "112512.341000", "112512.344000", "112512.347000", "112532.292000", "112532.295000", "112532.298000", "112532.301000", "112532.304000", "112532.307000", "112532.309000", "112532.312000", "112532.315000", "112532.318000", "112532.321000", "112532.324000", "112532.327000", "112532.330000", "112532.333000", "112532.336000", "112532.339000", "112532.342000", "112532.344000", "112532.347000", "112612.292000", "112612.295000", "112612.298000", "112612.301000", "112612.304000", "112612.307000", "112612.310000", "112612.313000", "112612.315000", "112612.318000", "112612.321000", "112612.324000", "112612.327000", "112612.330000", "112612.333000", "112612.336000", "112612.339000", "112612.341000", "112612.345000", "112612.348000", "112612.350000", "112612.353000", "112612.356000", "112612.359000", "112612.362000", "112612.365000", "112612.368000", "112612.371000", "112612.374000", "112652.292000", "112652.295000", "112652.298000", "112652.301000", "112652.304000", "112652.307000", "112652.310000", "112652.313000", "112652.315000", "112652.318000", "112652.321000", "112652.324000", "112652.327000", "112652.330000", "112652.333000", "112652.336000", "112652.339000", "112652.342000", "112652.345000", "112652.353000", "112652.356000", "112652.359000", "112652.362000", "112652.365000", "112652.368000", "112652.371000", "112652.374000", "112732.292000", "112732.298000", "112732.301000", "112732.304000", "112732.306000", "112732.309000", "112732.312000", "112732.315000", "112732.318000", "112732.321000", "112732.324000", "112732.327000", "112732.330000", "112732.333000", "112732.336000", "112732.338000", "112732.341000", "112732.344000", "112732.347000", "112732.350000", "112732.353000", "112732.356000", "112732.359000", "112732.362000", "112732.365000", "112732.367000", "112732.371000", "112812.293000", "112812.300000", "112812.303000", "112812.306000", "112812.309000", "112812.312000", "112812.315000", "112812.318000", "112812.321000", "112812.324000", "112812.326000", "112812.329000", "112812.332000", "112812.335000", "112812.338000", "112812.341000", "112812.344000", "112812.347000", "112812.350000", "112812.353000", "112812.356000", "112812.359000", "112812.362000", "112812.364000", "112812.367000", "112812.370000", "112812.373000", "112852.292000", "112852.295000", "112852.298000", "112852.315000", "112852.317000", "112852.320000", "112852.323000", "112852.326000", "112852.329000", "112852.333000", "112852.336000", "112852.339000", "112852.342000", "112852.344000", "112852.347000", "112852.350000", "112852.353000", "112852.356000", "112852.359000", "112852.362000", "112852.365000", "112852.368000", "112852.371000", "112852.374000", "112852.377000", "112852.380000", "112932.292000", "112932.295000", "112932.298000", "112932.301000", "112932.304000", "112932.307000", "112932.310000", "112932.313000", "112932.316000", "112932.319000", "112932.322000", "112932.325000", "112932.327000", "112932.330000", "112932.333000", "112932.336000", "112932.339000", "112932.342000", "112932.345000", "112932.348000", "112932.351000", "112932.354000", "112932.357000", "112932.360000", "112932.362000", "112932.365000", "112932.368000", "113012.292000", "113012.295000", "113012.298000", "113012.301000", "113012.304000", "113012.307000", "113012.310000", "113012.313000", "113012.316000", "113012.319000", "113012.322000", "113012.325000", "113012.327000", "113012.330000", "113012.333000", "113012.336000", "113012.339000", "113012.342000", "113012.345000", "113012.348000", "113012.351000", "113012.354000", "113012.357000", "113012.360000", "113012.363000", "113012.366000", "113012.369000", "113052.292000", "113052.295000", "113052.298000", "113052.301000", "113052.304000", "113052.307000", "113052.310000", "113052.313000", "113052.316000", "113052.319000", "113052.321000", "113052.324000", "113052.327000", "113052.330000", "113052.333000", "113052.336000", "113052.339000", "113052.342000", "113052.345000", "113052.348000", "113052.351000", "113052.354000", "113052.357000", "113052.359000", "113052.362000", "113052.365000", "113052.368000", "113132.292000", "113132.295000", "113132.298000", "113132.301000", "113132.304000", "113132.307000", "113132.310000", "113132.313000", "113132.316000", "113132.319000", "113132.322000", "113132.325000", "113132.328000", "113132.331000", "113132.334000", "113132.337000", "113132.340000", "113132.342000", "113132.345000", "113132.348000", "113132.351000", "113132.354000", "113132.357000", "113132.360000", "113132.363000", "113132.366000", "113132.369000", "113212.292000", "113212.295000", "113212.298000", "113212.301000", "113212.304000", "113212.307000", "113212.310000", "113212.312000", "113212.315000", "113212.318000", "113212.321000", "113212.324000", "113212.327000", "113212.330000", "113212.333000", "113212.336000", "113212.339000", "113212.342000", "113212.346000", "113212.349000", "113212.352000", "113212.354000", "113212.358000", "113212.361000", "113212.363000", "113212.366000", "113212.369000", "113252.293000", "113252.303000", "113252.306000", "113252.309000", "113252.312000", "113252.315000", "113252.318000", "113252.321000", "113252.324000", "113252.327000", "113252.330000", "113252.340000", "113252.343000", "113252.345000", "113252.349000", "113252.352000", "113252.355000", "113252.358000", "113252.361000", "113252.363000", "113252.366000", "113252.369000", "113252.372000", "113252.375000", "113252.378000", "113252.381000", "113332.292000", "113332.295000", "113332.298000", "113332.301000", "113332.304000", "113332.320000", "113332.323000", "113332.326000", "113332.329000", "113332.332000", "113332.335000", "113332.338000", "113332.341000", "113332.344000", "113332.347000", "113332.350000", "113332.353000", "113332.356000", "113332.359000", "113332.362000", "113332.365000", "113332.367000", "113332.370000", "113332.373000", "113332.376000", "113332.379000", "113332.382000", "113412.292000", "113412.295000", "113412.298000", "113412.301000", "113412.304000", "113412.307000", "113412.310000", "113412.313000", "113412.316000", "113412.319000", "113412.322000", "113412.325000", "113412.327000", "113412.330000", "113412.333000", "113412.336000", "113412.339000", "113412.342000", "113412.345000", "113412.348000", "113412.351000", "113412.353000", "113412.356000", "113412.359000", "113412.362000", "113412.365000", "113412.368000", "113448.622000", "113448.625000", "113448.628000", "113448.631000", "113448.634000", "113448.637000", "113448.641000", "113448.644000", "113448.647000", "113448.650000", "113448.653000", "113448.656000", "113448.659000", "113448.663000", "113448.666000", "113448.669000", "113448.672000", "113448.675000", "113448.678000", "113448.681000", "113448.684000", "113448.687000", "113448.690000", "113448.693000", "113448.696000"],
