{
  "AcquisitionMatrixPE": 104,
  "AcquisitionNumber": 1,
  "AcquisitionTime": "16:33:21.390000",
  "BandwidthPerPixelPhaseEncode": 17.17,
  "BaseResolution": 104,
  "BodyPartExamined": "BRAIN",
  "CoilCombinationMethod": "Sum of Squares",
  "ConsistencyInfo": "N4_VE11C_LATEST_20160120",
  "ConversionSoftware": "dcm2niix",
  "ConversionSoftwareVersion": "v1.0.20230411",
  "DerivedVendorReportedEchoSpacing": 0.000560011,
  "DeviceSerialNumber": "167006",
  "DwellTime": 2.1e-06,
  "EchoTime": 0.037,
  "EchoTrainLength": 104,
  "EffectiveEchoSpacing": 0.000560011,
  "FlipAngle": 52,
  "HeudiconvVersion": "0.5.3.post861+ge7d3c7f",
  "ImageComments": "Unaliased MB4/PE3/LB",
  "ImageOrientationPatientDICOM": [0.999197, 0.0351769, -0.0191678, -0.0397826, 0.815082, -0.577978],
  "ImageOrientationText": "Tra>Cor(-35.3)>Sag(0.3)",
  "ImageType": [
    "ORIGINAL",
    "PRIMARY",
    "M",
    "MB",
    "ND",
    "MOSAIC"
],
  "ImagingFrequency": 123.249583,
  "InPlanePhaseEncodingDirectionDICOM": "COL",
  "InstitutionAddress": "Chemin Queen-Mary 4565,Montreal,District,CA,H3W 1W5",
  "InstitutionName": "IUGM",
  "InstitutionalDepartmentName": "Department",
  "MRAcquisitionType": "2D",
  "MagneticFieldStrength": 3,
  "Manufacturer": "Siemens",
  "ManufacturersModelName": "Prisma_fit",
  "MatrixCoilMode": "SENSE",
  "Modality": "MR",
  "MultibandAccelerationFactor": 4,
  "NonlinearGradientCorrection": false,
  "PartialFourier": 1,
  "PatientPosition": "HFS",
  "PercentPhaseFOV": 100,
  "PercentSampling": 100,
  "PhaseEncodingDirection": "j",
  "PhaseEncodingSteps": 104,
  "PhaseResolution": 1,
  "PixelBandwidth": 2290,
  "ProcedureStepDescription": "video^friends",
  "ProtocolName": "func_task-friends-s07e11b",
  "PulseSequenceDetails": "%CustomerSeq%\\cmrr_mbep2d_bold",
  "ReceiveCoilActiveElements": "HC1-7;NC1,2",
  "ReceiveCoilName": "HeadNeck_64",
  "ReconMatrixPE": 104,
  "RepetitionTime": 1.49,
  "SAR": 0.0631924,
  "ScanOptions": "FS",
  "ScanningSequence": "EP",
  "SequenceName": "epfid2d1_104",
  "SequenceVariant": "SK\\SS",
  "SeriesDescription": "func_task-friends-s07e11b",
  "SeriesNumber": 16,
  "ShimSetting": [591, -7229, -8832, 256, 25, -236, -141, 81],
  "SliceThickness": 2,
  "SliceTiming": [0, 0.785, 0.0975, 0.8825, 0.195, 0.98, 0.295, 1.0775, 0.3925, 1.175, 0.49, 1.275, 0.5875, 1.3725, 0.685, 0, 0.785, 0.0975, 0.8825, 0.195, 0.98, 0.295, 1.0775, 0.3925, 1.175, 0.49, 1.275, 0.5875, 1.3725, 0.685, 0, 0.785, 0.0975, 0.8825, 0.195, 0.98, 0.295, 1.0775, 0.3925, 1.175, 0.49, 1.275, 0.5875, 1.3725, 0.685, 0, 0.785, 0.0975, 0.8825, 0.195, 0.98, 0.295, 1.0775, 0.3925, 1.175, 0.49, 1.275, 0.5875, 1.3725, 0.685],
  "SoftwareVersions": "syngo MR E11",
  "SpacingBetweenSlices": 2,
  "StationName": "MRC35049",
  "TaskName": "s07e11b",
  "TotalReadoutTime": 0.0576811,
  "TxRefAmp": 290.31,
  "WipMemBlock": "317cb47a-ffd5-49c8-95e2-0bbeafc98929||Sequence: R017 ve11c/master r/75a17815+; Jun 28 2022 16:32:11 by eja",
  "dcmmeta_affine": [
    [-1.99839448928833, -0.07956522703170776, 0.009416299872100353, 106.50743865966797],
    [-0.07035388052463531, 1.6301637887954712, -1.1565537452697754, -47.22056579589844],
    [-0.03833567351102829, 1.155956506729126, 1.631654143333435, -74.28640747070312],
    [0.0, 0.0, 0.0, 1.0]
],
  "dcmmeta_reorient_transform": [
    [0.0, -1.0, 0.0, 103.0],
    [1.0, 0.0, 0.0, 0.0],
    [0.0, 0.0, 1.0, 0.0],
    [0.0, 0.0, 0.0, 1.0]
],
  "dcmmeta_shape": [104, 104, 60, 498],
  "dcmmeta_slice_dim": 2,
  "dcmmeta_version": 0.6,
  "global": {
    "const": {
      "AcquisitionMatrix": [104, 0, 0, 104],
      "AngioFlag": "N",
      "BitsAllocated": 16,
      "BitsStored": 16,
      "BodyPartExamined": "BRAIN",
      "Columns": 832,
      "EchoNumbers": 1,
      "EchoTime": 37.0,
      "EchoTrainLength": 104,
      "FlipAngle": 52.0,
      "HighBit": 15,
      "ImageOrientationPatient": [0.99919726628775, 0.03517693959719, -0.0191678366977, -0.0397826139177, 0.81508188643314, -0.5779782539495],
      "ImagePositionPatient": [-796.76608684695, -739.67472741251, 479.49946328147],
      "ImageType": [
        "ORIGINAL",
        "PRIMARY",
        "M",
        "MB",
        "ND",
        "MOSAIC"
],
      "ImagedNucleus": "1H",
      "ImagingFrequency": 123.249583,
      "InPlanePhaseEncodingDirection": "COL",
      "MRAcquisitionType": "2D",
      "MagneticFieldStrength": 3.0,
      "Manufacturer": "SIEMENS",
      "ManufacturerModelName": "Prisma_fit",
      "Modality": "MR",
      "NumberOfAverages": 1.0,
      "NumberOfPhaseEncodingSteps": 104,
      "PercentPhaseFieldOfView": 100.0,
      "PercentSampling": 100.0,
      "PerformedProcedureStepStartTime": "161435.526000",
      "PhotometricInterpretation": "MONOCHROME2",
      "PixelBandwidth": 2290.0,
      "PixelRepresentation": 0,
      "PixelSpacing": [2.0, 2.0],
      "ProtocolName": "func_task-friends-s07e11b",
      "RepetitionTime": 1490.0,
      "Rows": 832,
      "SAR": 0.06319238839415,
      "SamplesPerPixel": 1,
      "ScanOptions": "FS",
      "ScanningSequence": "EP",
      "SequenceName": "epfid2d1_104",
      "SequenceVariant": [
        "SK",
        "SS"
],
      "SeriesDescription": "func_task-friends-s07e11b",
      "SeriesNumber": 16,
      "SeriesTime": "163442.364000",
      "SliceLocation": -32.796848714701,
      "SliceThickness": 2.0,
      "SmallestImagePixelValue": 0,
      "SoftwareVersions": "syngo MR E11",
      "SpacingBetweenSlices": 2.0000000559667,
      "SpecificCharacterSet": "ISO_IR 100",
      "StudyID": "1",
      "StudyTime": "161435.444000",
      "TransmitCoilName": "Body",
      "VariableFlipAngleFlag": "N",
      "WindowCenterWidthExplanation": "Algo1",
      "dBdt": 0.0},
    "slices": {}
  },
  "time": {
    "samples": {
      "AcquisitionNumber": [1, 2, 3, 4, 5, 6, 7, 8, 9, 10, 11, 12, 13, 14, 15, 16, 17, 18, 19, 20, 21, 22, 23, 24, 25, 26, 27, 28, 29, 30, 31, 32, 33, 34, 35, 36, 37, 38, 39, 40, 41, 42, 43, 44, 45, 46, 47, 48, 49, 50, 51, 52, 53, 54, 55, 56, 57, 58, 59, 60, 61, 62, 63, 64, 65, 66, 67, 68, 69, 70, 71, 72, 73, 74, 75, 76, 77, 78, 79, 80, 81, 82, 83, 84, 85, 86, 87, 88, 89, 90, 91, 92, 93, 94, 95, 96, 97, 98, 99, 100, 101, 102, 103, 104, 105, 106, 107, 108, 109, 110, 111, 112, 113, 114, 115, 116, 117, 118, 119, 120, 121, 122, 123, 124, 125, 126, 127, 128, 129, 130, 131, 132, 133, 134, 135, 136, 137, 138, 139, 140, 141, 142, 143, 144, 145, 146, 147, 148, 149, 150, 151, 152, 153, 154, 155, 156, 157, 158, 159, 160, 161, 162, 163, 164, 165, 166, 167, 168, 169, 170, 171, 172, 173, 174, 175, 176, 177, 178, 179, 180, 181, 182, 183, 184, 185, 186, 187, 188, 189, 190, 191, 192, 193, 194, 195, 196, 197, 198, 199, 200, 201, 202, 203, 204, 205, 206, 207, 208, 209, 210, 211, 212, 213, 214, 215, 216, 217, 218, 219, 220, 221, 222, 223, 224, 225, 226, 227, 228, 229, 230, 231, 232, 233, 234, 235, 236, 237, 238, 239, 240, 241, 242, 243, 244, 245, 246, 247, 248, 249, 250, 251, 252, 253, 254, 255, 256, 257, 258, 259, 260, 261, 262, 263, 264, 265, 266, 267, 268, 269, 270, 271, 272, 273, 274, 275, 276, 277, 278, 279, 280, 281, 282, 283, 284, 285, 286, 287, 288, 289, 290, 291, 292, 293, 294, 295, 296, 297, 298, 299, 300, 301, 302, 303, 304, 305, 306, 307, 308, 309, 310, 311, 312, 313, 314, 315, 316, 317, 318, 319, 320, 321, 322, 323, 324, 325, 326, 327, 328, 329, 330, 331, 332, 333, 334, 335, 336, 337, 338, 339, 340, 341, 342, 343, 344, 345, 346, 347, 348, 349, 350, 351, 352, 353, 354, 355, 356, 357, 358, 359, 360, 361, 362, 363, 364, 365, 366, 367, 368, 369, 370, 371, 372, 373, 374, 375, 376, 377, 378, 379, 380, 381, 382, 383, 384, 385, 386, 387, 388, 389, 390, 391, 392, 393, 394, 395, 396, 397, 398, 399, 400, 401, 402, 403, 404, 405, 406, 407, 408, 409, 410, 411, 412, 413, 414, 415, 416, 417, 418, 419, 420, 421, 422, 423, 424, 425, 426, 427, 428, 429, 430, 431, 432, 433, 434, 435, 436, 437, 438, 439, 440, 441, 442, 443, 444, 445, 446, 447, 448, 449, 450, 451, 452, 453, 454, 455, 456, 457, 458, 459, 460, 461, 462, 463, 464, 465, 466, 467, 468, 469, 470, 471, 472, 473, 474, 475, 476, 477, 478, 479, 480, 481, 482, 483, 484, 485, 486, 487, 488, 489, 490, 491, 492, 493, 494, 495, 496, 497, 498],
      "AcquisitionTime": ["163321.390000", "163322.880000", "163324.370000", "163325.860000", "163327.350000", "163328.840000", "163330.330000", "163331.820000", "163333.310000", "163334.800000", "163336.290000", "163337.780000", "163339.270000", "163340.760000", "163342.250000", "163343.740000", "163345.230000", "163346.720000", "163348.210000", "163349.700000", "163351.190000", "163352.680000", "163354.170000", "163355.660000", "163357.150000", "163358.640000", "163400.130000", "163401.620000", "163403.110000", "163404.600000", "163406.090000", "163407.580000", "163409.070000", "163410.560000", "163412.050000", "163413.540000", "163415.030000", "163416.520000", "163418.010000", "163419.500000", "163420.990000", "163422.480000", "163423.970000", "163425.460000", "163426.950000", "163428.440000", "163429.930000", "163431.420000", "163432.910000", "163434.400000", "163435.890000", "163437.380000", "163438.870000", "163440.360000", "163441.850000", "163443.340000", "163444.830000", "163446.320000", "163447.810000", "163449.300000", "163450.790000", "163452.280000", "163453.770000", "163455.260000", "163456.750000", "163458.240000", "163459.730000", "163501.220000", "163502.710000", "163504.200000", "163505.690000", "163507.180000", "163508.670000", "163510.160000", "163511.650000", "163513.140000", "163514.630000", "163516.120000", "163517.610000", "163519.100000", "163520.590000", "163522.080000", "163523.570000", "163525.060000", "163526.550000", "163528.040000", "163529.530000", "163531.020000", "163532.510000", "163534.000000", "163535.490000", "163536.980000", "163538.470000", "163539.960000", "163541.450000", "163542.940000", "163544.430000", "163545.920000", "163547.410000", "163548.900000", "163550.390000", "163551.880000", "163553.370000", "163554.860000", "163556.350000", "163557.840000", "163559.330000", "163600.820000", "163602.310000", "163603.800000", "163605.290000", "163606.780000", "163608.270000", "163609.760000", "163611.250000", "163612.740000", "163614.230000", "163615.720000", "163617.210000", "163618.700000", "163620.190000", "163621.680000", "163623.170000", "163624.660000", "163626.150000", "163627.640000", "163629.130000", "163630.620000", "163632.110000", "163633.600000", "163635.090000", "163636.580000", "163638.070000", "163639.560000", "163641.050000", "163642.540000", "163644.030000", "163645.520000", "163647.010000", "163648.500000", "163649.990000", "163651.480000", "163652.970000", "163654.460000", "163655.950000", "163657.440000", "163658.930000", "163700.420000", "163701.910000", "163703.400000", "163704.890000", "163706.380000", "163707.870000", "163709.360000", "163710.850000", "163712.340000", "163713.830000", "163715.320000", "163716.810000", "163718.300000", "163719.790000", "163721.280000", "163722.770000", "163724.260000", "163725.750000", "163727.240000", "163728.730000", "163730.220000", "163731.710000", "163733.200000", "163734.690000", "163736.180000", "163737.670000", "163739.160000", "163740.650000", "163742.140000", "163743.630000", "163745.120000", "163746.610000", "163748.100000", "163749.590000", "163751.080000", "163752.570000", "163754.060000", "163755.550000", "163757.040000", "163758.530000", "163800.020000", "163801.510000", "163803.000000", "163804.490000", "163805.980000", "163807.470000", "163808.960000", "163810.450000", "163811.940000", "163813.430000", "163814.920000", "163816.410000", "163817.900000", "163819.390000", "163820.880000", "163822.370000", "163823.860000", "163825.350000", "163826.840000", "163828.330000", "163829.820000", "163831.310000", "163832.800000", "163834.290000", "163835.780000", "163837.270000", "163838.760000", "163840.250000", "163841.740000", "163843.230000", "163844.720000", "163846.210000", "163847.700000", "163849.190000", "163850.680000", "163852.170000", "163853.660000", "163855.150000", "163856.640000", "163858.130000", "163859.620000", "163901.110000", "163902.600000", "163904.090000", "163905.580000", "163907.070000", "163908.560000", "163910.050000", "163911.540000", "163913.030000", "163914.520000", "163916.010000", "163917.500000", "163918.990000", "163920.480000", "163921.970000", "163923.460000", "163924.950000", "163926.440000", "163927.930000", "163929.420000", "163930.910000", "163932.400000", "163933.890000", "163935.380000", "163936.870000", "163938.360000", "163939.850000", "163941.340000", "163942.830000", "163944.320000", "163945.810000", "163947.300000", "163948.790000", "163950.280000", "163951.770000", "163953.260000", "163954.750000", "163956.240000", "163957.730000", "163959.220000", "164000.710000", "164002.200000", "164003.690000", "164005.180000", "164006.670000", "164008.160000", "164009.650000", "164011.140000", "164012.630000", "164014.120000", "164015.610000", "164017.100000", "164018.590000", "164020.080000", "164021.570000", "164023.060000", "164024.550000", "164026.040000", "164027.530000", "164029.020000", "164030.510000", "164032.000000", "164033.490000", "164034.980000", "164036.470000", "164037.960000", "164039.450000", "164040.940000", "164042.430000", "164043.920000", "164045.410000", "164046.900000", "164048.390000", "164049.880000", "164051.370000", "164052.860000", "164054.350000", "164055.840000", "164057.330000", "164058.820000", "164100.310000", "164101.800000", "164103.290000", "164104.780000", "164106.270000", "164107.760000", "164109.250000", "164110.740000", "164112.230000", "164113.720000", "164115.210000", "164116.700000", "164118.190000", "164119.680000", "164121.170000", "164122.660000", "164124.150000", "164125.640000", "164127.130000", "164128.620000", "164130.110000", "164131.600000", "164133.090000", "164134.580000", "164136.070000", "164137.560000", "164139.050000", "164140.540000", "164142.030000", "164143.520000", "164145.010000", "164146.500000", "164147.990000", "164149.480000", "164150.970000", "164152.460000", "164153.950000", "164155.440000", "164156.930000", "164158.420000", "164159.910000", "164201.400000", "164202.890000", "164204.380000", "164205.870000", "164207.360000", "164208.850000", "164210.340000", "164211.830000", "164213.320000", "164214.810000", "164216.300000", "164217.790000", "164219.280000", "164220.770000", "164222.260000", "164223.750000", "164225.240000", "164226.730000", "164228.220000", "164229.710000", "164231.200000", "164232.690000", "164234.180000", "164235.670000", "164237.160000", "164238.650000", "164240.140000", "164241.630000", "164243.120000", "164244.610000", "164246.100000", "164247.590000", "164249.080000", "164250.570000", "164252.060000", "164253.550000", "164255.040000", "164256.530000", "164258.020000", "164259.510000", "164301.000000", "164302.490000", "164303.980000", "164305.470000", "164306.960000", "164308.450000", "164309.940000", "164311.430000", "164312.920000", "164314.410000", "164315.900000", "164317.390000", "164318.880000", "164320.370000", "164321.860000", "164323.350000", "164324.840000", "164326.330000", "164327.820000", "164329.310000", "164330.800000", "164332.290000", "164333.780000", "164335.270000", "164336.760000", "164338.250000", "164339.740000", "164341.230000", "164342.720000", "164344.210000", "164345.700000", "164347.190000", "164348.680000", "164350.170000", "164351.660000", "164353.150000", "164354.640000", "164356.130000", "164357.620000", "164359.110000", "164400.600000", "164402.090000", "164403.580000", "164405.070000", "164406.560000", "164408.050000", "164409.540000", "164411.030000", "164412.520000", "164414.010000", "164415.500000", "164416.990000", "164418.480000", "164419.970000", "164421.460000", "164422.950000", "164424.440000", "164425.930000", "164427.420000", "164428.910000", "164430.400000", "164431.890000", "164433.380000", "164434.870000", "164436.360000", "164437.850000", "164439.340000", "164440.830000", "164442.320000", "164443.810000", "164445.300000", "164446.790000", "164448.280000", "164449.770000", "164451.260000", "164452.750000", "164454.240000", "164455.730000", "164457.220000", "164458.710000", "164500.200000", "164501.690000", "164503.180000", "164504.670000", "164506.160000", "164507.650000", "164509.140000", "164510.630000", "164512.120000", "164513.610000", "164515.100000", "164516.590000", "164518.080000", "164519.570000", "164521.060000", "164522.550000", "164524.040000", "164525.530000", "164527.020000", "164528.510000", "164530.000000", "164531.490000", "164532.980000", "164534.470000", "164535.960000", "164537.450000", "164538.940000", "164540.430000", "164541.920000"],
      "ContentTime": ["163442.366000", "163442.369000", "163442.372000", "163442.375000", "163442.378000", "163442.381000", "163442.384000", "163442.387000", "163442.390000", "163442.393000", "163442.396000", "163442.399000", "163442.402000", "163442.404000", "163442.407000", "163442.410000", "163442.413000", "163442.416000", "163442.419000", "163442.432000", "163442.435000", "163442.437000", "163442.440000", "163442.443000", "163442.446000", "163442.449000", "163442.457000", "163442.460000", "163442.463000", "163442.466000", "163442.469000", "163442.471000", "163502.336000", "163502.339000", "163502.342000", "163502.345000", "163502.348000", "163502.351000", "163502.354000", "163502.356000", "163502.359000", "163502.362000", "163502.365000", "163502.368000", "163502.371000", "163502.374000", "163502.377000", "163502.379000", "163502.382000", "163502.385000", "163502.388000", "163502.391000", "163502.394000", "163522.336000", "163522.351000", "163522.354000", "163522.357000", "163522.359000", "163522.362000", "163522.365000", "163522.368000", "163522.371000", "163522.374000", "163522.376000", "163522.379000", "163522.382000", "163522.385000", "163522.388000", "163522.391000", "163522.394000", "163522.397000", "163522.399000", "163522.402000", "163542.336000", "163542.344000", "163542.347000", "163542.350000", "163542.353000", "163542.355000", "163542.358000", "163542.361000", "163542.364000", "163542.367000", "163542.370000", "163542.373000", "163542.376000", "163542.378000", "163542.381000", "163542.384000", "163542.387000", "163542.390000", "163542.393000", "163542.396000", "163622.336000", "163622.339000", "163622.342000", "163622.345000", "163622.348000", "163622.351000", "163622.353000", "163622.356000", "163622.359000", "163622.362000", "163622.365000", "163622.368000", "163622.370000", "163622.373000", "163622.376000", "163622.379000", "163622.382000", "163622.385000", "163622.388000", "163622.391000", "163622.394000", "163622.397000", "163622.409000", "163622.412000", "163622.415000", "163622.418000", "163622.427000", "163702.336000", "163702.339000", "163702.342000", "163702.345000", "163702.348000", "163702.351000", "163702.354000", "163702.356000", "163702.359000", "163702.362000", "163702.365000", "163702.368000", "163702.371000", "163702.385000", "163702.388000", "163702.390000", "163702.393000", "163702.396000", "163702.399000", "163702.402000", "163702.405000", "163702.408000", "163702.411000", "163702.413000", "163702.416000", "163702.419000", "163702.422000", "163722.336000", "163722.339000", "163722.342000", "163722.345000", "163722.348000", "163722.350000", "163722.353000", "163722.356000", "163722.359000", "163722.362000", "163722.365000", "163722.368000", "163722.370000", "163722.373000", "163802.336000", "163802.339000", "163802.342000", "163802.345000", "163802.347000", "163802.350000", "163802.353000", "163802.356000", "163802.359000", "163802.362000", "163802.365000", "163802.367000", "163802.370000", "163802.373000", "163802.376000", "163802.379000", "163802.382000", "163802.385000", "163802.388000", "163802.391000", "163802.393000", "163802.396000", "163802.399000", "163802.402000", "163802.405000", "163802.408000", "163802.411000", "163842.336000", "163842.339000", "163842.342000", "163842.345000", "163842.348000", "163842.351000", "163842.353000", "163842.356000", "163842.359000", "163842.362000", "163842.365000", "163842.368000", "163842.372000", "163842.375000", "163842.378000", "163842.381000", "163842.384000", "163842.387000", "163842.389000", "163842.392000", "163842.395000", "163842.398000", "163842.401000", "163842.404000", "163842.407000", "163842.410000", "163922.336000", "163922.339000", "163922.342000", "163922.345000", "163922.348000", "163922.350000", "163922.353000", "163922.356000", "163922.359000", "163922.362000", "163922.365000", "163922.368000", "163922.371000", "163922.374000", "163922.376000", "163922.379000", "163922.382000", "163922.385000", "163922.388000", "163922.391000", "163922.394000", "163922.396000", "163922.399000", "163922.402000", "163922.405000", "163922.408000", "163922.411000", "164002.336000", "164002.339000", "164002.342000", "164002.345000", "164002.348000", "164002.351000", "164002.354000", "164002.356000", "164002.359000", "164002.362000", "164002.365000", "164002.368000", "164002.371000", "164002.374000", "164002.377000", "164002.380000", "164002.383000", "164002.386000", "164002.389000", "164002.393000", "164002.395000", "164002.398000", "164002.401000", "164002.404000", "164002.407000", "164002.410000", "164002.413000", "164042.336000", "164042.339000", "164042.342000", "164042.345000", "164042.348000", "164042.351000", "164042.353000", "164042.356000", "164042.359000", "164042.362000", "164042.365000", "164042.368000", "164042.371000", "164042.374000", "164042.377000", "164042.379000", "164042.382000", "164042.385000", "164042.388000", "164042.391000", "164042.394000", "164042.397000", "164042.400000", "164042.403000", "164042.405000", "164042.408000", "164042.411000", "164122.336000", "164122.339000", "164122.342000", "164122.345000", "164122.348000", "164122.351000", "164122.353000", "164122.356000", "164122.359000", "164122.362000", "164122.365000", "164122.368000", "164122.371000", "164122.374000", "164122.376000", "164122.379000", "164122.382000", "164122.385000", "164122.388000", "164122.391000", "164122.394000", "164122.397000", "164122.399000", "164122.402000", "164122.405000", "164122.408000", "164122.418000", "164202.336000", "164202.339000", "164202.342000", "164202.345000", "164202.348000", "164202.351000", "164202.354000", "164202.356000", "164202.359000", "164202.362000", "164202.365000", "164202.368000", "164202.371000", "164202.374000", "164202.377000", "164202.380000", "164202.383000", "164202.385000", "164202.388000", "164202.391000", "164202.394000", "164202.397000", "164202.400000", "164202.403000", "164202.406000", "164202.408000", "164202.411000", "164242.336000", "164242.339000", "164242.342000", "164242.345000", "164242.348000", "164242.351000", "164242.354000", "164242.356000", "164242.360000", "164242.362000", "164242.365000", "164242.368000", "164242.371000", "164242.374000", "164242.377000", "164242.380000", "164242.383000", "164242.386000", "164242.389000", "164242.392000", "164242.395000", "164242.398000", "164242.400000", "164242.403000", "164242.406000", "164242.409000", "164322.336000", "164322.339000", "164322.342000", "164322.345000", "164322.348000", "164322.351000", "164322.354000", "164322.357000", "164322.359000", "164322.370000", "164322.372000", "164322.375000", "164322.378000", "164322.381000", "164322.384000", "164322.387000", "164322.390000", "164322.393000", "164322.395000", "164322.398000", "164322.401000", "164322.404000", "164322.407000", "164322.410000", "164322.413000", "164322.416000", "164322.418000", "164402.336000", "164402.339000", "164402.342000", "164402.345000", "164402.348000", "164402.351000", "164402.354000", "164402.356000", "164402.359000", "164402.362000", "164402.365000", "164402.368000", "164402.371000", "164402.374000", "164402.377000", "164402.380000", "164402.383000", "164402.385000", "164402.388000", "164402.391000", "164402.394000", "164402.397000", "164402.400000", "164402.403000", "164402.406000", "164402.408000", "164402.411000", "164442.336000", "164442.339000", "164442.342000", "164442.345000", "164442.348000", "164442.351000", "164442.354000", "164442.356000", "164442.359000", "164442.362000", "164442.365000", "164442.368000", "164442.371000", "164442.374000", "164442.377000", "164442.379000", "164442.382000", "164442.385000", "164442.388000", "164442.391000", "164442.394000", "164442.397000", "164442.400000", "164442.402000", "164442.405000", "164442.408000", "164442.411000", "164522.336000", "164522.339000", "164522.342000", "164522.345000", "164522.348000", "164522.351000", "164522.354000", "164522.357000", "164522.361000", "164522.364000", "164522.367000", "164522.371000", "164522.374000", "164522.378000", "164522.381000", "164522.385000", "164522.388000", "164522.392000", "164522.395000", "164522.399000", "164522.402000", "164522.406000", "164522.409000", "164522.412000", "164522.415000", "164522.418000", "164522.421000", "164544.175000", "164544.178000", "164544.181000", "164544.184000", "164544.187000", "164544.190000", "164544.193000", "164544.196000", "164544.198000", "164544.201000", "164544.204000", "164544.207000", "164544.210000", "164544.213000", "164544.216000"],
