{
  "AcquisitionMatrixPE": 104,
  "AcquisitionNumber": 1,
  "AcquisitionTime": "18:45:13.030000",
  "BandwidthPerPixelPhaseEncode": 17.17,
  "BaseResolution": 104,
  "BodyPartExamined": "BRAIN",
  "CoilString": "HC1-7;NC1_2",
  "ConsistencyInfo": "N4_VE11C_LATEST_20160120",
  "ConversionSoftware": "dcm2niix",
  "ConversionSoftwareVersion": "v1.0.20190720  (JP2:OpenJPEG) GCC7.3.0",
  "DerivedVendorReportedEchoSpacing": 0.000560011,
  "DeviceSerialNumber": "167006",
  "DwellTime": 2.1e-06,
  "EchoTime": 0.037,
  "EchoTrainLength": 104,
  "EffectiveEchoSpacing": 0.000560011,
  "FlipAngle": 52,
  "ImageComments": "Unaliased_MB4_PE3_LB",
  "ImageOrientationPatientDICOM": [0.997578, -0.068022, -0.0145422, 0.05752, 0.92425, -0.377431],
  "ImageType": [
    "ORIGINAL",
    "PRIMARY",
    "M",
    "MB",
    "ND",
    "MOSAIC"
],
  "ImagingFrequency": 123.259,
  "InPlanePhaseEncodingDirectionDICOM": "COL",
  "InstitutionAddress": "Chemin_Queen-Mary_4565_Montreal_District_CA_H3W_1W5",
  "InstitutionName": "IUGM",
  "InstitutionalDepartmentName": "Department",
  "MRAcquisitionType": "2D",
  "MagneticFieldStrength": 3,
  "Manufacturer": "Siemens",
  "ManufacturersModelName": "Prisma_fit",
  "Modality": "MR",
  "MultibandAccelerationFactor": 4,
  "PartialFourier": 1,
  "PatientPosition": "HFS",
  "PercentPhaseFOV": 100,
  "PhaseEncodingDirection": "j",
  "PhaseEncodingSteps": 104,
  "PhaseResolution": 1,
  "PixelBandwidth": 2290,
  "ProcedureStepDescription": "video_friends",
  "ProtocolName": "func_task-s01e14b",
  "PulseSequenceDetails": "%CustomerSeq%_cmrr_mbep2d_bold",
  "ReceiveCoilActiveElements": "HC1-7;NC1,2",
  "ReceiveCoilName": "HeadNeck_64",
  "ReconMatrixPE": 104,
  "RepetitionTime": 1.49,
  "SAR": 0.0339531,
  "ScanOptions": "FS",
  "ScanningSequence": "EP",
  "SequenceName": "epfid2d1_104",
  "SequenceVariant": "SK_SS",
  "SeriesDescription": "func_task-s01e14b",
  "SeriesNumber": 15,
  "ShimSetting": [620, -7262, -8851, 424, 20, -419, 35, 38],
  "SliceThickness": 2,
  "SliceTiming": [0, 0.785, 0.0975, 0.8825, 0.195, 0.98, 0.295, 1.0775, 0.3925, 1.175, 0.49, 1.275, 0.5875, 1.3725, 0.685, 0, 0.785, 0.0975, 0.8825, 0.195, 0.98, 0.295, 1.0775, 0.3925, 1.175, 0.49, 1.275, 0.5875, 1.3725, 0.685, 0, 0.785, 0.0975, 0.8825, 0.195, 0.98, 0.295, 1.0775, 0.3925, 1.175, 0.49, 1.275, 0.5875, 1.3725, 0.685, 0, 0.785, 0.0975, 0.8825, 0.195, 0.98, 0.295, 1.0775, 0.3925, 1.175, 0.49, 1.275, 0.5875, 1.3725, 0.685],
  "SoftwareVersions": "syngo_MR_E11",
  "SpacingBetweenSlices": 2,
  "StationName": "MRC35049",
  "TaskName": "friends",
  "TotalReadoutTime": 0.0576811,
  "TxRefAmp": 232.227,
  "WipMemBlock": "d5d2dc77-20c2-4be5-9b82-bb7e886c1f4d||Sequence: R016 ve11c/master r/e634e98; Dec 19 2017 11:00:25 by eja",
  "dcmmeta_affine": [
    [-1.995155692100525, 0.11504000425338745, -0.07822834700345993, 95.61466217041016],
    [0.13604404032230377, 1.8484995365142822, -0.7513598203659058, -76.11898040771484],
    [-0.02908431366086006, 0.7548611760139465, 1.8518472909927368, -69.42251586914062],
    [0.0, 0.0, 0.0, 1.0]
],
  "dcmmeta_reorient_transform": [
    [0.0, -1.0, 0.0, 103.0],
    [1.0, 0.0, 0.0, 0.0],
    [0.0, 0.0, 1.0, 0.0],
    [0.0, 0.0, 0.0, 1.0]
],
  "dcmmeta_shape": [104, 104, 60, 491],
  "dcmmeta_slice_dim": 2,
  "dcmmeta_version": 0.6,
  "global": {
    "const": {
      "AcquisitionMatrix": [104, 0, 0, 104],
      "AngioFlag": "N",
      "BitsAllocated": 16,
      "BitsStored": 16,
      "BodyPartExamined": "BRAIN",
      "Columns": 832,
      "EchoNumbers": 1,
      "EchoTime": 37.0,
      "EchoTrainLength": 104,
      "FlipAngle": 52.0,
      "HighBit": 15,
      "ImageOrientationPatient": [0.99757783193591, -0.0680220178092, -0.0145421567593, 0.05752000083595, 0.92424974571358, -0.3774305989877],
      "ImagePositionPatient": [-875.57500272785, -737.61025608493, 293.68435539502],
      "ImageType": [
        "ORIGINAL",
        "PRIMARY",
        "M",
        "MB",
        "ND",
        "MOSAIC"
],
      "ImagedNucleus": "1H",
      "ImagingFrequency": 123.25942,
      "InPlanePhaseEncodingDirection": "COL",
      "MRAcquisitionType": "2D",
      "MagneticFieldStrength": 3.0,
      "Manufacturer": "SIEMENS",
      "ManufacturerModelName": "Prisma_fit",
      "Modality": "MR",
      "NumberOfAverages": 1.0,
      "NumberOfPhaseEncodingSteps": 104,
      "PercentPhaseFieldOfView": 100.0,
      "PercentSampling": 100.0,
      "PerformedProcedureStepStartTime": "175201.856000",
      "PhotometricInterpretation": "MONOCHROME2",
      "PixelBandwidth": 2290.0,
      "PixelRepresentation": 0,
      "PixelSpacing": [2.0, 2.0],
      "ProtocolName": "func_task-s01e14b",
      "RepetitionTime": 1490.0,
      "Rows": 832,
      "SAR": 0.03395314070999,
      "SamplesPerPixel": 1,
      "ScanOptions": "FS",
      "ScanningSequence": "EP",
      "SequenceName": "epfid2d1_104",
      "SequenceVariant": [
        "SK",
        "SS"
],
      "SeriesDescription": "func_task-s01e14b",
      "SeriesNumber": 15,
      "SeriesTime": "184636.739000",
      "SliceLocation": -39.423466291466,
      "SliceThickness": 2.0,
      "SmallestImagePixelValue": 0,
      "SoftwareVersions": "syngo MR E11",
      "SpacingBetweenSlices": 1.9999999355403,
      "SpecificCharacterSet": "ISO_IR 100",
      "StudyID": "1",
      "StudyTime": "175201.699000",
      "TransmitCoilName": "Body",
      "VariableFlipAngleFlag": "N",
      "WindowCenterWidthExplanation": "Algo1",
      "dBdt": 0.0},
    "slices": {}
  },
  "time": {
    "samples": {
      "AcquisitionNumber": [1, 2, 3, 4, 5, 6, 7, 8, 9, 10, 11, 12, 13, 14, 15, 16, 17, 18, 19, 20, 21, 22, 23, 24, 25, 26, 27, 28, 29, 30, 31, 32, 33, 34, 35, 36, 37, 38, 39, 40, 41, 42, 43, 44, 45, 46, 47, 48, 49, 50, 51, 52, 53, 54, 55, 56, 57, 58, 59, 60, 61, 62, 63, 64, 65, 66, 67, 68, 69, 70, 71, 72, 73, 74, 75, 76, 77, 78, 79, 80, 81, 82, 83, 84, 85, 86, 87, 88, 89, 90, 91, 92, 93, 94, 95, 96, 97, 98, 99, 100, 101, 102, 103, 104, 105, 106, 107, 108, 109, 110, 111, 112, 113, 114, 115, 116, 117, 118, 119, 120, 121, 122, 123, 124, 125, 126, 127, 128, 129, 130, 131, 132, 133, 134, 135, 136, 137, 138, 139, 140, 141, 142, 143, 144, 145, 146, 147, 148, 149, 150, 151, 152, 153, 154, 155, 156, 157, 158, 159, 160, 161, 162, 163, 164, 165, 166, 167, 168, 169, 170, 171, 172, 173, 174, 175, 176, 177, 178, 179, 180, 181, 182, 183, 184, 185, 186, 187, 188, 189, 190, 191, 192, 193, 194, 195, 196, 197, 198, 199, 200, 201, 202, 203, 204, 205, 206, 207, 208, 209, 210, 211, 212, 213, 214, 215, 216, 217, 218, 219, 220, 221, 222, 223, 224, 225, 226, 227, 228, 229, 230, 231, 232, 233, 234, 235, 236, 237, 238, 239, 240, 241, 242, 243, 244, 245, 246, 247, 248, 249, 250, 251, 252, 253, 254, 255, 256, 257, 258, 259, 260, 261, 262, 263, 264, 265, 266, 267, 268, 269, 270, 271, 272, 273, 274, 275, 276, 277, 278, 279, 280, 281, 282, 283, 284, 285, 286, 287, 288, 289, 290, 291, 292, 293, 294, 295, 296, 297, 298, 299, 300, 301, 302, 303, 304, 305, 306, 307, 308, 309, 310, 311, 312, 313, 314, 315, 316, 317, 318, 319, 320, 321, 322, 323, 324, 325, 326, 327, 328, 329, 330, 331, 332, 333, 334, 335, 336, 337, 338, 339, 340, 341, 342, 343, 344, 345, 346, 347, 348, 349, 350, 351, 352, 353, 354, 355, 356, 357, 358, 359, 360, 361, 362, 363, 364, 365, 366, 367, 368, 369, 370, 371, 372, 373, 374, 375, 376, 377, 378, 379, 380, 381, 382, 383, 384, 385, 386, 387, 388, 389, 390, 391, 392, 393, 394, 395, 396, 397, 398, 399, 400, 401, 402, 403, 404, 405, 406, 407, 408, 409, 410, 411, 412, 413, 414, 415, 416, 417, 418, 419, 420, 421, 422, 423, 424, 425, 426, 427, 428, 429, 430, 431, 432, 433, 434, 435, 436, 437, 438, 439, 440, 441, 442, 443, 444, 445, 446, 447, 448, 449, 450, 451, 452, 453, 454, 455, 456, 457, 458, 459, 460, 461, 462, 463, 464, 465, 466, 467, 468, 469, 470, 471, 472, 473, 474, 475, 476, 477, 478, 479, 480, 481, 482, 483, 484, 485, 486, 487, 488, 489, 490, 491],
      "AcquisitionTime": ["184513.030000", "184514.520000", "184516.010000", "184517.500000", "184518.990000", "184520.480000", "184521.970000", "184523.460000", "184524.950000", "184526.440000", "184527.930000", "184529.420000", "184530.910000", "184532.400000", "184533.890000", "184535.380000", "184536.870000", "184538.360000", "184539.850000", "184541.340000", "184542.830000", "184544.320000", "184545.810000", "184547.300000", "184548.790000", "184550.280000", "184551.770000", "184553.260000", "184554.750000", "184556.240000", "184557.730000", "184559.220000", "184600.710000", "184602.200000", "184603.690000", "184605.180000", "184606.670000", "184608.160000", "184609.650000", "184611.140000", "184612.630000", "184614.120000", "184615.610000", "184617.100000", "184618.590000", "184620.080000", "184621.570000", "184623.060000", "184624.550000", "184626.040000", "184627.530000", "184629.020000", "184630.510000", "184632.000000", "184633.490000", "184634.980000", "184636.470000", "184637.960000", "184639.450000", "184640.940000", "184642.430000", "184643.920000", "184645.410000", "184646.900000", "184648.390000", "184649.880000", "184651.370000", "184652.860000", "184654.350000", "184655.840000", "184657.330000", "184658.820000", "184700.310000", "184701.800000", "184703.290000", "184704.780000", "184706.270000", "184707.760000", "184709.250000", "184710.740000", "184712.230000", "184713.720000", "184715.210000", "184716.700000", "184718.190000", "184719.680000", "184721.170000", "184722.660000", "184724.150000", "184725.640000", "184727.130000", "184728.620000", "184730.110000", "184731.600000", "184733.090000", "184734.580000", "184736.070000", "184737.560000", "184739.050000", "184740.540000", "184742.030000", "184743.520000", "184745.010000", "184746.500000", "184747.990000", "184749.480000", "184750.970000", "184752.460000", "184753.950000", "184755.440000", "184756.930000", "184758.420000", "184759.910000", "184801.400000", "184802.890000", "184804.380000", "184805.870000", "184807.360000", "184808.850000", "184810.340000", "184811.830000", "184813.320000", "184814.810000", "184816.300000", "184817.790000", "184819.280000", "184820.770000", "184822.260000", "184823.750000", "184825.240000", "184826.730000", "184828.220000", "184829.710000", "184831.200000", "184832.690000", "184834.180000", "184835.670000", "184837.160000", "184838.650000", "184840.140000", "184841.630000", "184843.120000", "184844.610000", "184846.100000", "184847.590000", "184849.080000", "184850.570000", "184852.060000", "184853.550000", "184855.040000", "184856.530000", "184858.020000", "184859.510000", "184901.000000", "184902.490000", "184903.980000", "184905.470000", "184906.960000", "184908.450000", "184909.940000", "184911.430000", "184912.920000", "184914.410000", "184915.900000", "184917.390000", "184918.880000", "184920.370000", "184921.860000", "184923.350000", "184924.840000", "184926.330000", "184927.820000", "184929.310000", "184930.800000", "184932.290000", "184933.780000", "184935.270000", "184936.760000", "184938.250000", "184939.740000", "184941.230000", "184942.720000", "184944.210000", "184945.700000", "184947.190000", "184948.680000", "184950.170000", "184951.660000", "184953.150000", "184954.640000", "184956.130000", "184957.620000", "184959.110000", "185000.600000", "185002.090000", "185003.580000", "185005.070000", "185006.560000", "185008.050000", "185009.540000", "185011.030000", "185012.520000", "185014.010000", "185015.500000", "185016.990000", "185018.480000", "185019.970000", "185021.460000", "185022.950000", "185024.440000", "185025.930000", "185027.420000", "185028.910000", "185030.400000", "185031.890000", "185033.380000", "185034.870000", "185036.360000", "185037.850000", "185039.340000", "185040.830000", "185042.320000", "185043.810000", "185045.300000", "185046.790000", "185048.280000", "185049.770000", "185051.260000", "185052.750000", "185054.240000", "185055.730000", "185057.220000", "185058.710000", "185100.200000", "185101.690000", "185103.180000", "185104.670000", "185106.160000", "185107.650000", "185109.140000", "185110.630000", "185112.120000", "185113.610000", "185115.100000", "185116.590000", "185118.080000", "185119.570000", "185121.060000", "185122.550000", "185124.040000", "185125.530000", "185127.020000", "185128.510000", "185130.000000", "185131.490000", "185132.980000", "185134.470000", "185135.960000", "185137.450000", "185138.940000", "185140.430000", "185141.920000", "185143.410000", "185144.900000", "185146.390000", "185147.880000", "185149.370000", "185150.860000", "185152.350000", "185153.840000", "185155.330000", "185156.820000", "185158.310000", "185159.800000", "185201.290000", "185202.780000", "185204.270000", "185205.760000", "185207.250000", "185208.740000", "185210.230000", "185211.720000", "185213.210000", "185214.700000", "185216.190000", "185217.680000", "185219.170000", "185220.660000", "185222.150000", "185223.640000", "185225.130000", "185226.620000", "185228.110000", "185229.600000", "185231.090000", "185232.580000", "185234.070000", "185235.560000", "185237.050000", "185238.540000", "185240.030000", "185241.520000", "185243.010000", "185244.500000", "185245.990000", "185247.480000", "185248.970000", "185250.460000", "185251.950000", "185253.440000", "185254.930000", "185256.420000", "185257.910000", "185259.400000", "185300.890000", "185302.380000", "185303.870000", "185305.360000", "185306.850000", "185308.340000", "185309.830000", "185311.320000", "185312.810000", "185314.300000", "185315.790000", "185317.280000", "185318.770000", "185320.260000", "185321.750000", "185323.240000", "185324.730000", "185326.220000", "185327.710000", "185329.200000", "185330.690000", "185332.180000", "185333.670000", "185335.160000", "185336.650000", "185338.140000", "185339.630000", "185341.120000", "185342.610000", "185344.100000", "185345.590000", "185347.080000", "185348.570000", "185350.060000", "185351.550000", "185353.040000", "185354.530000", "185356.020000", "185357.510000", "185359.000000", "185400.490000", "185401.980000", "185403.470000", "185404.960000", "185406.450000", "185407.940000", "185409.430000", "185410.920000", "185412.410000", "185413.900000", "185415.390000", "185416.880000", "185418.370000", "185419.860000", "185421.350000", "185422.840000", "185424.330000", "185425.820000", "185427.310000", "185428.800000", "185430.290000", "185431.780000", "185433.270000", "185434.760000", "185436.250000", "185437.740000", "185439.230000", "185440.720000", "185442.210000", "185443.700000", "185445.190000", "185446.680000", "185448.170000", "185449.660000", "185451.150000", "185452.640000", "185454.130000", "185455.620000", "185457.110000", "185458.600000", "185500.090000", "185501.580000", "185503.070000", "185504.560000", "185506.050000", "185507.540000", "185509.030000", "185510.520000", "185512.010000", "185513.500000", "185514.990000", "185516.480000", "185517.970000", "185519.460000", "185520.950000", "185522.440000", "185523.930000", "185525.420000", "185526.910000", "185528.400000", "185529.890000", "185531.380000", "185532.870000", "185534.360000", "185535.850000", "185537.340000", "185538.830000", "185540.320000", "185541.810000", "185543.300000", "185544.790000", "185546.280000", "185547.770000", "185549.260000", "185550.750000", "185552.240000", "185553.730000", "185555.220000", "185556.710000", "185558.200000", "185559.690000", "185601.180000", "185602.670000", "185604.160000", "185605.650000", "185607.140000", "185608.630000", "185610.120000", "185611.610000", "185613.100000", "185614.590000", "185616.080000", "185617.570000", "185619.060000", "185620.550000", "185622.040000", "185623.530000", "185625.020000", "185626.510000", "185628.000000", "185629.490000", "185630.980000", "185632.470000", "185633.960000", "185635.450000", "185636.940000", "185638.430000", "185639.920000", "185641.410000", "185642.900000", "185644.390000", "185645.880000", "185647.370000", "185648.860000", "185650.350000", "185651.840000", "185653.330000", "185654.820000", "185656.310000", "185657.800000", "185659.290000", "185700.780000", "185702.270000", "185703.760000", "185705.250000", "185706.740000", "185708.230000", "185709.720000", "185711.210000", "185712.700000", "185714.190000", "185715.680000", "185717.170000", "185718.660000", "185720.150000", "185721.640000", "185723.130000"],
      "ContentTime": ["184636.742000", "184636.745000", "184636.748000", "184636.751000", "184636.753000", "184636.756000", "184636.759000", "184636.772000", "184636.775000", "184636.778000", "184636.784000", "184636.786000", "184636.789000", "184636.792000", "184636.801000", "184636.804000", "184636.807000", "184636.810000", "184636.812000", "184636.815000", "184636.818000", "184636.821000", "184636.824000", "184636.831000", "184656.704000", "184656.707000", "184656.710000", "184656.712000", "184656.715000", "184656.718000", "184656.721000", "184656.724000", "184656.727000", "184656.729000", "184656.732000", "184656.735000", "184656.738000", "184656.741000", "184656.743000", "184656.746000", "184656.749000", "184656.752000", "184656.755000", "184656.757000", "184716.705000", "184716.708000", "184716.711000", "184716.713000", "184716.716000", "184716.719000", "184716.722000", "184716.724000", "184716.727000", "184716.730000", "184716.733000", "184716.736000", "184716.738000", "184716.741000", "184716.744000", "184716.747000", "184716.750000", "184716.752000", "184716.755000", "184716.758000", "184716.761000", "184736.705000", "184736.708000", "184736.711000", "184736.713000", "184736.716000", "184736.719000", "184736.722000", "184736.724000", "184736.727000", "184736.730000", "184736.733000", "184736.736000", "184736.738000", "184736.741000", "184736.744000", "184736.747000", "184736.750000", "184736.752000", "184736.755000", "184736.758000", "184756.705000", "184756.708000", "184756.711000", "184756.713000", "184756.716000", "184756.719000", "184756.722000", "184756.737000", "184756.740000", "184756.743000", "184756.746000", "184756.749000", "184756.751000", "184756.754000", "184756.757000", "184756.760000", "184756.763000", "184756.765000", "184756.768000", "184756.771000", "184836.704000", "184836.707000", "184836.710000", "184836.712000", "184836.715000", "184836.718000", "184836.721000", "184836.724000", "184836.726000", "184836.729000", "184836.732000", "184836.735000", "184836.738000", "184836.740000", "184836.743000", "184836.746000", "184836.749000", "184836.752000", "184836.754000", "184836.757000", "184836.760000", "184836.763000", "184836.766000", "184836.769000", "184836.771000", "184836.774000", "184836.777000", "184836.780000", "184836.783000", "184836.786000", "184836.788000", "184916.704000", "184916.707000", "184916.710000", "184916.713000", "184916.715000", "184916.718000", "184916.721000", "184916.724000", "184916.727000", "184916.730000", "184916.733000", "184916.735000", "184916.738000", "184916.741000", "184916.744000", "184916.747000", "184916.749000", "184916.752000", "184916.755000", "184916.758000", "184916.761000", "184916.763000", "184916.766000", "184916.769000", "184916.772000", "184916.775000", "184916.778000", "184956.705000", "184956.708000", "184956.711000", "184956.713000", "184956.716000", "184956.719000", "184956.722000", "184956.725000", "184956.727000", "184956.730000", "184956.733000", "184956.736000", "184956.739000", "184956.742000", "184956.744000", "184956.747000", "184956.750000", "184956.753000", "184956.756000", "184956.758000", "184956.761000", "184956.764000", "184956.767000", "184956.769000", "184956.772000", "184956.775000", "184956.778000", "185036.704000", "185036.707000", "185036.710000", "185036.713000", "185036.715000", "185036.718000", "185036.721000", "185036.724000", "185036.727000", "185036.729000", "185036.732000", "185036.735000", "185036.738000", "185036.741000", "185036.744000", "185036.746000", "185036.749000", "185036.752000", "185036.755000", "185036.757000", "185036.760000", "185036.763000", "185036.766000", "185036.769000", "185036.772000", "185036.774000", "185036.777000", "185116.704000", "185116.707000", "185116.710000", "185116.713000", "185116.715000", "185116.718000", "185116.721000", "185116.724000", "185116.727000", "185116.729000", "185116.732000", "185116.735000", "185116.738000", "185116.741000", "185116.743000", "185116.746000", "185116.749000", "185116.752000", "185116.755000", "185116.757000", "185116.760000", "185116.763000", "185116.767000", "185116.770000", "185116.773000", "185116.776000", "185156.705000", "185156.708000", "185156.711000", "185156.714000", "185156.717000", "185156.719000", "185156.722000", "185156.725000", "185156.728000", "185156.731000", "185156.733000", "185156.736000", "185156.739000", "185156.742000", "185156.745000", "185156.747000", "185156.750000", "185156.753000", "185156.756000", "185156.759000", "185156.761000", "185156.764000", "185156.767000", "185156.770000", "185156.773000", "185156.776000", "185156.779000", "185236.704000", "185236.707000", "185236.710000", "185236.713000", "185236.716000", "185236.718000", "185236.721000", "185236.724000", "185236.727000", "185236.730000", "185236.733000", "185236.748000", "185236.751000", "185236.753000", "185236.756000", "185236.759000", "185236.762000", "185236.765000", "185236.767000", "185236.770000", "185236.773000", "185236.776000", "185236.779000", "185236.782000", "185236.784000", "185236.787000", "185236.791000", "185316.704000", "185316.707000", "185316.710000", "185316.713000", "185316.715000", "185316.718000", "185316.721000", "185316.724000", "185316.727000", "185316.729000", "185316.732000", "185316.735000", "185316.738000", "185316.741000", "185316.743000", "185316.746000", "185316.749000", "185316.752000", "185316.755000", "185316.757000", "185316.760000", "185316.763000", "185316.766000", "185316.769000", "185316.772000", "185316.775000", "185316.777000", "185356.704000", "185356.707000", "185356.710000", "185356.713000", "185356.715000", "185356.718000", "185356.721000", "185356.724000", "185356.727000", "185356.729000", "185356.732000", "185356.735000", "185356.738000", "185356.741000", "185356.744000", "185356.746000", "185356.749000", "185356.752000", "185356.755000", "185356.758000", "185356.761000", "185356.763000", "185356.766000", "185356.769000", "185356.772000", "185356.775000", "185356.778000", "185436.705000", "185436.708000", "185436.711000", "185436.714000", "185436.716000", "185436.719000", "185436.722000", "185436.725000", "185436.728000", "185436.731000", "185436.734000", "185436.736000", "185436.739000", "185436.742000", "185436.745000", "185436.748000", "185436.750000", "185436.753000", "185436.756000", "185436.759000", "185436.762000", "185436.764000", "185436.767000", "185436.770000", "185436.773000", "185436.776000", "185436.779000", "185516.704000", "185516.707000", "185516.710000", "185516.713000", "185516.716000", "185516.719000", "185516.722000", "185516.725000", "185516.728000", "185516.730000", "185516.733000", "185516.736000", "185516.739000", "185516.742000", "185516.745000", "185516.747000", "185516.750000", "185516.753000", "185516.756000", "185516.759000", "185516.761000", "185516.764000", "185516.767000", "185516.770000", "185516.773000", "185516.776000", "185556.704000", "185556.707000", "185556.710000", "185556.712000", "185556.715000", "185556.718000", "185556.721000", "185556.724000", "185556.726000", "185556.729000", "185556.732000", "185556.735000", "185556.738000", "185556.741000", "185556.743000", "185556.746000", "185556.749000", "185556.752000", "185556.755000", "185556.757000", "185556.760000", "185556.763000", "185556.766000", "185556.769000", "185556.772000", "185556.774000", "185556.777000", "185636.705000", "185636.708000", "185636.711000", "185636.714000", "185636.716000", "185636.719000", "185636.722000", "185636.725000", "185636.728000", "185636.730000", "185636.733000", "185636.736000", "185636.739000", "185636.742000", "185636.744000", "185636.747000", "185636.750000", "185636.753000", "185636.756000", "185636.758000", "185636.761000", "185636.764000", "185636.767000", "185636.770000", "185636.773000", "185636.775000", "185636.778000", "185716.704000", "185716.707000", "185716.710000", "185716.713000", "185716.716000", "185716.718000", "185716.721000", "185716.724000", "185716.727000", "185716.730000", "185716.732000", "185716.748000", "185716.751000", "185716.754000", "185716.756000", "185716.759000", "185716.762000", "185716.765000", "185716.768000", "185716.771000", "185716.773000", "185716.776000", "185716.779000", "185716.782000", "185716.785000", "185716.788000", "185716.790000", "185724.977000", "185724.980000", "185724.983000", "185724.986000", "185724.989000", "185724.992000"],
