{
  "AcquisitionMatrixPE": 104,
  "AcquisitionNumber": 1,
  "AcquisitionTime": "20:03:54.782500",
  "BandwidthPerPixelPhaseEncode": 17.17,
  "BaseResolution": 104,
  "BodyPartExamined": "BRAIN",
  "CoilString": "HC1-7;NC1_2",
  "ConsistencyInfo": "N4_VE11C_LATEST_20160120",
  "ConversionSoftware": "dcm2niix",
  "ConversionSoftwareVersion": "v1.0.20190720  (JP2:OpenJPEG) GCC7.3.0",
  "DerivedVendorReportedEchoSpacing": 0.000560011,
  "DeviceSerialNumber": "167006",
  "DwellTime": 2.1e-06,
  "EchoTime": 0.037,
  "EchoTrainLength": 104,
  "EffectiveEchoSpacing": 0.000560011,
  "FlipAngle": 52,
  "ImageComments": "Unaliased_MB4_PE3_LB",
  "ImageOrientationPatientDICOM": [0.997578, -0.068022, -0.0145422, 0.05752, 0.92425, -0.377431],
  "ImageType": [
    "ORIGINAL",
    "PRIMARY",
    "M",
    "MB",
    "ND",
    "MOSAIC"
],
  "ImagingFrequency": 123.259,
  "InPlanePhaseEncodingDirectionDICOM": "COL",
  "InstitutionAddress": "Chemin_Queen-Mary_4565_Montreal_District_CA_H3W_1W5",
  "InstitutionName": "IUGM",
  "InstitutionalDepartmentName": "Department",
  "MRAcquisitionType": "2D",
  "MagneticFieldStrength": 3,
  "Manufacturer": "Siemens",
  "ManufacturersModelName": "Prisma_fit",
  "Modality": "MR",
  "MultibandAccelerationFactor": 4,
  "PartialFourier": 1,
  "PatientPosition": "HFS",
  "PercentPhaseFOV": 100,
  "PhaseEncodingDirection": "j",
  "PhaseEncodingSteps": 104,
  "PhaseResolution": 1,
  "PixelBandwidth": 2290,
  "ProcedureStepDescription": "video_friends",
  "ProtocolName": "func_task-s01e17b",
  "PulseSequenceDetails": "%CustomerSeq%_cmrr_mbep2d_bold",
  "ReceiveCoilActiveElements": "HC1-7;NC1,2",
  "ReceiveCoilName": "HeadNeck_64",
  "ReconMatrixPE": 104,
  "RepetitionTime": 1.49,
  "SAR": 0.0339509,
  "ScanOptions": "FS",
  "ScanningSequence": "EP",
  "SequenceName": "epfid2d1_104",
  "SequenceVariant": "SK_SS",
  "SeriesDescription": "func_task-s01e17b",
  "SeriesNumber": 27,
  "ShimSetting": [620, -7262, -8851, 424, 20, -419, 35, 38],
  "SliceThickness": 2,
  "SliceTiming": [0, 0.785, 0.0975, 0.8825, 0.195, 0.98, 0.295, 1.0775, 0.3925, 1.175, 0.49, 1.275, 0.5875, 1.3725, 0.685, 0, 0.785, 0.0975, 0.8825, 0.195, 0.98, 0.295, 1.0775, 0.3925, 1.175, 0.49, 1.275, 0.5875, 1.3725, 0.685, 0, 0.785, 0.0975, 0.8825, 0.195, 0.98, 0.295, 1.0775, 0.3925, 1.175, 0.49, 1.275, 0.5875, 1.3725, 0.685, 0, 0.785, 0.0975, 0.8825, 0.195, 0.98, 0.295, 1.0775, 0.3925, 1.175, 0.49, 1.275, 0.5875, 1.3725, 0.685],
  "SoftwareVersions": "syngo_MR_E11",
  "SpacingBetweenSlices": 2,
  "StationName": "MRC35049",
  "TaskName": "friends",
  "TotalReadoutTime": 0.0576811,
  "TxRefAmp": 232.227,
  "WipMemBlock": "8066333f-60ad-4146-b80b-581773372f46||Sequence: R016 ve11c/master r/e634e98; Dec 19 2017 11:00:25 by eja",
  "dcmmeta_affine": [
    [-1.995155692100525, 0.11504000425338745, -0.07822834700345993, 95.61466217041016],
    [0.13604404032230377, 1.8484995365142822, -0.7513598203659058, -76.11898040771484],
    [-0.02908431366086006, 0.7548611760139465, 1.8518472909927368, -69.42251586914062],
    [0.0, 0.0, 0.0, 1.0]
],
  "dcmmeta_reorient_transform": [
    [0.0, -1.0, 0.0, 103.0],
    [1.0, 0.0, 0.0, 0.0],
    [0.0, 0.0, 1.0, 0.0],
    [0.0, 0.0, 0.0, 1.0]
],
  "dcmmeta_shape": [104, 104, 60, 483],
  "dcmmeta_slice_dim": 2,
  "dcmmeta_version": 0.6,
  "global": {
    "const": {
      "AcquisitionMatrix": [104, 0, 0, 104],
      "AngioFlag": "N",
      "BitsAllocated": 16,
      "BitsStored": 16,
      "BodyPartExamined": "BRAIN",
      "Columns": 832,
      "EchoNumbers": 1,
      "EchoTime": 37.0,
      "EchoTrainLength": 104,
      "FlipAngle": 52.0,
      "HighBit": 15,
      "ImageOrientationPatient": [0.99757783193591, -0.0680220178092, -0.0145421567593, 0.05752000083595, 0.92424974571358, -0.3774305989877],
      "ImagePositionPatient": [-875.57500272785, -737.61025608493, 293.68435539502],
      "ImageType": [
        "ORIGINAL",
        "PRIMARY",
        "M",
        "MB",
        "ND",
        "MOSAIC"
],
      "ImagedNucleus": "1H",
      "ImagingFrequency": 123.259431,
      "InPlanePhaseEncodingDirection": "COL",
      "MRAcquisitionType": "2D",
      "MagneticFieldStrength": 3.0,
      "Manufacturer": "SIEMENS",
      "ManufacturerModelName": "Prisma_fit",
      "Modality": "MR",
      "NumberOfAverages": 1.0,
      "NumberOfPhaseEncodingSteps": 104,
      "PercentPhaseFieldOfView": 100.0,
      "PercentSampling": 100.0,
      "PerformedProcedureStepStartTime": "175201.856000",
      "PhotometricInterpretation": "MONOCHROME2",
      "PixelBandwidth": 2290.0,
      "PixelRepresentation": 0,
      "PixelSpacing": [2.0, 2.0],
      "ProtocolName": "func_task-s01e17b",
      "RepetitionTime": 1490.0,
      "Rows": 832,
      "SAR": 0.03395087644793,
      "SamplesPerPixel": 1,
      "ScanOptions": "FS",
      "ScanningSequence": "EP",
      "SequenceName": "epfid2d1_104",
      "SequenceVariant": [
        "SK",
        "SS"
],
      "SeriesDescription": "func_task-s01e17b",
      "SeriesNumber": 27,
      "SeriesTime": "200516.738000",
      "SliceLocation": -39.423466291466,
      "SliceThickness": 2.0,
      "SmallestImagePixelValue": 0,
      "SoftwareVersions": "syngo MR E11",
      "SpacingBetweenSlices": 1.9999999355403,
      "SpecificCharacterSet": "ISO_IR 100",
      "StudyID": "1",
      "StudyTime": "175201.699000",
      "TransmitCoilName": "Body",
      "VariableFlipAngleFlag": "N",
      "WindowCenterWidthExplanation": "Algo1",
      "dBdt": 0.0},
    "slices": {}
  },
  "time": {
    "samples": {
      "AcquisitionNumber": [1, 2, 3, 4, 5, 6, 7, 8, 9, 10, 11, 12, 13, 14, 15, 16, 17, 18, 19, 20, 21, 22, 23, 24, 25, 26, 27, 28, 29, 30, 31, 32, 33, 34, 35, 36, 37, 38, 39, 40, 41, 42, 43, 44, 45, 46, 47, 48, 49, 50, 51, 52, 53, 54, 55, 56, 57, 58, 59, 60, 61, 62, 63, 64, 65, 66, 67, 68, 69, 70, 71, 72, 73, 74, 75, 76, 77, 78, 79, 80, 81, 82, 83, 84, 85, 86, 87, 88, 89, 90, 91, 92, 93, 94, 95, 96, 97, 98, 99, 100, 101, 102, 103, 104, 105, 106, 107, 108, 109, 110, 111, 112, 113, 114, 115, 116, 117, 118, 119, 120, 121, 122, 123, 124, 125, 126, 127, 128, 129, 130, 131, 132, 133, 134, 135, 136, 137, 138, 139, 140, 141, 142, 143, 144, 145, 146, 147, 148, 149, 150, 151, 152, 153, 154, 155, 156, 157, 158, 159, 160, 161, 162, 163, 164, 165, 166, 167, 168, 169, 170, 171, 172, 173, 174, 175, 176, 177, 178, 179, 180, 181, 182, 183, 184, 185, 186, 187, 188, 189, 190, 191, 192, 193, 194, 195, 196, 197, 198, 199, 200, 201, 202, 203, 204, 205, 206, 207, 208, 209, 210, 211, 212, 213, 214, 215, 216, 217, 218, 219, 220, 221, 222, 223, 224, 225, 226, 227, 228, 229, 230, 231, 232, 233, 234, 235, 236, 237, 238, 239, 240, 241, 242, 243, 244, 245, 246, 247, 248, 249, 250, 251, 252, 253, 254, 255, 256, 257, 258, 259, 260, 261, 262, 263, 264, 265, 266, 267, 268, 269, 270, 271, 272, 273, 274, 275, 276, 277, 278, 279, 280, 281, 282, 283, 284, 285, 286, 287, 288, 289, 290, 291, 292, 293, 294, 295, 296, 297, 298, 299, 300, 301, 302, 303, 304, 305, 306, 307, 308, 309, 310, 311, 312, 313, 314, 315, 316, 317, 318, 319, 320, 321, 322, 323, 324, 325, 326, 327, 328, 329, 330, 331, 332, 333, 334, 335, 336, 337, 338, 339, 340, 341, 342, 343, 344, 345, 346, 347, 348, 349, 350, 351, 352, 353, 354, 355, 356, 357, 358, 359, 360, 361, 362, 363, 364, 365, 366, 367, 368, 369, 370, 371, 372, 373, 374, 375, 376, 377, 378, 379, 380, 381, 382, 383, 384, 385, 386, 387, 388, 389, 390, 391, 392, 393, 394, 395, 396, 397, 398, 399, 400, 401, 402, 403, 404, 405, 406, 407, 408, 409, 410, 411, 412, 413, 414, 415, 416, 417, 418, 419, 420, 421, 422, 423, 424, 425, 426, 427, 428, 429, 430, 431, 432, 433, 434, 435, 436, 437, 438, 439, 440, 441, 442, 443, 444, 445, 446, 447, 448, 449, 450, 451, 452, 453, 454, 455, 456, 457, 458, 459, 460, 461, 462, 463, 464, 465, 466, 467, 468, 469, 470, 471, 472, 473, 474, 475, 476, 477, 478, 479, 480, 481, 482, 483],
      "AcquisitionTime": ["200354.782500", "200356.272500", "200357.762500", "200359.252500", "200400.742500", "200402.232500", "200403.722500", "200405.212500", "200406.702500", "200408.192500", "200409.682500", "200411.172500", "200412.662500", "200414.152500", "200415.642500", "200417.132500", "200418.622500", "200420.112500", "200421.602500", "200423.092500", "200424.582500", "200426.072500", "200427.562500", "200429.052500", "200430.542500", "200432.032500", "200433.522500", "200435.012500", "200436.502500", "200437.992500", "200439.482500", "200440.972500", "200442.462500", "200443.952500", "200445.442500", "200446.932500", "200448.422500", "200449.912500", "200451.402500", "200452.892500", "200454.382500", "200455.872500", "200457.362500", "200458.852500", "200500.342500", "200501.832500", "200503.322500", "200504.812500", "200506.302500", "200507.792500", "200509.282500", "200510.772500", "200512.262500", "200513.752500", "200515.242500", "200516.732500", "200518.222500", "200519.712500", "200521.202500", "200522.692500", "200524.182500", "200525.672500", "200527.162500", "200528.652500", "200530.142500", "200531.632500", "200533.122500", "200534.612500", "200536.102500", "200537.592500", "200539.082500", "200540.572500", "200542.062500", "200543.552500", "200545.042500", "200546.532500", "200548.022500", "200549.512500", "200551.002500", "200552.492500", "200553.982500", "200555.472500", "200556.962500", "200558.452500", "200559.942500", "200601.432500", "200602.922500", "200604.412500", "200605.902500", "200607.392500", "200608.882500", "200610.372500", "200611.862500", "200613.352500", "200614.842500", "200616.332500", "200617.822500", "200619.312500", "200620.802500", "200622.292500", "200623.782500", "200625.272500", "200626.762500", "200628.252500", "200629.742500", "200631.232500", "200632.722500", "200634.212500", "200635.702500", "200637.192500", "200638.682500", "200640.172500", "200641.662500", "200643.152500", "200644.642500", "200646.132500", "200647.622500", "200649.112500", "200650.602500", "200652.092500", "200653.582500", "200655.072500", "200656.562500", "200658.052500", "200659.542500", "200701.032500", "200702.522500", "200704.012500", "200705.502500", "200706.992500", "200708.482500", "200709.972500", "200711.462500", "200712.952500", "200714.442500", "200715.932500", "200717.422500", "200718.912500", "200720.402500", "200721.892500", "200723.382500", "200724.872500", "200726.362500", "200727.852500", "200729.342500", "200730.832500", "200732.322500", "200733.812500", "200735.302500", "200736.792500", "200738.282500", "200739.772500", "200741.262500", "200742.752500", "200744.242500", "200745.732500", "200747.222500", "200748.712500", "200750.202500", "200751.692500", "200753.182500", "200754.672500", "200756.162500", "200757.652500", "200759.142500", "200800.632500", "200802.122500", "200803.612500", "200805.102500", "200806.592500", "200808.082500", "200809.572500", "200811.062500", "200812.552500", "200814.042500", "200815.532500", "200817.022500", "200818.512500", "200820.002500", "200821.492500", "200822.982500", "200824.472500", "200825.962500", "200827.452500", "200828.942500", "200830.432500", "200831.922500", "200833.412500", "200834.902500", "200836.392500", "200837.882500", "200839.372500", "200840.862500", "200842.352500", "200843.842500", "200845.332500", "200846.822500", "200848.312500", "200849.802500", "200851.292500", "200852.782500", "200854.272500", "200855.762500", "200857.252500", "200858.742500", "200900.232500", "200901.722500", "200903.212500", "200904.702500", "200906.192500", "200907.682500", "200909.172500", "200910.662500", "200912.152500", "200913.642500", "200915.132500", "200916.622500", "200918.112500", "200919.602500", "200921.092500", "200922.582500", "200924.072500", "200925.562500", "200927.052500", "200928.542500", "200930.032500", "200931.522500", "200933.012500", "200934.502500", "200935.992500", "200937.482500", "200938.972500", "200940.462500", "200941.952500", "200943.442500", "200944.932500", "200946.422500", "200947.912500", "200949.402500", "200950.892500", "200952.382500", "200953.872500", "200955.362500", "200956.852500", "200958.342500", "200959.832500", "201001.322500", "201002.812500", "201004.302500", "201005.792500", "201007.282500", "201008.772500", "201010.262500", "201011.752500", "201013.242500", "201014.732500", "201016.222500", "201017.712500", "201019.202500", "201020.692500", "201022.182500", "201023.672500", "201025.162500", "201026.652500", "201028.142500", "201029.632500", "201031.122500", "201032.612500", "201034.102500", "201035.592500", "201037.082500", "201038.572500", "201040.062500", "201041.552500", "201043.042500", "201044.532500", "201046.022500", "201047.512500", "201049.002500", "201050.492500", "201051.982500", "201053.472500", "201054.962500", "201056.452500", "201057.942500", "201059.432500", "201100.922500", "201102.412500", "201103.902500", "201105.392500", "201106.882500", "201108.372500", "201109.862500", "201111.352500", "201112.842500", "201114.332500", "201115.822500", "201117.312500", "201118.802500", "201120.292500", "201121.782500", "201123.272500", "201124.762500", "201126.252500", "201127.742500", "201129.232500", "201130.722500", "201132.212500", "201133.702500", "201135.192500", "201136.682500", "201138.172500", "201139.662500", "201141.152500", "201142.642500", "201144.132500", "201145.622500", "201147.112500", "201148.602500", "201150.092500", "201151.582500", "201153.072500", "201154.562500", "201156.052500", "201157.542500", "201159.032500", "201200.522500", "201202.012500", "201203.502500", "201204.992500", "201206.482500", "201207.972500", "201209.462500", "201210.952500", "201212.442500", "201213.932500", "201215.422500", "201216.912500", "201218.402500", "201219.892500", "201221.382500", "201222.872500", "201224.362500", "201225.852500", "201227.342500", "201228.832500", "201230.322500", "201231.812500", "201233.302500", "201234.792500", "201236.282500", "201237.772500", "201239.262500", "201240.752500", "201242.242500", "201243.732500", "201245.222500", "201246.712500", "201248.202500", "201249.692500", "201251.182500", "201252.672500", "201254.162500", "201255.652500", "201257.142500", "201258.632500", "201300.122500", "201301.612500", "201303.102500", "201304.592500", "201306.082500", "201307.572500", "201309.062500", "201310.552500", "201312.042500", "201313.532500", "201315.022500", "201316.512500", "201318.002500", "201319.492500", "201320.982500", "201322.472500", "201323.962500", "201325.452500", "201326.942500", "201328.432500", "201329.922500", "201331.412500", "201332.902500", "201334.392500", "201335.882500", "201337.372500", "201338.862500", "201340.352500", "201341.842500", "201343.332500", "201344.822500", "201346.312500", "201347.802500", "201349.292500", "201350.782500", "201352.272500", "201353.762500", "201355.252500", "201356.742500", "201358.232500", "201359.722500", "201401.212500", "201402.702500", "201404.192500", "201405.682500", "201407.172500", "201408.662500", "201410.152500", "201411.642500", "201413.132500", "201414.622500", "201416.112500", "201417.602500", "201419.092500", "201420.582500", "201422.072500", "201423.562500", "201425.052500", "201426.542500", "201428.032500", "201429.522500", "201431.012500", "201432.502500", "201433.992500", "201435.482500", "201436.972500", "201438.462500", "201439.952500", "201441.442500", "201442.932500", "201444.422500", "201445.912500", "201447.402500", "201448.892500", "201450.382500", "201451.872500", "201453.362500", "201454.852500", "201456.342500", "201457.832500", "201459.322500", "201500.812500", "201502.302500", "201503.792500", "201505.282500", "201506.772500", "201508.262500", "201509.752500", "201511.242500", "201512.732500", "201514.222500", "201515.712500", "201517.202500", "201518.692500", "201520.182500", "201521.672500", "201523.162500", "201524.652500", "201526.142500", "201527.632500", "201529.122500", "201530.612500", "201532.102500", "201533.592500", "201535.082500", "201536.572500", "201538.062500", "201539.552500", "201541.042500", "201542.532500", "201544.022500", "201545.512500", "201547.002500", "201548.492500", "201549.982500", "201551.472500", "201552.962500"],
      "ContentTime": ["200516.741000", "200516.744000", "200516.747000", "200516.750000", "200516.752000", "200516.755000", "200516.758000", "200516.761000", "200516.764000", "200516.767000", "200516.769000", "200516.772000", "200516.775000", "200516.778000", "200516.781000", "200516.783000", "200516.790000", "200516.793000", "200516.796000", "200516.798000", "200516.801000", "200516.804000", "200516.807000", "200516.810000", "200516.812000", "200516.815000", "200516.818000", "200516.821000", "200536.704000", "200536.707000", "200536.710000", "200536.712000", "200536.715000", "200536.718000", "200536.721000", "200536.724000", "200536.726000", "200536.729000", "200536.732000", "200536.738000", "200536.740000", "200536.745000", "200536.748000", "200536.750000", "200536.753000", "200536.756000", "200536.759000", "200536.762000", "200556.704000", "200556.713000", "200556.716000", "200556.719000", "200556.721000", "200556.724000", "200556.727000", "200556.730000", "200556.733000", "200556.735000", "200556.738000", "200556.741000", "200556.744000", "200556.747000", "200556.749000", "200556.752000", "200556.755000", "200556.758000", "200556.761000", "200556.763000", "200616.705000", "200616.708000", "200616.711000", "200616.713000", "200616.716000", "200616.719000", "200616.722000", "200616.724000", "200616.728000", "200616.731000", "200616.733000", "200616.736000", "200616.739000", "200616.742000", "200616.745000", "200616.748000", "200616.750000", "200616.753000", "200616.756000", "200616.759000", "200636.705000", "200636.708000", "200636.711000", "200636.713000", "200636.716000", "200636.719000", "200636.722000", "200636.725000", "200636.728000", "200636.730000", "200636.733000", "200636.736000", "200636.739000", "200636.741000", "200636.744000", "200636.747000", "200636.750000", "200636.753000", "200636.756000", "200636.768000", "200716.704000", "200716.708000", "200716.711000", "200716.714000", "200716.716000", "200716.719000", "200716.722000", "200716.725000", "200716.728000", "200716.730000", "200716.733000", "200716.736000", "200716.739000", "200716.742000", "200716.745000", "200716.747000", "200716.750000", "200716.753000", "200716.758000", "200716.761000", "200716.764000", "200716.766000", "200716.769000", "200716.772000", "200716.775000", "200716.778000", "200756.704000", "200756.707000", "200756.710000", "200756.712000", "200756.715000", "200756.718000", "200756.721000", "200756.724000", "200756.726000", "200756.729000", "200756.732000", "200756.735000", "200756.738000", "200756.740000", "200756.743000", "200756.746000", "200756.749000", "200756.752000", "200756.755000", "200756.757000", "200756.760000", "200756.763000", "200756.766000", "200756.769000", "200756.772000", "200756.774000", "200756.777000", "200836.705000", "200836.708000", "200836.711000", "200836.713000", "200836.716000", "200836.719000", "200836.722000", "200836.725000", "200836.727000", "200836.730000", "200836.733000", "200836.736000", "200836.752000", "200836.755000", "200836.758000", "200836.761000", "200836.764000", "200836.766000", "200836.769000", "200836.772000", "200836.775000", "200836.778000", "200836.780000", "200836.783000", "200836.786000", "200836.789000", "200836.792000", "200916.704000", "200916.707000", "200916.719000", "200916.721000", "200916.724000", "200916.727000", "200916.730000", "200916.733000", "200916.735000", "200916.738000", "200916.741000", "200916.744000", "200916.747000", "200916.750000", "200916.752000", "200916.755000", "200916.758000", "200916.761000", "200916.764000", "200916.766000", "200916.769000", "200916.772000", "200916.775000", "200916.778000", "200916.780000", "200916.783000", "200916.786000", "200956.704000", "200956.707000", "200956.710000", "200956.712000", "200956.715000", "200956.718000", "200956.721000", "200956.724000", "200956.727000", "200956.729000", "200956.732000", "200956.735000", "200956.738000", "200956.741000", "200956.744000", "200956.746000", "200956.749000", "200956.752000", "200956.755000", "200956.758000", "200956.760000", "200956.763000", "200956.766000", "200956.769000", "200956.772000", "200956.775000", "200956.777000", "201036.704000", "201036.707000", "201036.710000", "201036.713000", "201036.716000", "201036.719000", "201036.721000", "201036.724000", "201036.727000", "201036.730000", "201036.733000", "201036.735000", "201036.738000", "201036.741000", "201036.744000", "201036.747000", "201036.750000", "201036.753000", "201036.755000", "201036.758000", "201036.761000", "201036.764000", "201036.767000", "201036.769000", "201036.772000", "201036.775000", "201036.778000", "201116.705000", "201116.708000", "201116.711000", "201116.714000", "201116.716000", "201116.719000", "201116.722000", "201116.725000", "201116.728000", "201116.730000", "201116.733000", "201116.736000", "201116.739000", "201116.742000", "201116.745000", "201116.748000", "201116.750000", "201116.753000", "201116.756000", "201116.759000", "201116.762000", "201116.764000", "201116.767000", "201116.770000", "201116.773000", "201116.776000", "201116.779000", "201156.704000", "201156.707000", "201156.710000", "201156.713000", "201156.715000", "201156.718000", "201156.721000", "201156.724000", "201156.727000", "201156.729000", "201156.732000", "201156.735000", "201156.738000", "201156.741000", "201156.744000", "201156.747000", "201156.749000", "201156.752000", "201156.755000", "201156.758000", "201156.761000", "201156.764000", "201156.766000", "201156.769000", "201156.772000", "201156.775000", "201236.704000", "201236.707000", "201236.710000", "201236.713000", "201236.715000", "201236.718000", "201236.721000", "201236.724000", "201236.727000", "201236.730000", "201236.732000", "201236.735000", "201236.738000", "201236.741000", "201236.744000", "201236.747000", "201236.749000", "201236.752000", "201236.755000", "201236.758000", "201236.761000", "201236.763000", "201236.766000", "201236.769000", "201236.772000", "201236.775000", "201236.778000", "201316.705000", "201316.708000", "201316.711000", "201316.714000", "201316.717000", "201316.719000", "201316.722000", "201316.725000", "201316.728000", "201316.731000", "201316.734000", "201316.736000", "201316.750000", "201316.753000", "201316.756000", "201316.759000", "201316.762000", "201316.765000", "201316.767000", "201316.770000", "201316.773000", "201316.776000", "201316.779000", "201316.782000", "201316.785000", "201316.788000", "201316.791000", "201356.704000", "201356.707000", "201356.710000", "201356.713000", "201356.716000", "201356.719000", "201356.721000", "201356.724000", "201356.727000", "201356.730000", "201356.733000", "201356.736000", "201356.739000", "201356.741000", "201356.744000", "201356.747000", "201356.750000", "201356.753000", "201356.756000", "201356.759000", "201356.762000", "201356.765000", "201356.767000", "201356.771000", "201356.773000", "201356.776000", "201356.779000", "201436.704000", "201436.707000", "201436.710000", "201436.712000", "201436.715000", "201436.718000", "201436.721000", "201436.724000", "201436.727000", "201436.729000", "201436.732000", "201436.735000", "201436.738000", "201436.741000", "201436.744000", "201436.747000", "201436.749000", "201436.752000", "201436.755000", "201436.758000", "201436.761000", "201436.764000", "201436.766000", "201436.769000", "201436.772000", "201436.775000", "201436.778000", "201516.705000", "201516.708000", "201516.711000", "201516.714000", "201516.717000", "201516.719000", "201516.722000", "201516.725000", "201516.728000", "201516.731000", "201516.733000", "201516.736000", "201516.739000", "201516.742000", "201516.745000", "201516.748000", "201516.750000", "201516.753000", "201516.756000", "201516.759000", "201516.762000", "201516.764000", "201516.767000", "201516.770000", "201516.773000", "201516.776000", "201516.779000", "201555.266000", "201555.269000", "201555.272000", "201555.275000", "201555.278000", "201555.281000", "201555.284000", "201555.287000", "201555.290000", "201555.292000", "201555.295000", "201555.298000", "201555.301000", "201555.304000", "201555.307000", "201555.310000", "201555.312000", "201555.315000", "201555.318000", "201555.321000", "201555.324000", "201555.327000", "201555.330000", "201555.333000", "201555.336000", "201555.338000"],
