{
  "AcquisitionMatrixPE": 104,
  "AcquisitionNumber": 1,
  "AcquisitionTime": "17:14:13.512500",
  "BandwidthPerPixelPhaseEncode": 17.17,
  "BaseResolution": 104,
  "BodyPartExamined": "BRAIN",
  "CoilString": "HC1-7;NC1_2",
  "ConsistencyInfo": "N4_VE11C_LATEST_20160120",
  "ConversionSoftware": "dcm2niix",
  "ConversionSoftwareVersion": "v1.0.20190902",
  "DerivedVendorReportedEchoSpacing": 0.000560011,
  "DeviceSerialNumber": "167006",
  "DwellTime": 2.1e-06,
  "EchoTime": 0.037,
  "EchoTrainLength": 104,
  "EffectiveEchoSpacing": 0.000560011,
  "FlipAngle": 52,
  "ImageComments": "Unaliased_MB4_PE3_LB",
  "ImageOrientationPatientDICOM": [0.99979, -0.020054, -0.00432286, 0.0169278, 0.925497, -0.378377],
  "ImageType": [
    "ORIGINAL",
    "PRIMARY",
    "M",
    "MB",
    "ND",
    "MOSAIC"
],
  "ImagingFrequency": 123.259,
  "InPlanePhaseEncodingDirectionDICOM": "COL",
  "InstitutionAddress": "Chemin_Queen-Mary_4565_Montreal_District_CA_H3W_1W5",
  "InstitutionName": "IUGM",
  "InstitutionalDepartmentName": "Department",
  "MRAcquisitionType": "2D",
  "MagneticFieldStrength": 3,
  "Manufacturer": "Siemens",
  "ManufacturersModelName": "Prisma_fit",
  "Modality": "MR",
  "MultibandAccelerationFactor": 4,
  "PartialFourier": 1,
  "PatientPosition": "HFS",
  "PercentPhaseFOV": 100,
  "PhaseEncodingDirection": "j",
  "PhaseEncodingSteps": 104,
  "PhaseResolution": 1,
  "PixelBandwidth": 2290,
  "ProcedureStepDescription": "video_friends",
  "ProtocolName": "func_task-friends-s03e22a",
  "PulseSequenceDetails": "%CustomerSeq%_cmrr_mbep2d_bold",
  "ReceiveCoilActiveElements": "HC1-7;NC1,2",
  "ReceiveCoilName": "HeadNeck_64",
  "ReconMatrixPE": 104,
  "RepetitionTime": 1.49,
  "SAR": 0.0338717,
  "ScanOptions": "FS",
  "ScanningSequence": "EP",
  "SequenceName": "epfid2d1_104",
  "SequenceVariant": "SK_SS",
  "SeriesDescription": "func_task-friends-s03e22a",
  "SeriesNumber": 9,
  "ShimSetting": [617, -7300, -8814, 411, 16, -455, 61, 25],
  "SliceThickness": 2,
  "SliceTiming": [0, 0.785, 0.0975, 0.8825, 0.1975, 0.98, 0.295, 1.0775, 0.3925, 1.1775, 0.49, 1.275, 0.5875, 1.3725, 0.6875, 0, 0.785, 0.0975, 0.8825, 0.1975, 0.98, 0.295, 1.0775, 0.3925, 1.1775, 0.49, 1.275, 0.5875, 1.3725, 0.6875, 0, 0.785, 0.0975, 0.8825, 0.1975, 0.98, 0.295, 1.0775, 0.3925, 1.1775, 0.49, 1.275, 0.5875, 1.3725, 0.6875, 0, 0.785, 0.0975, 0.8825, 0.1975, 0.98, 0.295, 1.0775, 0.3925, 1.1775, 0.49, 1.275, 0.5875, 1.3725, 0.6875],
  "SoftwareVersions": "syngo_MR_E11",
  "SpacingBetweenSlices": 2,
  "StationName": "MRC35049",
  "TaskName": "s03e22a",
  "TotalReadoutTime": 0.0576811,
  "TxRefAmp": 237.562,
  "WipMemBlock": "4a7808a8-4c07-4513-bb0c-a7cb3485bd12||Sequence: R016 ve11c/master r/e634e98; Dec 19 2017 11:00:25 by eja",
  "dcmmeta_affine": [
    [-1.9995790719985962, 0.03385554999113083, -0.02317752316594124, 98.8597412109375],
    [0.04010794684290886, 1.850993275642395, -0.7564489245414734, -70.86030578613281],
    [-0.008645722642540932, 0.7567545771598816, 1.8512827157974243, -59.59523010253906],
    [0.0, 0.0, 0.0, 1.0]
],
  "dcmmeta_reorient_transform": [
    [0.0, -1.0, 0.0, 103.0],
    [1.0, 0.0, 0.0, 0.0],
    [0.0, 0.0, 1.0, 0.0],
    [0.0, 0.0, 0.0, 1.0]
],
  "dcmmeta_shape": [104, 104, 60, 463],
  "dcmmeta_slice_dim": 2,
  "dcmmeta_version": 0.6,
  "global": {
    "const": {
      "AcquisitionMatrix": [104, 0, 0, 104],
      "AngioFlag": "N",
      "BitsAllocated": 16,
      "BitsStored": 16,
      "BodyPartExamined": "BRAIN",
      "Columns": 832,
      "EchoNumbers": 1,
      "EchoTime": 37.0,
      "EchoTrainLength": 104,
      "FlipAngle": 52.0,
      "HighBit": 15,
      "ImageOrientationPatient": [0.99978955337876, -0.020053972752, -0.0043228615027, 0.01692777475366, 0.92549666756942, -0.3783772836202],
      "ImagePositionPatient": [-842.51708145243, -778.95429292853, 296.95619573004],
      "ImageType": [
        "ORIGINAL",
        "PRIMARY",
        "M",
        "MB",
        "ND",
        "MOSAIC"
],
      "ImagedNucleus": "1H",
      "ImagingFrequency": 123.258905,
      "InPlanePhaseEncodingDirection": "COL",
      "MRAcquisitionType": "2D",
      "MagneticFieldStrength": 3.0,
      "Manufacturer": "SIEMENS",
      "ManufacturerModelName": "Prisma_fit",
      "Modality": "MR",
      "NumberOfAverages": 1.0,
      "NumberOfPhaseEncodingSteps": 104,
      "PercentPhaseFieldOfView": 100.0,
      "PercentSampling": 100.0,
      "PerformedProcedureStepStartTime": "165348.652000",
      "PhotometricInterpretation": "MONOCHROME2",
      "PixelBandwidth": 2290.0,
      "PixelRepresentation": 0,
      "PixelSpacing": [2.0, 2.0],
      "ProtocolName": "func_task-friends-s03e22a",
      "RepetitionTime": 1490.0,
      "Rows": 832,
      "SAR": 0.03387168049926,
      "SamplesPerPixel": 1,
      "ScanOptions": "FS",
      "ScanningSequence": "EP",
      "SequenceName": "epfid2d1_104",
      "SequenceVariant": [
        "SK",
        "SS"
],
      "SeriesDescription": "func_task-friends-s03e22a",
      "SeriesNumber": 9,
      "SeriesTime": "171550.700000",
      "SliceLocation": -29.50837166541,
      "SliceThickness": 2.0,
      "SmallestImagePixelValue": 0,
      "SoftwareVersions": "syngo MR E11",
      "SpacingBetweenSlices": 1.9999999417858,
      "SpecificCharacterSet": "ISO_IR 100",
      "StudyID": "1",
      "StudyTime": "165348.498000",
      "TransmitCoilName": "Body",
      "VariableFlipAngleFlag": "N",
      "WindowCenterWidthExplanation": "Algo1",
      "dBdt": 0.0},
    "slices": {}
  },
  "time": {
    "samples": {
      "AcquisitionNumber": [1, 2, 3, 4, 5, 6, 7, 8, 9, 10, 11, 12, 13, 14, 15, 16, 17, 18, 19, 20, 21, 22, 23, 24, 25, 26, 27, 28, 29, 30, 31, 32, 33, 34, 35, 36, 37, 38, 39, 40, 41, 42, 43, 44, 45, 46, 47, 48, 49, 50, 51, 52, 53, 54, 55, 56, 57, 58, 59, 60, 61, 62, 63, 64, 65, 66, 67, 68, 69, 70, 71, 72, 73, 74, 75, 76, 77, 78, 79, 80, 81, 82, 83, 84, 85, 86, 87, 88, 89, 90, 91, 92, 93, 94, 95, 96, 97, 98, 99, 100, 101, 102, 103, 104, 105, 106, 107, 108, 109, 110, 111, 112, 113, 114, 115, 116, 117, 118, 119, 120, 121, 122, 123, 124, 125, 126, 127, 128, 129, 130, 131, 132, 133, 134, 135, 136, 137, 138, 139, 140, 141, 142, 143, 144, 145, 146, 147, 148, 149, 150, 151, 152, 153, 154, 155, 156, 157, 158, 159, 160, 161, 162, 163, 164, 165, 166, 167, 168, 169, 170, 171, 172, 173, 174, 175, 176, 177, 178, 179, 180, 181, 182, 183, 184, 185, 186, 187, 188, 189, 190, 191, 192, 193, 194, 195, 196, 197, 198, 199, 200, 201, 202, 203, 204, 205, 206, 207, 208, 209, 210, 211, 212, 213, 214, 215, 216, 217, 218, 219, 220, 221, 222, 223, 224, 225, 226, 227, 228, 229, 230, 231, 232, 233, 234, 235, 236, 237, 238, 239, 240, 241, 242, 243, 244, 245, 246, 247, 248, 249, 250, 251, 252, 253, 254, 255, 256, 257, 258, 259, 260, 261, 262, 263, 264, 265, 266, 267, 268, 269, 270, 271, 272, 273, 274, 275, 276, 277, 278, 279, 280, 281, 282, 283, 284, 285, 286, 287, 288, 289, 290, 291, 292, 293, 294, 295, 296, 297, 298, 299, 300, 301, 302, 303, 304, 305, 306, 307, 308, 309, 310, 311, 312, 313, 314, 315, 316, 317, 318, 319, 320, 321, 322, 323, 324, 325, 326, 327, 328, 329, 330, 331, 332, 333, 334, 335, 336, 337, 338, 339, 340, 341, 342, 343, 344, 345, 346, 347, 348, 349, 350, 351, 352, 353, 354, 355, 356, 357, 358, 359, 360, 361, 362, 363, 364, 365, 366, 367, 368, 369, 370, 371, 372, 373, 374, 375, 376, 377, 378, 379, 380, 381, 382, 383, 384, 385, 386, 387, 388, 389, 390, 391, 392, 393, 394, 395, 396, 397, 398, 399, 400, 401, 402, 403, 404, 405, 406, 407, 408, 409, 410, 411, 412, 413, 414, 415, 416, 417, 418, 419, 420, 421, 422, 423, 424, 425, 426, 427, 428, 429, 430, 431, 432, 433, 434, 435, 436, 437, 438, 439, 440, 441, 442, 443, 444, 445, 446, 447, 448, 449, 450, 451, 452, 453, 454, 455, 456, 457, 458, 459, 460, 461, 462, 463],
      "AcquisitionTime": ["171413.512500", "171415.002500", "171416.492500", "171417.982500", "171419.472500", "171420.962500", "171422.452500", "171423.942500", "171425.432500", "171426.922500", "171428.412500", "171429.902500", "171431.392500", "171432.882500", "171434.372500", "171435.862500", "171437.352500", "171438.842500", "171440.332500", "171441.822500", "171443.312500", "171444.802500", "171446.292500", "171447.782500", "171449.272500", "171450.762500", "171452.252500", "171453.742500", "171455.232500", "171456.722500", "171458.212500", "171459.702500", "171501.192500", "171502.682500", "171504.172500", "171505.662500", "171507.152500", "171508.642500", "171510.132500", "171511.622500", "171513.112500", "171514.602500", "171516.092500", "171517.582500", "171519.072500", "171520.562500", "171522.052500", "171523.542500", "171525.032500", "171526.522500", "171528.012500", "171529.502500", "171530.992500", "171532.482500", "171533.972500", "171535.462500", "171536.952500", "171538.442500", "171539.932500", "171541.422500", "171542.912500", "171544.402500", "171545.892500", "171547.382500", "171548.872500", "171550.362500", "171551.852500", "171553.342500", "171554.832500", "171556.322500", "171557.812500", "171559.302500", "171600.792500", "171602.282500", "171603.772500", "171605.262500", "171606.752500", "171608.242500", "171609.732500", "171611.222500", "171612.712500", "171614.202500", "171615.692500", "171617.182500", "171618.672500", "171620.162500", "171621.652500", "171623.142500", "171624.632500", "171626.122500", "171627.612500", "171629.102500", "171630.592500", "171632.082500", "171633.572500", "171635.062500", "171636.552500", "171638.042500", "171639.532500", "171641.022500", "171642.512500", "171644.002500", "171645.492500", "171646.982500", "171648.472500", "171649.962500", "171651.452500", "171652.942500", "171654.432500", "171655.922500", "171657.412500", "171658.902500", "171700.392500", "171701.882500", "171703.372500", "171704.862500", "171706.352500", "171707.842500", "171709.332500", "171710.822500", "171712.312500", "171713.802500", "171715.292500", "171716.782500", "171718.272500", "171719.762500", "171721.252500", "171722.742500", "171724.232500", "171725.722500", "171727.212500", "171728.702500", "171730.192500", "171731.682500", "171733.172500", "171734.662500", "171736.152500", "171737.642500", "171739.132500", "171740.622500", "171742.112500", "171743.602500", "171745.092500", "171746.582500", "171748.072500", "171749.562500", "171751.052500", "171752.542500", "171754.032500", "171755.522500", "171757.012500", "171758.502500", "171759.992500", "171801.482500", "171802.972500", "171804.462500", "171805.952500", "171807.442500", "171808.932500", "171810.422500", "171811.912500", "171813.402500", "171814.892500", "171816.382500", "171817.872500", "171819.362500", "171820.852500", "171822.342500", "171823.832500", "171825.322500", "171826.812500", "171828.302500", "171829.792500", "171831.282500", "171832.772500", "171834.262500", "171835.752500", "171837.242500", "171838.732500", "171840.222500", "171841.712500", "171843.202500", "171844.692500", "171846.182500", "171847.672500", "171849.162500", "171850.652500", "171852.142500", "171853.632500", "171855.122500", "171856.612500", "171858.102500", "171859.592500", "171901.082500", "171902.572500", "171904.062500", "171905.552500", "171907.042500", "171908.532500", "171910.022500", "171911.512500", "171913.002500", "171914.492500", "171915.982500", "171917.472500", "171918.962500", "171920.452500", "171921.942500", "171923.432500", "171924.922500", "171926.412500", "171927.902500", "171929.392500", "171930.882500", "171932.372500", "171933.862500", "171935.352500", "171936.842500", "171938.332500", "171939.822500", "171941.312500", "171942.802500", "171944.292500", "171945.782500", "171947.272500", "171948.762500", "171950.252500", "171951.742500", "171953.232500", "171954.722500", "171956.212500", "171957.702500", "171959.192500", "172000.682500", "172002.172500", "172003.662500", "172005.152500", "172006.642500", "172008.132500", "172009.622500", "172011.112500", "172012.602500", "172014.092500", "172015.582500", "172017.072500", "172018.562500", "172020.052500", "172021.542500", "172023.032500", "172024.522500", "172026.012500", "172027.502500", "172028.992500", "172030.482500", "172031.972500", "172033.462500", "172034.952500", "172036.442500", "172037.932500", "172039.422500", "172040.912500", "172042.402500", "172043.892500", "172045.382500", "172046.872500", "172048.362500", "172049.852500", "172051.342500", "172052.832500", "172054.322500", "172055.812500", "172057.302500", "172058.792500", "172100.282500", "172101.772500", "172103.262500", "172104.752500", "172106.242500", "172107.732500", "172109.222500", "172110.712500", "172112.202500", "172113.692500", "172115.182500", "172116.672500", "172118.162500", "172119.652500", "172121.142500", "172122.632500", "172124.122500", "172125.612500", "172127.102500", "172128.592500", "172130.082500", "172131.572500", "172133.062500", "172134.552500", "172136.042500", "172137.532500", "172139.022500", "172140.512500", "172142.002500", "172143.492500", "172144.982500", "172146.472500", "172147.962500", "172149.452500", "172150.942500", "172152.432500", "172153.922500", "172155.412500", "172156.902500", "172158.392500", "172159.882500", "172201.372500", "172202.862500", "172204.352500", "172205.842500", "172207.332500", "172208.822500", "172210.312500", "172211.802500", "172213.292500", "172214.782500", "172216.272500", "172217.762500", "172219.252500", "172220.742500", "172222.232500", "172223.722500", "172225.212500", "172226.702500", "172228.192500", "172229.682500", "172231.172500", "172232.662500", "172234.152500", "172235.642500", "172237.132500", "172238.622500", "172240.112500", "172241.602500", "172243.092500", "172244.582500", "172246.072500", "172247.562500", "172249.052500", "172250.542500", "172252.032500", "172253.522500", "172255.012500", "172256.502500", "172257.992500", "172259.482500", "172300.972500", "172302.462500", "172303.952500", "172305.442500", "172306.932500", "172308.422500", "172309.912500", "172311.402500", "172312.892500", "172314.382500", "172315.872500", "172317.362500", "172318.852500", "172320.342500", "172321.832500", "172323.322500", "172324.812500", "172326.302500", "172327.792500", "172329.282500", "172330.772500", "172332.262500", "172333.752500", "172335.242500", "172336.732500", "172338.222500", "172339.712500", "172341.202500", "172342.692500", "172344.182500", "172345.672500", "172347.162500", "172348.652500", "172350.142500", "172351.632500", "172353.122500", "172354.612500", "172356.102500", "172357.592500", "172359.082500", "172400.572500", "172402.062500", "172403.552500", "172405.042500", "172406.532500", "172408.022500", "172409.512500", "172411.002500", "172412.492500", "172413.982500", "172415.472500", "172416.962500", "172418.452500", "172419.942500", "172421.432500", "172422.922500", "172424.412500", "172425.902500", "172427.392500", "172428.882500", "172430.372500", "172431.862500", "172433.352500", "172434.842500", "172436.332500", "172437.822500", "172439.312500", "172440.802500", "172442.292500", "172443.782500", "172445.272500", "172446.762500", "172448.252500", "172449.742500", "172451.232500", "172452.722500", "172454.212500", "172455.702500", "172457.192500", "172458.682500", "172500.172500", "172501.662500", "172503.152500", "172504.642500", "172506.132500", "172507.622500", "172509.112500", "172510.602500", "172512.092500", "172513.582500", "172515.072500", "172516.562500", "172518.052500", "172519.542500", "172521.032500", "172522.522500", "172524.012500", "172525.502500", "172526.992500", "172528.482500", "172529.972500", "172531.462500", "172532.952500", "172534.442500", "172535.932500", "172537.422500", "172538.912500", "172540.402500", "172541.892500"],
      "ContentTime": ["171550.703000", "171550.707000", "171550.710000", "171550.712000", "171550.715000", "171550.718000", "171550.721000", "171550.724000", "171550.727000", "171550.730000", "171550.733000", "171550.735000", "171550.738000", "171550.741000", "171550.744000", "171550.747000", "171550.750000", "171550.753000", "171550.756000", "171550.759000", "171550.762000", "171630.663000", "171630.666000", "171630.669000", "171630.672000", "171630.675000", "171630.678000", "171630.681000", "171630.683000", "171630.690000", "171630.692000", "171630.695000", "171630.698000", "171630.701000", "171630.704000", "171630.707000", "171630.710000", "171630.713000", "171630.715000", "171630.718000", "171630.721000", "171630.724000", "171630.727000", "171630.730000", "171630.733000", "171630.736000", "171630.738000", "171630.741000", "171630.744000", "171630.747000", "171630.750000", "171630.753000", "171630.756000", "171630.759000", "171630.762000", "171630.765000", "171630.768000", "171630.771000", "171630.773000", "171630.776000", "171650.663000", "171650.666000", "171650.669000", "171650.672000", "171650.675000", "171650.677000", "171650.680000", "171650.683000", "171650.686000", "171650.689000", "171650.692000", "171650.695000", "171650.697000", "171650.700000", "171650.703000", "171650.706000", "171650.709000", "171650.712000", "171650.715000", "171650.718000", "171710.663000", "171710.666000", "171710.669000", "171710.672000", "171710.675000", "171710.685000", "171710.687000", "171710.690000", "171710.693000", "171710.696000", "171710.699000", "171710.702000", "171710.705000", "171710.708000", "171710.710000", "171710.713000", "171710.716000", "171710.719000", "171710.722000", "171710.725000", "171730.663000", "171730.666000", "171730.669000", "171730.672000", "171730.675000", "171730.677000", "171730.680000", "171730.683000", "171730.686000", "171730.689000", "171730.692000", "171730.695000", "171730.698000", "171730.701000", "171730.703000", "171730.706000", "171730.709000", "171730.712000", "171730.715000", "171730.718000", "171750.663000", "171750.666000", "171750.669000", "171750.672000", "171750.675000", "171750.678000", "171750.680000", "171750.683000", "171750.686000", "171750.689000", "171750.692000", "171750.695000", "171750.698000", "171750.701000", "171750.704000", "171750.706000", "171750.709000", "171750.712000", "171750.715000", "171750.718000", "171830.663000", "171830.666000", "171830.669000", "171830.672000", "171830.675000", "171830.678000", "171830.699000", "171830.702000", "171830.705000", "171830.708000", "171830.710000", "171830.713000", "171830.716000", "171830.719000", "171830.722000", "171830.725000", "171830.728000", "171830.731000", "171830.734000", "171830.736000", "171830.739000", "171830.742000", "171830.745000", "171830.748000", "171830.751000", "171830.754000", "171830.757000", "171830.760000", "171830.762000", "171830.765000", "171830.768000", "171830.771000", "171910.663000", "171910.666000", "171910.669000", "171910.672000", "171910.675000", "171910.678000", "171910.681000", "171910.684000", "171910.686000", "171910.689000", "171910.692000", "171910.695000", "171910.698000", "171910.701000", "171910.704000", "171910.707000", "171910.710000", "171910.713000", "171910.715000", "171910.718000", "171910.721000", "171910.724000", "171910.727000", "171910.730000", "171910.733000", "171910.736000", "171910.739000", "171950.663000", "171950.666000", "171950.669000", "171950.672000", "171950.675000", "171950.678000", "171950.681000", "171950.684000", "171950.686000", "171950.689000", "171950.692000", "171950.695000", "171950.698000", "171950.701000", "171950.704000", "171950.707000", "171950.710000", "171950.712000", "171950.715000", "171950.718000", "171950.721000", "171950.724000", "171950.727000", "171950.730000", "171950.733000", "171950.736000", "171950.739000", "172030.663000", "172030.667000", "172030.670000", "172030.673000", "172030.676000", "172030.679000", "172030.682000", "172030.685000", "172030.688000", "172030.690000", "172030.693000", "172030.696000", "172030.699000", "172030.702000", "172030.705000", "172030.708000", "172030.711000", "172030.714000", "172030.717000", "172030.720000", "172030.723000", "172030.726000", "172030.728000", "172030.731000", "172030.734000", "172030.737000", "172110.663000", "172110.666000", "172110.669000", "172110.672000", "172110.675000", "172110.678000", "172110.681000", "172110.683000", "172110.686000", "172110.689000", "172110.692000", "172110.695000", "172110.698000", "172110.701000", "172110.704000", "172110.707000", "172110.710000", "172110.712000", "172110.715000", "172110.718000", "172110.721000", "172110.724000", "172110.727000", "172110.730000", "172110.733000", "172110.736000", "172110.738000", "172150.663000", "172150.666000", "172150.669000", "172150.672000", "172150.675000", "172150.678000", "172150.681000", "172150.684000", "172150.687000", "172150.690000", "172150.693000", "172150.696000", "172150.699000", "172150.702000", "172150.705000", "172150.708000", "172150.711000", "172150.714000", "172150.716000", "172150.719000", "172150.722000", "172150.725000", "172150.728000", "172150.731000", "172150.734000", "172150.737000", "172150.739000", "172230.663000", "172230.666000", "172230.669000", "172230.672000", "172230.675000", "172230.678000", "172230.681000", "172230.684000", "172230.686000", "172230.689000", "172230.692000", "172230.695000", "172230.698000", "172230.701000", "172230.704000", "172230.707000", "172230.710000", "172230.713000", "172230.715000", "172230.718000", "172230.721000", "172230.724000", "172230.727000", "172230.730000", "172230.733000", "172230.736000", "172230.739000", "172310.663000", "172310.666000", "172310.678000", "172310.681000", "172310.684000", "172310.687000", "172310.690000", "172310.693000", "172310.696000", "172310.699000", "172310.701000", "172310.704000", "172310.707000", "172310.710000", "172310.713000", "172310.716000", "172310.719000", "172310.722000", "172310.725000", "172310.728000", "172310.731000", "172310.734000", "172310.737000", "172310.739000", "172310.742000", "172310.745000", "172310.748000", "172350.663000", "172350.666000", "172350.669000", "172350.672000", "172350.675000", "172350.678000", "172350.681000", "172350.684000", "172350.686000", "172350.689000", "172350.692000", "172350.695000", "172350.698000", "172350.701000", "172350.704000", "172350.707000", "172350.710000", "172350.713000", "172350.716000", "172350.719000", "172350.721000", "172350.724000", "172350.727000", "172350.730000", "172350.733000", "172350.736000", "172350.739000", "172430.663000", "172430.666000", "172430.669000", "172430.672000", "172430.675000", "172430.678000", "172430.682000", "172430.686000", "172430.689000", "172430.692000", "172430.696000", "172430.698000", "172430.701000", "172430.704000", "172430.707000", "172430.710000", "172430.713000", "172430.716000", "172430.719000", "172430.722000", "172430.725000", "172430.728000", "172430.731000", "172430.733000", "172430.736000", "172430.739000", "172510.663000", "172510.666000", "172510.669000", "172510.672000", "172510.675000", "172510.678000", "172510.681000", "172510.684000", "172510.686000", "172510.689000", "172510.692000", "172510.695000", "172510.698000", "172510.701000", "172510.704000", "172510.707000", "172510.710000", "172510.712000", "172510.715000", "172510.718000", "172510.721000", "172510.724000", "172510.727000", "172510.730000", "172510.733000", "172510.735000", "172510.738000", "172543.750000", "172543.754000", "172543.757000", "172543.760000", "172543.763000", "172543.766000", "172543.769000", "172543.772000", "172543.775000", "172543.778000", "172543.781000", "172543.784000", "172543.787000", "172543.790000", "172543.793000", "172543.796000", "172543.799000", "172543.802000", "172543.805000", "172543.808000", "172543.811000", "172543.814000", "172543.817000"],
