{
  "AcquisitionMatrixPE": 104,
  "AcquisitionNumber": 1,
  "AcquisitionTime": "17:50:28.955000",
  "BandwidthPerPixelPhaseEncode": 17.17,
  "BaseResolution": 104,
  "BodyPartExamined": "BRAIN",
  "CoilString": "HC1-7;NC1_2",
  "ConsistencyInfo": "N4_VE11C_LATEST_20160120",
  "ConversionSoftware": "dcm2niix",
  "ConversionSoftwareVersion": "v1.0.20190902",
  "DerivedVendorReportedEchoSpacing": 0.000560011,
  "DeviceSerialNumber": "167006",
  "DwellTime": 2.1e-06,
  "EchoTime": 0.037,
  "EchoTrainLength": 104,
  "EffectiveEchoSpacing": 0.000560011,
  "FlipAngle": 52,
  "ImageComments": "Unaliased_MB4_PE3_LB",
  "ImageOrientationPatientDICOM": [0.99979, -0.020054, -0.00432286, 0.0169278, 0.925497, -0.378377],
  "ImageType": [
    "ORIGINAL",
    "PRIMARY",
    "M",
    "MB",
    "ND",
    "MOSAIC"
],
  "ImagingFrequency": 123.259,
  "InPlanePhaseEncodingDirectionDICOM": "COL",
  "InstitutionAddress": "Chemin_Queen-Mary_4565_Montreal_District_CA_H3W_1W5",
  "InstitutionName": "IUGM",
  "InstitutionalDepartmentName": "Department",
  "MRAcquisitionType": "2D",
  "MagneticFieldStrength": 3,
  "Manufacturer": "Siemens",
  "ManufacturersModelName": "Prisma_fit",
  "Modality": "MR",
  "MultibandAccelerationFactor": 4,
  "PartialFourier": 1,
  "PatientPosition": "HFS",
  "PercentPhaseFOV": 100,
  "PhaseEncodingDirection": "j",
  "PhaseEncodingSteps": 104,
  "PhaseResolution": 1,
  "PixelBandwidth": 2290,
  "ProcedureStepDescription": "video_friends",
  "ProtocolName": "func_task-friends-s03e23b",
  "PulseSequenceDetails": "%CustomerSeq%_cmrr_mbep2d_bold",
  "ReceiveCoilActiveElements": "HC1-7;NC1,2",
  "ReceiveCoilName": "HeadNeck_64",
  "ReconMatrixPE": 104,
  "RepetitionTime": 1.49,
  "SAR": 0.0338738,
  "ScanOptions": "FS",
  "ScanningSequence": "EP",
  "SequenceName": "epfid2d1_104",
  "SequenceVariant": "SK_SS",
  "SeriesDescription": "func_task-friends-s03e23b",
  "SeriesNumber": 15,
  "ShimSetting": [617, -7300, -8814, 411, 16, -455, 61, 25],
  "SliceThickness": 2,
  "SliceTiming": [0, 0.785, 0.0975, 0.8825, 0.1975, 0.98, 0.295, 1.0775, 0.3925, 1.1775, 0.49, 1.275, 0.5875, 1.3725, 0.6875, 0, 0.785, 0.0975, 0.8825, 0.1975, 0.98, 0.295, 1.0775, 0.3925, 1.1775, 0.49, 1.275, 0.5875, 1.3725, 0.6875, 0, 0.785, 0.0975, 0.8825, 0.1975, 0.98, 0.295, 1.0775, 0.3925, 1.1775, 0.49, 1.275, 0.5875, 1.3725, 0.6875, 0, 0.785, 0.0975, 0.8825, 0.1975, 0.98, 0.295, 1.0775, 0.3925, 1.1775, 0.49, 1.275, 0.5875, 1.3725, 0.6875],
  "SoftwareVersions": "syngo_MR_E11",
  "SpacingBetweenSlices": 2,
  "StationName": "MRC35049",
  "TaskName": "s03e23b",
  "TotalReadoutTime": 0.0576811,
  "TxRefAmp": 237.562,
  "WipMemBlock": "dcfe1d47-7f6a-4d5e-9a74-39982da4bdc9||Sequence: R016 ve11c/master r/e634e98; Dec 19 2017 11:00:25 by eja",
  "dcmmeta_affine": [
    [-1.9995790719985962, 0.03385554999113083, -0.02317752316594124, 98.8597412109375],
    [0.04010794684290886, 1.850993275642395, -0.7564489245414734, -70.86030578613281],
    [-0.008645722642540932, 0.7567545771598816, 1.8512827157974243, -59.59523010253906],
    [0.0, 0.0, 0.0, 1.0]
],
  "dcmmeta_reorient_transform": [
    [0.0, -1.0, 0.0, 103.0],
    [1.0, 0.0, 0.0, 0.0],
    [0.0, 0.0, 1.0, 0.0],
    [0.0, 0.0, 0.0, 1.0]
],
  "dcmmeta_shape": [104, 104, 60, 470],
  "dcmmeta_slice_dim": 2,
  "dcmmeta_version": 0.6,
  "global": {
    "const": {
      "AcquisitionMatrix": [104, 0, 0, 104],
      "AngioFlag": "N",
      "BitsAllocated": 16,
      "BitsStored": 16,
      "BodyPartExamined": "BRAIN",
      "Columns": 832,
      "EchoNumbers": 1,
      "EchoTime": 37.0,
      "EchoTrainLength": 104,
      "FlipAngle": 52.0,
      "HighBit": 15,
      "ImageOrientationPatient": [0.99978955337876, -0.020053972752, -0.0043228615027, 0.01692777475366, 0.92549666756942, -0.3783772836202],
      "ImagePositionPatient": [-842.51708145243, -778.95429292853, 296.95619573004],
      "ImageType": [
        "ORIGINAL",
        "PRIMARY",
        "M",
        "MB",
        "ND",
        "MOSAIC"
],
      "ImagedNucleus": "1H",
      "ImagingFrequency": 123.258924,
      "InPlanePhaseEncodingDirection": "COL",
      "MRAcquisitionType": "2D",
      "MagneticFieldStrength": 3.0,
      "Manufacturer": "SIEMENS",
      "ManufacturerModelName": "Prisma_fit",
      "Modality": "MR",
      "NumberOfAverages": 1.0,
      "NumberOfPhaseEncodingSteps": 104,
      "PercentPhaseFieldOfView": 100.0,
      "PercentSampling": 100.0,
      "PerformedProcedureStepStartTime": "165348.652000",
      "PhotometricInterpretation": "MONOCHROME2",
      "PixelBandwidth": 2290.0,
      "PixelRepresentation": 0,
      "PixelSpacing": [2.0, 2.0],
      "ProtocolName": "func_task-friends-s03e23b",
      "RepetitionTime": 1490.0,
      "Rows": 832,
      "SAR": 0.0338738302899,
      "SamplesPerPixel": 1,
      "ScanOptions": "FS",
      "ScanningSequence": "EP",
      "SequenceName": "epfid2d1_104",
      "SequenceVariant": [
        "SK",
        "SS"
],
      "SeriesDescription": "func_task-friends-s03e23b",
      "SeriesNumber": 15,
      "SeriesTime": "175150.693000",
      "SliceLocation": -29.50837166541,
      "SliceThickness": 2.0,
      "SmallestImagePixelValue": 0,
      "SoftwareVersions": "syngo MR E11",
      "SpacingBetweenSlices": 1.9999999417858,
      "SpecificCharacterSet": "ISO_IR 100",
      "StudyID": "1",
      "StudyTime": "165348.498000",
      "TransmitCoilName": "Body",
      "VariableFlipAngleFlag": "N",
      "WindowCenterWidthExplanation": "Algo1",
      "dBdt": 0.0},
    "slices": {}
  },
  "time": {
    "samples": {
      "AcquisitionNumber": [1, 2, 3, 4, 5, 6, 7, 8, 9, 10, 11, 12, 13, 14, 15, 16, 17, 18, 19, 20, 21, 22, 23, 24, 25, 26, 27, 28, 29, 30, 31, 32, 33, 34, 35, 36, 37, 38, 39, 40, 41, 42, 43, 44, 45, 46, 47, 48, 49, 50, 51, 52, 53, 54, 55, 56, 57, 58, 59, 60, 61, 62, 63, 64, 65, 66, 67, 68, 69, 70, 71, 72, 73, 74, 75, 76, 77, 78, 79, 80, 81, 82, 83, 84, 85, 86, 87, 88, 89, 90, 91, 92, 93, 94, 95, 96, 97, 98, 99, 100, 101, 102, 103, 104, 105, 106, 107, 108, 109, 110, 111, 112, 113, 114, 115, 116, 117, 118, 119, 120, 121, 122, 123, 124, 125, 126, 127, 128, 129, 130, 131, 132, 133, 134, 135, 136, 137, 138, 139, 140, 141, 142, 143, 144, 145, 146, 147, 148, 149, 150, 151, 152, 153, 154, 155, 156, 157, 158, 159, 160, 161, 162, 163, 164, 165, 166, 167, 168, 169, 170, 171, 172, 173, 174, 175, 176, 177, 178, 179, 180, 181, 182, 183, 184, 185, 186, 187, 188, 189, 190, 191, 192, 193, 194, 195, 196, 197, 198, 199, 200, 201, 202, 203, 204, 205, 206, 207, 208, 209, 210, 211, 212, 213, 214, 215, 216, 217, 218, 219, 220, 221, 222, 223, 224, 225, 226, 227, 228, 229, 230, 231, 232, 233, 234, 235, 236, 237, 238, 239, 240, 241, 242, 243, 244, 245, 246, 247, 248, 249, 250, 251, 252, 253, 254, 255, 256, 257, 258, 259, 260, 261, 262, 263, 264, 265, 266, 267, 268, 269, 270, 271, 272, 273, 274, 275, 276, 277, 278, 279, 280, 281, 282, 283, 284, 285, 286, 287, 288, 289, 290, 291, 292, 293, 294, 295, 296, 297, 298, 299, 300, 301, 302, 303, 304, 305, 306, 307, 308, 309, 310, 311, 312, 313, 314, 315, 316, 317, 318, 319, 320, 321, 322, 323, 324, 325, 326, 327, 328, 329, 330, 331, 332, 333, 334, 335, 336, 337, 338, 339, 340, 341, 342, 343, 344, 345, 346, 347, 348, 349, 350, 351, 352, 353, 354, 355, 356, 357, 358, 359, 360, 361, 362, 363, 364, 365, 366, 367, 368, 369, 370, 371, 372, 373, 374, 375, 376, 377, 378, 379, 380, 381, 382, 383, 384, 385, 386, 387, 388, 389, 390, 391, 392, 393, 394, 395, 396, 397, 398, 399, 400, 401, 402, 403, 404, 405, 406, 407, 408, 409, 410, 411, 412, 413, 414, 415, 416, 417, 418, 419, 420, 421, 422, 423, 424, 425, 426, 427, 428, 429, 430, 431, 432, 433, 434, 435, 436, 437, 438, 439, 440, 441, 442, 443, 444, 445, 446, 447, 448, 449, 450, 451, 452, 453, 454, 455, 456, 457, 458, 459, 460, 461, 462, 463, 464, 465, 466, 467, 468, 469, 470],
      "AcquisitionTime": ["175028.955000", "175030.445000", "175031.935000", "175033.425000", "175034.915000", "175036.405000", "175037.895000", "175039.385000", "175040.875000", "175042.365000", "175043.855000", "175045.345000", "175046.835000", "175048.325000", "175049.815000", "175051.305000", "175052.795000", "175054.285000", "175055.775000", "175057.265000", "175058.755000", "175100.245000", "175101.735000", "175103.225000", "175104.715000", "175106.205000", "175107.695000", "175109.185000", "175110.675000", "175112.165000", "175113.655000", "175115.145000", "175116.635000", "175118.125000", "175119.615000", "175121.105000", "175122.595000", "175124.085000", "175125.575000", "175127.065000", "175128.555000", "175130.045000", "175131.535000", "175133.025000", "175134.515000", "175136.005000", "175137.495000", "175138.985000", "175140.475000", "175141.965000", "175143.455000", "175144.945000", "175146.435000", "175147.925000", "175149.415000", "175150.905000", "175152.395000", "175153.885000", "175155.375000", "175156.865000", "175158.355000", "175159.845000", "175201.335000", "175202.825000", "175204.315000", "175205.805000", "175207.295000", "175208.785000", "175210.275000", "175211.765000", "175213.255000", "175214.745000", "175216.235000", "175217.725000", "175219.215000", "175220.705000", "175222.195000", "175223.685000", "175225.175000", "175226.665000", "175228.155000", "175229.645000", "175231.135000", "175232.625000", "175234.115000", "175235.605000", "175237.095000", "175238.585000", "175240.075000", "175241.565000", "175243.055000", "175244.545000", "175246.035000", "175247.525000", "175249.015000", "175250.505000", "175251.995000", "175253.485000", "175254.975000", "175256.465000", "175257.955000", "175259.445000", "175300.935000", "175302.425000", "175303.915000", "175305.405000", "175306.895000", "175308.385000", "175309.875000", "175311.365000", "175312.855000", "175314.345000", "175315.835000", "175317.325000", "175318.815000", "175320.305000", "175321.795000", "175323.285000", "175324.775000", "175326.265000", "175327.755000", "175329.245000", "175330.735000", "175332.225000", "175333.715000", "175335.205000", "175336.695000", "175338.185000", "175339.675000", "175341.165000", "175342.655000", "175344.145000", "175345.635000", "175347.125000", "175348.615000", "175350.105000", "175351.595000", "175353.085000", "175354.575000", "175356.065000", "175357.555000", "175359.045000", "175400.535000", "175402.025000", "175403.515000", "175405.005000", "175406.495000", "175407.985000", "175409.475000", "175410.965000", "175412.455000", "175413.945000", "175415.435000", "175416.925000", "175418.415000", "175419.905000", "175421.395000", "175422.885000", "175424.375000", "175425.865000", "175427.355000", "175428.845000", "175430.335000", "175431.825000", "175433.315000", "175434.805000", "175436.295000", "175437.785000", "175439.275000", "175440.765000", "175442.255000", "175443.745000", "175445.235000", "175446.725000", "175448.215000", "175449.705000", "175451.195000", "175452.685000", "175454.175000", "175455.665000", "175457.155000", "175458.645000", "175500.135000", "175501.625000", "175503.115000", "175504.605000", "175506.095000", "175507.585000", "175509.075000", "175510.565000", "175512.055000", "175513.545000", "175515.035000", "175516.525000", "175518.015000", "175519.505000", "175520.995000", "175522.485000", "175523.975000", "175525.465000", "175526.955000", "175528.445000", "175529.935000", "175531.425000", "175532.915000", "175534.405000", "175535.895000", "175537.385000", "175538.875000", "175540.365000", "175541.855000", "175543.345000", "175544.835000", "175546.325000", "175547.815000", "175549.305000", "175550.795000", "175552.285000", "175553.775000", "175555.265000", "175556.755000", "175558.245000", "175559.735000", "175601.225000", "175602.715000", "175604.205000", "175605.695000", "175607.185000", "175608.675000", "175610.165000", "175611.655000", "175613.145000", "175614.635000", "175616.125000", "175617.615000", "175619.105000", "175620.595000", "175622.085000", "175623.575000", "175625.065000", "175626.555000", "175628.045000", "175629.535000", "175631.025000", "175632.515000", "175634.005000", "175635.495000", "175636.985000", "175638.475000", "175639.965000", "175641.455000", "175642.945000", "175644.435000", "175645.925000", "175647.415000", "175648.905000", "175650.395000", "175651.885000", "175653.375000", "175654.865000", "175656.355000", "175657.845000", "175659.335000", "175700.825000", "175702.315000", "175703.805000", "175705.295000", "175706.785000", "175708.275000", "175709.765000", "175711.255000", "175712.745000", "175714.235000", "175715.725000", "175717.215000", "175718.705000", "175720.195000", "175721.685000", "175723.175000", "175724.665000", "175726.155000", "175727.645000", "175729.135000", "175730.625000", "175732.115000", "175733.605000", "175735.095000", "175736.585000", "175738.075000", "175739.565000", "175741.055000", "175742.545000", "175744.035000", "175745.525000", "175747.015000", "175748.505000", "175749.995000", "175751.485000", "175752.975000", "175754.465000", "175755.955000", "175757.445000", "175758.935000", "175800.425000", "175801.915000", "175803.405000", "175804.895000", "175806.385000", "175807.875000", "175809.365000", "175810.855000", "175812.345000", "175813.835000", "175815.325000", "175816.815000", "175818.305000", "175819.795000", "175821.285000", "175822.775000", "175824.265000", "175825.755000", "175827.245000", "175828.735000", "175830.225000", "175831.715000", "175833.205000", "175834.695000", "175836.185000", "175837.675000", "175839.165000", "175840.655000", "175842.145000", "175843.635000", "175845.125000", "175846.615000", "175848.105000", "175849.595000", "175851.085000", "175852.575000", "175854.065000", "175855.555000", "175857.045000", "175858.535000", "175900.025000", "175901.515000", "175903.005000", "175904.495000", "175905.985000", "175907.475000", "175908.965000", "175910.455000", "175911.945000", "175913.435000", "175914.925000", "175916.415000", "175917.905000", "175919.395000", "175920.885000", "175922.375000", "175923.865000", "175925.355000", "175926.845000", "175928.335000", "175929.825000", "175931.315000", "175932.805000", "175934.295000", "175935.785000", "175937.275000", "175938.765000", "175940.255000", "175941.745000", "175943.235000", "175944.725000", "175946.215000", "175947.705000", "175949.195000", "175950.685000", "175952.175000", "175953.665000", "175955.155000", "175956.645000", "175958.135000", "175959.625000", "180001.115000", "180002.605000", "180004.095000", "180005.585000", "180007.075000", "180008.565000", "180010.055000", "180011.545000", "180013.035000", "180014.525000", "180016.015000", "180017.505000", "180018.995000", "180020.485000", "180021.975000", "180023.465000", "180024.955000", "180026.445000", "180027.935000", "180029.425000", "180030.915000", "180032.405000", "180033.895000", "180035.385000", "180036.875000", "180038.365000", "180039.855000", "180041.345000", "180042.835000", "180044.325000", "180045.815000", "180047.305000", "180048.795000", "180050.285000", "180051.775000", "180053.265000", "180054.755000", "180056.245000", "180057.735000", "180059.225000", "180100.715000", "180102.205000", "180103.695000", "180105.185000", "180106.675000", "180108.165000", "180109.655000", "180111.145000", "180112.635000", "180114.125000", "180115.615000", "180117.105000", "180118.595000", "180120.085000", "180121.575000", "180123.065000", "180124.555000", "180126.045000", "180127.535000", "180129.025000", "180130.515000", "180132.005000", "180133.495000", "180134.985000", "180136.475000", "180137.965000", "180139.455000", "180140.945000", "180142.435000", "180143.925000", "180145.415000", "180146.905000", "180148.395000", "180149.885000", "180151.375000", "180152.865000", "180154.355000", "180155.845000", "180157.335000", "180158.825000", "180200.315000", "180201.805000", "180203.295000", "180204.785000", "180206.275000", "180207.765000"],
      "ContentTime": ["175150.695000", "175150.698000", "175150.701000", "175150.704000", "175150.707000", "175150.716000", "175150.719000", "175150.722000", "175150.725000", "175150.728000", "175150.731000", "175150.734000", "175150.759000", "175150.762000", "175150.765000", "175150.768000", "175150.798000", "175150.800000", "175150.803000", "175150.806000", "175150.809000", "175150.812000", "175150.815000", "175150.818000", "175150.826000", "175150.829000", "175210.663000", "175210.666000", "175210.669000", "175210.672000", "175210.675000", "175210.677000", "175210.680000", "175210.683000", "175210.686000", "175210.689000", "175210.692000", "175210.695000", "175210.697000", "175210.700000", "175210.703000", "175210.706000", "175210.709000", "175210.712000", "175210.715000", "175210.718000", "175210.720000", "175230.663000", "175230.666000", "175230.669000", "175230.672000", "175230.674000", "175230.677000", "175230.680000", "175230.683000", "175230.686000", "175230.689000", "175230.692000", "175230.695000", "175230.698000", "175230.700000", "175230.703000", "175230.706000", "175230.709000", "175230.712000", "175230.715000", "175230.718000", "175250.663000", "175250.666000", "175250.669000", "175250.672000", "175250.674000", "175250.677000", "175250.680000", "175250.683000", "175250.686000", "175250.689000", "175250.692000", "175250.695000", "175250.698000", "175250.701000", "175250.703000", "175250.706000", "175250.709000", "175250.712000", "175250.715000", "175250.720000", "175310.663000", "175310.666000", "175310.669000", "175310.672000", "175310.674000", "175310.677000", "175310.680000", "175310.683000", "175310.686000", "175310.689000", "175310.692000", "175310.695000", "175310.698000", "175310.701000", "175310.703000", "175310.706000", "175310.709000", "175310.712000", "175310.715000", "175310.718000", "175350.663000", "175350.666000", "175350.669000", "175350.672000", "175350.675000", "175350.678000", "175350.681000", "175350.684000", "175350.686000", "175350.689000", "175350.692000", "175350.695000", "175350.698000", "175350.701000", "175350.704000", "175350.707000", "175350.710000", "175350.713000", "175350.716000", "175350.718000", "175350.721000", "175350.724000", "175350.727000", "175350.730000", "175350.733000", "175350.736000", "175350.739000", "175430.663000", "175430.666000", "175430.669000", "175430.672000", "175430.675000", "175430.677000", "175430.680000", "175430.683000", "175430.686000", "175430.689000", "175430.692000", "175430.695000", "175430.698000", "175430.701000", "175430.704000", "175430.707000", "175430.709000", "175430.712000", "175430.715000", "175430.718000", "175430.721000", "175430.724000", "175430.727000", "175430.730000", "175430.732000", "175430.735000", "175430.738000", "175510.663000", "175510.666000", "175510.669000", "175510.672000", "175510.676000", "175510.679000", "175510.682000", "175510.685000", "175510.688000", "175510.691000", "175510.694000", "175510.697000", "175510.700000", "175510.702000", "175510.705000", "175510.708000", "175510.711000", "175510.714000", "175510.717000", "175510.720000", "175510.723000", "175510.725000", "175510.728000", "175510.731000", "175510.735000", "175510.737000", "175510.746000", "175550.663000", "175550.666000", "175550.669000", "175550.672000", "175550.675000", "175550.678000", "175550.681000", "175550.683000", "175550.686000", "175550.689000", "175550.692000", "175550.695000", "175550.698000", "175550.701000", "175550.704000", "175550.706000", "175550.709000", "175550.712000", "175550.715000", "175550.718000", "175550.721000", "175550.724000", "175550.727000", "175550.730000", "175550.732000", "175550.735000", "175550.738000", "175630.663000", "175630.666000", "175630.669000", "175630.672000", "175630.675000", "175630.678000", "175630.681000", "175630.684000", "175630.686000", "175630.689000", "175630.692000", "175630.695000", "175630.698000", "175630.701000", "175630.704000", "175630.707000", "175630.710000", "175630.712000", "175630.715000", "175630.718000", "175630.721000", "175630.724000", "175630.727000", "175630.730000", "175630.733000", "175630.736000", "175630.739000", "175710.663000", "175710.666000", "175710.669000", "175710.672000", "175710.675000", "175710.678000", "175710.681000", "175710.684000", "175710.692000", "175710.695000", "175710.698000", "175710.701000", "175710.704000", "175710.707000", "175710.710000", "175710.713000", "175710.716000", "175710.718000", "175710.721000", "175710.724000", "175710.727000", "175710.730000", "175710.733000", "175710.736000", "175710.739000", "175710.742000", "175710.744000", "175750.663000", "175750.666000", "175750.669000", "175750.672000", "175750.675000", "175750.679000", "175750.682000", "175750.685000", "175750.688000", "175750.691000", "175750.694000", "175750.696000", "175750.700000", "175750.703000", "175750.705000", "175750.708000", "175750.711000", "175750.714000", "175750.717000", "175750.720000", "175750.723000", "175750.726000", "175750.729000", "175750.732000", "175750.734000", "175750.737000", "175830.663000", "175830.666000", "175830.669000", "175830.672000", "175830.675000", "175830.678000", "175830.681000", "175830.684000", "175830.686000", "175830.689000", "175830.692000", "175830.695000", "175830.698000", "175830.701000", "175830.704000", "175830.707000", "175830.710000", "175830.713000", "175830.716000", "175830.719000", "175830.722000", "175830.725000", "175830.727000", "175830.730000", "175830.733000", "175830.736000", "175830.739000", "175910.663000", "175910.666000", "175910.669000", "175910.672000", "175910.675000", "175910.678000", "175910.680000", "175910.683000", "175910.686000", "175910.689000", "175910.692000", "175910.695000", "175910.698000", "175910.701000", "175910.704000", "175910.707000", "175910.710000", "175910.713000", "175910.715000", "175910.718000", "175910.721000", "175910.724000", "175910.727000", "175910.730000", "175910.733000", "175910.736000", "175910.739000", "175950.663000", "175950.666000", "175950.669000", "175950.672000", "175950.675000", "175950.678000", "175950.681000", "175950.684000", "175950.687000", "175950.689000", "175950.692000", "175950.695000", "175950.698000", "175950.701000", "175950.704000", "175950.707000", "175950.710000", "175950.713000", "175950.716000", "175950.719000", "175950.721000", "175950.724000", "175950.727000", "175950.730000", "175950.733000", "175950.736000", "175950.739000", "180030.663000", "180030.666000", "180030.669000", "180030.672000", "180030.675000", "180030.678000", "180030.681000", "180030.684000", "180030.686000", "180030.689000", "180030.692000", "180030.695000", "180030.698000", "180030.701000", "180030.704000", "180030.707000", "180030.710000", "180030.713000", "180030.716000", "180030.718000", "180030.721000", "180030.724000", "180030.727000", "180030.730000", "180030.733000", "180030.736000", "180030.739000", "180110.663000", "180110.666000", "180110.669000", "180110.672000", "180110.675000", "180110.678000", "180110.680000", "180110.683000", "180110.686000", "180110.689000", "180110.692000", "180110.695000", "180110.698000", "180110.701000", "180110.704000", "180110.707000", "180110.710000", "180110.713000", "180110.716000", "180110.719000", "180110.721000", "180110.724000", "180110.727000", "180110.730000", "180110.733000", "180110.736000", "180110.739000", "180150.663000", "180150.666000", "180150.669000", "180150.672000", "180150.675000", "180150.678000", "180150.681000", "180150.684000", "180150.686000", "180150.689000", "180150.692000", "180150.695000", "180150.698000", "180150.701000", "180150.704000", "180150.707000", "180150.710000", "180150.713000", "180150.716000", "180150.719000", "180150.721000", "180150.724000", "180150.727000", "180150.730000", "180150.733000", "180150.736000", "180150.739000", "180209.980000", "180209.983000", "180209.986000", "180209.989000", "180209.992000", "180209.995000", "180209.998000", "180210.002000", "180210.005000", "180210.008000", "180210.011000", "180210.014000", "180210.016000"],
