{
  "AcquisitionMatrixPE": 104,
  "AcquisitionNumber": 1,
  "AcquisitionTime": "17:16:9.642500",
  "B0FieldSource": "sub-05_ses-025_task-s04e14b_bold.nii.gz",
  "BandwidthPerPixelPhaseEncode": 17.17,
  "BaseResolution": 104,
  "BodyPartExamined": "BRAIN",
  "CoilString": "HC1-7;NC1_2",
  "ConsistencyInfo": "N4_VE11C_LATEST_20160120",
  "ConversionSoftware": "dcm2niix",
  "ConversionSoftwareVersion": "v1.0.20190902",
  "DerivedVendorReportedEchoSpacing": 0.000560011,
  "DeviceSerialNumber": "167006",
  "DwellTime": 2.1e-06,
  "EchoTime": 0.037,
  "EchoTrainLength": 104,
  "EffectiveEchoSpacing": 0.000560011,
  "FlipAngle": 52,
  "ImageComments": "Unaliased_MB4_PE3_LB",
  "ImageOrientationPatientDICOM": [0.999902, -0.0101426, -0.00966023, 0.00593358, 0.931458, -0.363801],
  "ImageType": [
    "ORIGINAL",
    "PRIMARY",
    "M",
    "MB",
    "ND",
    "MOSAIC"
],
  "ImagingFrequency": 123.259,
  "InPlanePhaseEncodingDirectionDICOM": "COL",
  "InstitutionAddress": "Chemin_Queen-Mary_4565_Montreal_District_CA_H3W_1W5",
  "InstitutionName": "IUGM",
  "InstitutionalDepartmentName": "Department",
  "MRAcquisitionType": "2D",
  "MagneticFieldStrength": 3,
  "Manufacturer": "Siemens",
  "ManufacturersModelName": "Prisma_fit",
  "Modality": "MR",
  "MultibandAccelerationFactor": 4,
  "PartialFourier": 1,
  "PatientPosition": "HFS",
  "PercentPhaseFOV": 100,
  "PhaseEncodingDirection": "j",
  "PhaseEncodingSteps": 104,
  "PhaseResolution": 1,
  "PixelBandwidth": 2290,
  "ProcedureStepDescription": "video_friends",
  "ProtocolName": "func_task-friends-s04e14b",
  "PulseSequenceDetails": "%CustomerSeq%_cmrr_mbep2d_bold",
  "ReceiveCoilActiveElements": "HC1-7;NC1,2",
  "ReceiveCoilName": "HeadNeck_64",
  "ReconMatrixPE": 104,
  "RepetitionTime": 1.49,
  "SAR": 0.0349203,
  "ScanOptions": "FS",
  "ScanningSequence": "EP",
  "SequenceName": "epfid2d1_104",
  "SequenceVariant": "SK_SS",
  "SeriesDescription": "func_task-friends-s04e14b",
  "SeriesNumber": 11,
  "ShimSetting": [620, -7285, -8824, 460, 36, -454, 48, 41],
  "SliceThickness": 2,
  "SliceTiming": [0, 0.785, 0.0975, 0.8825, 0.1975, 0.98, 0.295, 1.0775, 0.3925, 1.1775, 0.49, 1.275, 0.5875, 1.3725, 0.6875, 0, 0.785, 0.0975, 0.8825, 0.1975, 0.98, 0.295, 1.0775, 0.3925, 1.1775, 0.49, 1.275, 0.5875, 1.3725, 0.6875, 0, 0.785, 0.0975, 0.8825, 0.1975, 0.98, 0.295, 1.0775, 0.3925, 1.1775, 0.49, 1.275, 0.5875, 1.3725, 0.6875, 0, 0.785, 0.0975, 0.8825, 0.1975, 0.98, 0.295, 1.0775, 0.3925, 1.1775, 0.49, 1.275, 0.5875, 1.3725, 0.6875],
  "SoftwareVersions": "syngo_MR_E11",
  "SpacingBetweenSlices": 2,
  "StationName": "MRC35049",
  "TaskName": "s04e14b",
  "TotalReadoutTime": 0.0576811,
  "TxRefAmp": 234.267,
  "WipMemBlock": "cd633ab2-6e0d-447f-be93-194a0cd9474c||Sequence: R016 ve11c/master r/e634e98; Dec 19 2017 11:00:25 by eja",
  "dcmmeta_affine": [
    [-1.9998037815093994, 0.011867163702845573, -0.02537596970796585, 100.70663452148438],
    [0.020285191014409065, 1.8629157543182373, -0.7274156212806702, -71.23199462890625],
    [-0.019320465624332428, 0.7276016473770142, 1.8628532886505127, -59.81240463256836],
    [0.0, 0.0, 0.0, 1.0]
],
  "dcmmeta_reorient_transform": [
    [0.0, -1.0, 0.0, 103.0],
    [1.0, 0.0, 0.0, 0.0],
    [0.0, 0.0, 1.0, 0.0],
    [0.0, 0.0, 0.0, 1.0]
],
  "dcmmeta_shape": [104, 104, 60, 447],
  "dcmmeta_slice_dim": 2,
  "dcmmeta_version": 0.6,
  "global": {
    "const": {
      "AcquisitionMatrix": [104, 0, 0, 104],
      "AngioFlag": "N",
      "BitsAllocated": 16,
      "BitsStored": 16,
      "BodyPartExamined": "BRAIN",
      "Columns": 832,
      "EchoNumbers": 1,
      "EchoTime": 37.0,
      "EchoTrainLength": 104,
      "FlipAngle": 52.0,
      "HighBit": 15,
      "ImageOrientationPatient": [0.99990189900972, -0.0101425958514, -0.0096602332352, 0.00593358197828, 0.9314578651632, -0.3638008219212],
      "ImagePositionPatient": [-834.1771829128, -791.36583940681, 287.01021297186],
      "ImageType": [
        "ORIGINAL",
        "PRIMARY",
        "M",
        "MB",
        "ND",
        "MOSAIC"
],
      "ImagedNucleus": "1H",
      "ImagingFrequency": 123.258913,
      "InPlanePhaseEncodingDirection": "COL",
      "MRAcquisitionType": "2D",
      "MagneticFieldStrength": 3.0,
      "Manufacturer": "SIEMENS",
      "ManufacturerModelName": "Prisma_fit",
      "Modality": "MR",
      "NumberOfAverages": 1.0,
      "NumberOfPhaseEncodingSteps": 104,
      "PercentPhaseFieldOfView": 100.0,
      "PercentSampling": 100.0,
      "PerformedProcedureStepStartTime": "165617.516000",
      "PhotometricInterpretation": "MONOCHROME2",
      "PixelBandwidth": 2290.0,
      "PixelRepresentation": 0,
      "PixelSpacing": [2.0, 2.0],
      "ProtocolName": "func_task-friends-s04e14b",
      "RepetitionTime": 1490.0,
      "Rows": 832,
      "SAR": 0.03492027591231,
      "SamplesPerPixel": 1,
      "ScanOptions": "FS",
      "ScanningSequence": "EP",
      "SequenceName": "epfid2d1_104",
      "SequenceVariant": [
        "SK",
        "SS"
],
      "SeriesDescription": "func_task-friends-s04e14b",
      "SeriesNumber": 11,
      "SeriesTime": "171709.424000",
      "SliceLocation": -31.080999227493,
      "SliceThickness": 2.0,
      "SmallestImagePixelValue": 0,
      "SoftwareVersions": "syngo MR E11",
      "SpacingBetweenSlices": 1.9999999589675,
      "SpecificCharacterSet": "ISO_IR 100",
      "StudyID": "1",
      "StudyTime": "165617.455000",
      "TransmitCoilName": "Body",
      "VariableFlipAngleFlag": "N",
      "WindowCenterWidthExplanation": "Algo1",
      "dBdt": 0.0},
    "slices": {}
  },
  "time": {
    "samples": {
      "AcquisitionNumber": [1, 2, 3, 4, 5, 6, 7, 8, 9, 10, 11, 12, 13, 14, 15, 16, 17, 18, 19, 20, 21, 22, 23, 24, 25, 26, 27, 28, 29, 30, 31, 32, 33, 34, 35, 36, 37, 38, 39, 40, 41, 42, 43, 44, 45, 46, 47, 48, 49, 50, 51, 52, 53, 54, 55, 56, 57, 58, 59, 60, 61, 62, 63, 64, 65, 66, 67, 68, 69, 70, 71, 72, 73, 74, 75, 76, 77, 78, 79, 80, 81, 82, 83, 84, 85, 86, 87, 88, 89, 90, 91, 92, 93, 94, 95, 96, 97, 98, 99, 100, 101, 102, 103, 104, 105, 106, 107, 108, 109, 110, 111, 112, 113, 114, 115, 116, 117, 118, 119, 120, 121, 122, 123, 124, 125, 126, 127, 128, 129, 130, 131, 132, 133, 134, 135, 136, 137, 138, 139, 140, 141, 142, 143, 144, 145, 146, 147, 148, 149, 150, 151, 152, 153, 154, 155, 156, 157, 158, 159, 160, 161, 162, 163, 164, 165, 166, 167, 168, 169, 170, 171, 172, 173, 174, 175, 176, 177, 178, 179, 180, 181, 182, 183, 184, 185, 186, 187, 188, 189, 190, 191, 192, 193, 194, 195, 196, 197, 198, 199, 200, 201, 202, 203, 204, 205, 206, 207, 208, 209, 210, 211, 212, 213, 214, 215, 216, 217, 218, 219, 220, 221, 222, 223, 224, 225, 226, 227, 228, 229, 230, 231, 232, 233, 234, 235, 236, 237, 238, 239, 240, 241, 242, 243, 244, 245, 246, 247, 248, 249, 250, 251, 252, 253, 254, 255, 256, 257, 258, 259, 260, 261, 262, 263, 264, 265, 266, 267, 268, 269, 270, 271, 272, 273, 274, 275, 276, 277, 278, 279, 280, 281, 282, 283, 284, 285, 286, 287, 288, 289, 290, 291, 292, 293, 294, 295, 296, 297, 298, 299, 300, 301, 302, 303, 304, 305, 306, 307, 308, 309, 310, 311, 312, 313, 314, 315, 316, 317, 318, 319, 320, 321, 322, 323, 324, 325, 326, 327, 328, 329, 330, 331, 332, 333, 334, 335, 336, 337, 338, 339, 340, 341, 342, 343, 344, 345, 346, 347, 348, 349, 350, 351, 352, 353, 354, 355, 356, 357, 358, 359, 360, 361, 362, 363, 364, 365, 366, 367, 368, 369, 370, 371, 372, 373, 374, 375, 376, 377, 378, 379, 380, 381, 382, 383, 384, 385, 386, 387, 388, 389, 390, 391, 392, 393, 394, 395, 396, 397, 398, 399, 400, 401, 402, 403, 404, 405, 406, 407, 408, 409, 410, 411, 412, 413, 414, 415, 416, 417, 418, 419, 420, 421, 422, 423, 424, 425, 426, 427, 428, 429, 430, 431, 432, 433, 434, 435, 436, 437, 438, 439, 440, 441, 442, 443, 444, 445, 446, 447],
      "AcquisitionTime": ["171609.642500", "171611.132500", "171612.622500", "171614.112500", "171615.602500", "171617.092500", "171618.582500", "171620.072500", "171621.562500", "171623.052500", "171624.542500", "171626.032500", "171627.522500", "171629.012500", "171630.502500", "171631.992500", "171633.482500", "171634.972500", "171636.462500", "171637.952500", "171639.442500", "171640.932500", "171642.422500", "171643.912500", "171645.402500", "171646.892500", "171648.382500", "171649.872500", "171651.362500", "171652.852500", "171654.342500", "171655.832500", "171657.322500", "171658.812500", "171700.302500", "171701.792500", "171703.282500", "171704.772500", "171706.262500", "171707.752500", "171709.242500", "171710.732500", "171712.222500", "171713.712500", "171715.202500", "171716.692500", "171718.182500", "171719.672500", "171721.162500", "171722.652500", "171724.142500", "171725.632500", "171727.122500", "171728.612500", "171730.102500", "171731.592500", "171733.082500", "171734.572500", "171736.062500", "171737.552500", "171739.042500", "171740.532500", "171742.022500", "171743.512500", "171745.002500", "171746.492500", "171747.982500", "171749.472500", "171750.962500", "171752.452500", "171753.942500", "171755.432500", "171756.922500", "171758.412500", "171759.902500", "171801.392500", "171802.882500", "171804.372500", "171805.862500", "171807.352500", "171808.842500", "171810.332500", "171811.822500", "171813.312500", "171814.802500", "171816.292500", "171817.782500", "171819.272500", "171820.762500", "171822.252500", "171823.742500", "171825.232500", "171826.722500", "171828.212500", "171829.702500", "171831.192500", "171832.682500", "171834.172500", "171835.662500", "171837.152500", "171838.642500", "171840.132500", "171841.622500", "171843.112500", "171844.602500", "171846.092500", "171847.582500", "171849.072500", "171850.562500", "171852.052500", "171853.542500", "171855.032500", "171856.522500", "171858.012500", "171859.502500", "171900.992500", "171902.482500", "171903.972500", "171905.462500", "171906.952500", "171908.442500", "171909.932500", "171911.422500", "171912.912500", "171914.402500", "171915.892500", "171917.382500", "171918.872500", "171920.362500", "171921.852500", "171923.342500", "171924.832500", "171926.322500", "171927.812500", "171929.302500", "171930.792500", "171932.282500", "171933.772500", "171935.262500", "171936.752500", "171938.242500", "171939.732500", "171941.222500", "171942.712500", "171944.202500", "171945.692500", "171947.182500", "171948.672500", "171950.162500", "171951.652500", "171953.142500", "171954.632500", "171956.122500", "171957.612500", "171959.102500", "172000.592500", "172002.082500", "172003.572500", "172005.062500", "172006.552500", "172008.042500", "172009.532500", "172011.022500", "172012.512500", "172014.002500", "172015.492500", "172016.982500", "172018.472500", "172019.962500", "172021.452500", "172022.942500", "172024.432500", "172025.922500", "172027.412500", "172028.902500", "172030.392500", "172031.882500", "172033.372500", "172034.862500", "172036.352500", "172037.842500", "172039.332500", "172040.822500", "172042.312500", "172043.802500", "172045.292500", "172046.782500", "172048.272500", "172049.762500", "172051.252500", "172052.742500", "172054.232500", "172055.722500", "172057.212500", "172058.702500", "172100.192500", "172101.682500", "172103.172500", "172104.662500", "172106.152500", "172107.642500", "172109.132500", "172110.622500", "172112.112500", "172113.602500", "172115.092500", "172116.582500", "172118.072500", "172119.562500", "172121.052500", "172122.542500", "172124.032500", "172125.522500", "172127.012500", "172128.502500", "172129.992500", "172131.482500", "172132.972500", "172134.462500", "172135.952500", "172137.442500", "172138.932500", "172140.422500", "172141.912500", "172143.402500", "172144.892500", "172146.382500", "172147.872500", "172149.362500", "172150.852500", "172152.342500", "172153.832500", "172155.322500", "172156.812500", "172158.302500", "172159.792500", "172201.282500", "172202.772500", "172204.262500", "172205.752500", "172207.242500", "172208.732500", "172210.222500", "172211.712500", "172213.202500", "172214.692500", "172216.182500", "172217.672500", "172219.162500", "172220.652500", "172222.142500", "172223.632500", "172225.122500", "172226.612500", "172228.102500", "172229.592500", "172231.082500", "172232.572500", "172234.062500", "172235.552500", "172237.042500", "172238.532500", "172240.022500", "172241.512500", "172243.002500", "172244.492500", "172245.982500", "172247.472500", "172248.962500", "172250.452500", "172251.942500", "172253.432500", "172254.922500", "172256.412500", "172257.902500", "172259.392500", "172300.882500", "172302.372500", "172303.862500", "172305.352500", "172306.842500", "172308.332500", "172309.822500", "172311.312500", "172312.802500", "172314.292500", "172315.782500", "172317.272500", "172318.762500", "172320.252500", "172321.742500", "172323.232500", "172324.722500", "172326.212500", "172327.702500", "172329.192500", "172330.682500", "172332.172500", "172333.662500", "172335.152500", "172336.642500", "172338.132500", "172339.622500", "172341.112500", "172342.602500", "172344.092500", "172345.582500", "172347.072500", "172348.562500", "172350.052500", "172351.542500", "172353.032500", "172354.522500", "172356.012500", "172357.502500", "172358.992500", "172400.482500", "172401.972500", "172403.462500", "172404.952500", "172406.442500", "172407.932500", "172409.422500", "172410.912500", "172412.402500", "172413.892500", "172415.382500", "172416.872500", "172418.362500", "172419.852500", "172421.342500", "172422.832500", "172424.322500", "172425.812500", "172427.302500", "172428.792500", "172430.282500", "172431.772500", "172433.262500", "172434.752500", "172436.242500", "172437.732500", "172439.222500", "172440.712500", "172442.202500", "172443.692500", "172445.182500", "172446.672500", "172448.162500", "172449.652500", "172451.142500", "172452.632500", "172454.122500", "172455.612500", "172457.102500", "172458.592500", "172500.082500", "172501.572500", "172503.062500", "172504.552500", "172506.042500", "172507.532500", "172509.022500", "172510.512500", "172512.002500", "172513.492500", "172514.982500", "172516.472500", "172517.962500", "172519.452500", "172520.942500", "172522.432500", "172523.922500", "172525.412500", "172526.902500", "172528.392500", "172529.882500", "172531.372500", "172532.862500", "172534.352500", "172535.842500", "172537.332500", "172538.822500", "172540.312500", "172541.802500", "172543.292500", "172544.782500", "172546.272500", "172547.762500", "172549.252500", "172550.742500", "172552.232500", "172553.722500", "172555.212500", "172556.702500", "172558.192500", "172559.682500", "172601.172500", "172602.662500", "172604.152500", "172605.642500", "172607.132500", "172608.622500", "172610.112500", "172611.602500", "172613.092500", "172614.582500", "172616.072500", "172617.562500", "172619.052500", "172620.542500", "172622.032500", "172623.522500", "172625.012500", "172626.502500", "172627.992500", "172629.482500", "172630.972500", "172632.462500", "172633.952500", "172635.442500", "172636.932500", "172638.422500", "172639.912500", "172641.402500", "172642.892500", "172644.382500", "172645.872500", "172647.362500", "172648.852500", "172650.342500", "172651.832500", "172653.322500", "172654.812500", "172656.302500", "172657.792500", "172659.282500", "172700.772500", "172702.262500", "172703.752500", "172705.242500", "172706.732500", "172708.222500", "172709.712500", "172711.202500", "172712.692500", "172714.182500"],
      "ContentTime": ["171709.428000", "171709.431000", "171709.434000", "171709.437000", "171709.440000", "171709.443000", "171709.446000", "171729.394000", "171729.397000", "171729.400000", "171729.402000", "171729.405000", "171729.408000", "171729.411000", "171729.414000", "171729.417000", "171729.427000", "171729.430000", "171729.432000", "171729.435000", "171729.438000", "171729.441000", "171729.444000", "171729.447000", "171729.449000", "171729.463000", "171729.466000", "171749.394000", "171749.397000", "171749.400000", "171749.402000", "171749.405000", "171749.408000", "171749.411000", "171749.414000", "171749.417000", "171749.419000", "171749.422000", "171749.425000", "171749.428000", "171749.431000", "171749.434000", "171749.442000", "171749.445000", "171749.448000", "171749.451000", "171749.454000", "171749.457000", "171809.393000", "171809.396000", "171809.399000", "171809.402000", "171809.404000", "171809.407000", "171809.410000", "171809.413000", "171809.416000", "171809.419000", "171809.422000", "171809.425000", "171809.433000", "171809.436000", "171809.439000", "171809.442000", "171809.445000", "171809.448000", "171809.450000", "171809.453000", "171829.394000", "171829.397000", "171829.400000", "171829.402000", "171829.405000", "171829.408000", "171829.411000", "171829.414000", "171829.416000", "171829.419000", "171829.422000", "171829.425000", "171829.428000", "171829.431000", "171829.433000", "171829.436000", "171829.439000", "171829.442000", "171829.445000", "171829.447000", "171909.394000", "171909.397000", "171909.400000", "171909.403000", "171909.406000", "171909.408000", "171909.411000", "171909.414000", "171909.417000", "171909.420000", "171909.423000", "171909.425000", "171909.428000", "171909.431000", "171909.434000", "171909.437000", "171909.440000", "171909.443000", "171909.445000", "171909.448000", "171909.451000", "171909.454000", "171909.457000", "171909.460000", "171909.463000", "171909.465000", "171909.469000", "171909.471000", "171909.474000", "171909.477000", "171909.480000", "171909.483000", "171949.394000", "171949.397000", "171949.400000", "171949.403000", "171949.405000", "171949.408000", "171949.411000", "171949.414000", "171949.417000", "171949.420000", "171949.422000", "171949.425000", "171949.428000", "171949.431000", "171949.434000", "171949.437000", "171949.440000", "171949.443000", "171949.445000", "171949.448000", "171949.451000", "171949.454000", "171949.457000", "171949.460000", "171949.463000", "171949.465000", "171949.468000", "172029.393000", "172029.396000", "172029.399000", "172029.402000", "172029.405000", "172029.407000", "172029.410000", "172029.413000", "172029.416000", "172029.419000", "172029.421000", "172029.424000", "172029.427000", "172029.430000", "172029.433000", "172029.445000", "172029.448000", "172029.451000", "172029.454000", "172029.457000", "172029.459000", "172029.462000", "172029.465000", "172029.468000", "172029.471000", "172029.473000", "172029.476000", "172109.394000", "172109.397000", "172109.400000", "172109.403000", "172109.405000", "172109.408000", "172109.411000", "172109.414000", "172109.417000", "172109.420000", "172109.422000", "172109.425000", "172109.428000", "172109.431000", "172109.434000", "172109.437000", "172109.440000", "172109.443000", "172109.446000", "172109.449000", "172109.451000", "172109.454000", "172109.457000", "172109.460000", "172109.463000", "172109.466000", "172149.394000", "172149.397000", "172149.400000", "172149.403000", "172149.406000", "172149.409000", "172149.411000", "172149.414000", "172149.417000", "172149.420000", "172149.423000", "172149.426000", "172149.428000", "172149.431000", "172149.434000", "172149.437000", "172149.440000", "172149.443000", "172149.446000", "172149.449000", "172149.451000", "172149.454000", "172149.457000", "172149.460000", "172149.463000", "172149.466000", "172149.469000", "172229.409000", "172229.412000", "172229.415000", "172229.418000", "172229.421000", "172229.423000", "172229.426000", "172229.429000", "172229.432000", "172229.435000", "172229.437000", "172229.440000", "172229.443000", "172229.446000", "172229.449000", "172229.452000", "172229.455000", "172229.458000", "172229.460000", "172229.463000", "172229.466000", "172229.469000", "172229.472000", "172229.475000", "172229.477000", "172229.480000", "172229.483000", "172309.394000", "172309.397000", "172309.400000", "172309.403000", "172309.406000", "172309.408000", "172309.411000", "172309.414000", "172309.417000", "172309.420000", "172309.423000", "172309.425000", "172309.428000", "172309.431000", "172309.434000", "172309.437000", "172309.440000", "172309.443000", "172309.445000", "172309.448000", "172309.451000", "172309.454000", "172309.457000", "172309.460000", "172309.463000", "172309.465000", "172309.468000", "172349.394000", "172349.397000", "172349.400000", "172349.403000", "172349.406000", "172349.408000", "172349.411000", "172349.414000", "172349.417000", "172349.420000", "172349.423000", "172349.426000", "172349.428000", "172349.431000", "172349.434000", "172349.437000", "172349.440000", "172349.443000", "172349.446000", "172349.449000", "172349.451000", "172349.454000", "172349.457000", "172349.460000", "172349.463000", "172349.466000", "172349.469000", "172429.394000", "172429.397000", "172429.400000", "172429.403000", "172429.406000", "172429.408000", "172429.411000", "172429.414000", "172429.417000", "172429.420000", "172429.423000", "172429.425000", "172429.428000", "172429.431000", "172429.434000", "172429.437000", "172429.440000", "172429.443000", "172429.446000", "172429.449000", "172429.451000", "172429.454000", "172429.457000", "172429.460000", "172429.463000", "172429.466000", "172429.468000", "172509.393000", "172509.396000", "172509.399000", "172509.402000", "172509.404000", "172509.407000", "172509.410000", "172509.413000", "172509.416000", "172509.419000", "172509.421000", "172509.424000", "172509.427000", "172509.430000", "172509.433000", "172509.436000", "172509.439000", "172509.442000", "172509.445000", "172509.447000", "172509.450000", "172509.453000", "172509.456000", "172509.459000", "172509.462000", "172509.464000", "172549.394000", "172549.397000", "172549.400000", "172549.403000", "172549.406000", "172549.408000", "172549.411000", "172549.414000", "172549.417000", "172549.420000", "172549.423000", "172549.426000", "172549.429000", "172549.431000", "172549.434000", "172549.437000", "172549.440000", "172549.443000", "172549.446000", "172549.449000", "172549.451000", "172549.454000", "172549.457000", "172549.460000", "172549.463000", "172549.466000", "172549.468000", "172629.394000", "172629.397000", "172629.400000", "172629.403000", "172629.406000", "172629.409000", "172629.412000", "172629.414000", "172629.417000", "172629.420000", "172629.423000", "172629.426000", "172629.429000", "172629.432000", "172629.434000", "172629.452000", "172629.455000", "172629.458000", "172629.461000", "172629.463000", "172629.466000", "172629.469000", "172629.472000", "172629.475000", "172629.478000", "172629.481000", "172629.483000", "172709.394000", "172709.397000", "172709.400000", "172709.403000", "172709.406000", "172709.409000", "172709.411000", "172709.414000", "172709.417000", "172709.420000", "172709.423000", "172709.426000", "172709.429000", "172709.431000", "172709.434000", "172709.437000", "172709.440000", "172709.443000", "172709.446000", "172709.449000", "172709.452000", "172709.454000", "172709.457000", "172709.460000", "172709.463000", "172709.466000", "172709.469000", "172716.087000", "172716.091000", "172716.093000", "172716.096000", "172716.099000"],
