{
  "AcquisitionMatrixPE": 104,
  "AcquisitionNumber": 1,
  "AcquisitionTime": "18:03:51.180000",
  "B0FieldSource": "sub-05_ses-025_task-s04e16b_bold.nii.gz",
  "BandwidthPerPixelPhaseEncode": 17.17,
  "BaseResolution": 104,
  "BodyPartExamined": "BRAIN",
  "CoilString": "HC1-7;NC1_2",
  "ConsistencyInfo": "N4_VE11C_LATEST_20160120",
  "ConversionSoftware": "dcm2niix",
  "ConversionSoftwareVersion": "v1.0.20190902",
  "DerivedVendorReportedEchoSpacing": 0.000560011,
  "DeviceSerialNumber": "167006",
  "DwellTime": 2.1e-06,
  "EchoTime": 0.037,
  "EchoTrainLength": 104,
  "EffectiveEchoSpacing": 0.000560011,
  "FlipAngle": 52,
  "ImageComments": "Unaliased_MB4_PE3_LB",
  "ImageOrientationPatientDICOM": [0.999902, -0.0101426, -0.00966023, 0.00593358, 0.931458, -0.363801],
  "ImageType": [
    "ORIGINAL",
    "PRIMARY",
    "M",
    "MB",
    "ND",
    "MOSAIC"
],
  "ImagingFrequency": 123.259,
  "InPlanePhaseEncodingDirectionDICOM": "COL",
  "InstitutionAddress": "Chemin_Queen-Mary_4565_Montreal_District_CA_H3W_1W5",
  "InstitutionName": "IUGM",
  "InstitutionalDepartmentName": "Department",
  "MRAcquisitionType": "2D",
  "MagneticFieldStrength": 3,
  "Manufacturer": "Siemens",
  "ManufacturersModelName": "Prisma_fit",
  "Modality": "MR",
  "MultibandAccelerationFactor": 4,
  "PartialFourier": 1,
  "PatientPosition": "HFS",
  "PercentPhaseFOV": 100,
  "PhaseEncodingDirection": "j",
  "PhaseEncodingSteps": 104,
  "PhaseResolution": 1,
  "PixelBandwidth": 2290,
  "ProcedureStepDescription": "video_friends",
  "ProtocolName": "func_task-friends-s04e16b",
  "PulseSequenceDetails": "%CustomerSeq%_cmrr_mbep2d_bold",
  "ReceiveCoilActiveElements": "HC1-7;NC1,2",
  "ReceiveCoilName": "HeadNeck_64",
  "ReconMatrixPE": 104,
  "RepetitionTime": 1.49,
  "SAR": 0.034933,
  "ScanOptions": "FS",
  "ScanningSequence": "EP",
  "SequenceName": "epfid2d1_104",
  "SequenceVariant": "SK_SS",
  "SeriesDescription": "func_task-friends-s04e16b",
  "SeriesNumber": 19,
  "ShimSetting": [620, -7285, -8824, 460, 36, -454, 48, 41],
  "SliceThickness": 2,
  "SliceTiming": [0, 0.785, 0.0975, 0.8825, 0.1975, 0.98, 0.295, 1.0775, 0.3925, 1.1775, 0.49, 1.275, 0.5875, 1.3725, 0.6875, 0, 0.785, 0.0975, 0.8825, 0.1975, 0.98, 0.295, 1.0775, 0.3925, 1.1775, 0.49, 1.275, 0.5875, 1.3725, 0.6875, 0, 0.785, 0.0975, 0.8825, 0.1975, 0.98, 0.295, 1.0775, 0.3925, 1.1775, 0.49, 1.275, 0.5875, 1.3725, 0.6875, 0, 0.785, 0.0975, 0.8825, 0.1975, 0.98, 0.295, 1.0775, 0.3925, 1.1775, 0.49, 1.275, 0.5875, 1.3725, 0.6875],
  "SoftwareVersions": "syngo_MR_E11",
  "SpacingBetweenSlices": 2,
  "StationName": "MRC35049",
  "TaskName": "s04e16b",
  "TotalReadoutTime": 0.0576811,
  "TxRefAmp": 234.267,
  "WipMemBlock": "5196876e-7c9f-4433-8938-b108dfddc957||Sequence: R016 ve11c/master r/e634e98; Dec 19 2017 11:00:25 by eja",
  "dcmmeta_affine": [
    [-1.9998037815093994, 0.011867163702845573, -0.02537596970796585, 100.70663452148438],
    [0.020285191014409065, 1.8629157543182373, -0.7274156212806702, -71.23199462890625],
    [-0.019320465624332428, 0.7276016473770142, 1.8628532886505127, -59.81240463256836],
    [0.0, 0.0, 0.0, 1.0]
],
  "dcmmeta_reorient_transform": [
    [0.0, -1.0, 0.0, 103.0],
    [1.0, 0.0, 0.0, 0.0],
    [0.0, 0.0, 1.0, 0.0],
    [0.0, 0.0, 0.0, 1.0]
],
  "dcmmeta_shape": [104, 104, 60, 487],
  "dcmmeta_slice_dim": 2,
  "dcmmeta_version": 0.6,
  "global": {
    "const": {
      "AcquisitionMatrix": [104, 0, 0, 104],
      "AngioFlag": "N",
      "BitsAllocated": 16,
      "BitsStored": 16,
      "BodyPartExamined": "BRAIN",
      "Columns": 832,
      "EchoNumbers": 1,
      "EchoTime": 37.0,
      "EchoTrainLength": 104,
      "FlipAngle": 52.0,
      "HighBit": 15,
      "ImageOrientationPatient": [0.99990189900972, -0.0101425958514, -0.0096602332352, 0.00593358197828, 0.9314578651632, -0.3638008219212],
      "ImagePositionPatient": [-834.1771829128, -791.36583940681, 287.01021297186],
      "ImageType": [
        "ORIGINAL",
        "PRIMARY",
        "M",
        "MB",
        "ND",
        "MOSAIC"
],
      "ImagedNucleus": "1H",
      "ImagingFrequency": 123.258933,
      "InPlanePhaseEncodingDirection": "COL",
      "MRAcquisitionType": "2D",
      "MagneticFieldStrength": 3.0,
      "Manufacturer": "SIEMENS",
      "ManufacturerModelName": "Prisma_fit",
      "Modality": "MR",
      "NumberOfAverages": 1.0,
      "NumberOfPhaseEncodingSteps": 104,
      "PercentPhaseFieldOfView": 100.0,
      "PercentSampling": 100.0,
      "PerformedProcedureStepStartTime": "165617.516000",
      "PhotometricInterpretation": "MONOCHROME2",
      "PixelBandwidth": 2290.0,
      "PixelRepresentation": 0,
      "PixelSpacing": [2.0, 2.0],
      "ProtocolName": "func_task-friends-s04e16b",
      "RepetitionTime": 1490.0,
      "Rows": 832,
      "SAR": 0.03493295395731,
      "SamplesPerPixel": 1,
      "ScanOptions": "FS",
      "ScanningSequence": "EP",
      "SequenceName": "epfid2d1_104",
      "SequenceVariant": [
        "SK",
        "SS"
],
      "SeriesDescription": "func_task-friends-s04e16b",
      "SeriesNumber": 19,
      "SeriesTime": "180521.443000",
      "SliceLocation": -31.080999227493,
      "SliceThickness": 2.0,
      "SmallestImagePixelValue": 0,
      "SoftwareVersions": "syngo MR E11",
      "SpacingBetweenSlices": 1.9999999589675,
      "SpecificCharacterSet": "ISO_IR 100",
      "StudyID": "1",
      "StudyTime": "165617.455000",
      "TransmitCoilName": "Body",
      "VariableFlipAngleFlag": "N",
      "WindowCenterWidthExplanation": "Algo1",
      "dBdt": 0.0},
    "slices": {}
  },
  "time": {
    "samples": {
      "AcquisitionNumber": [1, 2, 3, 4, 5, 6, 7, 8, 9, 10, 11, 12, 13, 14, 15, 16, 17, 18, 19, 20, 21, 22, 23, 24, 25, 26, 27, 28, 29, 30, 31, 32, 33, 34, 35, 36, 37, 38, 39, 40, 41, 42, 43, 44, 45, 46, 47, 48, 49, 50, 51, 52, 53, 54, 55, 56, 57, 58, 59, 60, 61, 62, 63, 64, 65, 66, 67, 68, 69, 70, 71, 72, 73, 74, 75, 76, 77, 78, 79, 80, 81, 82, 83, 84, 85, 86, 87, 88, 89, 90, 91, 92, 93, 94, 95, 96, 97, 98, 99, 100, 101, 102, 103, 104, 105, 106, 107, 108, 109, 110, 111, 112, 113, 114, 115, 116, 117, 118, 119, 120, 121, 122, 123, 124, 125, 126, 127, 128, 129, 130, 131, 132, 133, 134, 135, 136, 137, 138, 139, 140, 141, 142, 143, 144, 145, 146, 147, 148, 149, 150, 151, 152, 153, 154, 155, 156, 157, 158, 159, 160, 161, 162, 163, 164, 165, 166, 167, 168, 169, 170, 171, 172, 173, 174, 175, 176, 177, 178, 179, 180, 181, 182, 183, 184, 185, 186, 187, 188, 189, 190, 191, 192, 193, 194, 195, 196, 197, 198, 199, 200, 201, 202, 203, 204, 205, 206, 207, 208, 209, 210, 211, 212, 213, 214, 215, 216, 217, 218, 219, 220, 221, 222, 223, 224, 225, 226, 227, 228, 229, 230, 231, 232, 233, 234, 235, 236, 237, 238, 239, 240, 241, 242, 243, 244, 245, 246, 247, 248, 249, 250, 251, 252, 253, 254, 255, 256, 257, 258, 259, 260, 261, 262, 263, 264, 265, 266, 267, 268, 269, 270, 271, 272, 273, 274, 275, 276, 277, 278, 279, 280, 281, 282, 283, 284, 285, 286, 287, 288, 289, 290, 291, 292, 293, 294, 295, 296, 297, 298, 299, 300, 301, 302, 303, 304, 305, 306, 307, 308, 309, 310, 311, 312, 313, 314, 315, 316, 317, 318, 319, 320, 321, 322, 323, 324, 325, 326, 327, 328, 329, 330, 331, 332, 333, 334, 335, 336, 337, 338, 339, 340, 341, 342, 343, 344, 345, 346, 347, 348, 349, 350, 351, 352, 353, 354, 355, 356, 357, 358, 359, 360, 361, 362, 363, 364, 365, 366, 367, 368, 369, 370, 371, 372, 373, 374, 375, 376, 377, 378, 379, 380, 381, 382, 383, 384, 385, 386, 387, 388, 389, 390, 391, 392, 393, 394, 395, 396, 397, 398, 399, 400, 401, 402, 403, 404, 405, 406, 407, 408, 409, 410, 411, 412, 413, 414, 415, 416, 417, 418, 419, 420, 421, 422, 423, 424, 425, 426, 427, 428, 429, 430, 431, 432, 433, 434, 435, 436, 437, 438, 439, 440, 441, 442, 443, 444, 445, 446, 447, 448, 449, 450, 451, 452, 453, 454, 455, 456, 457, 458, 459, 460, 461, 462, 463, 464, 465, 466, 467, 468, 469, 470, 471, 472, 473, 474, 475, 476, 477, 478, 479, 480, 481, 482, 483, 484, 485, 486, 487],
      "AcquisitionTime": ["180351.180000", "180352.670000", "180354.160000", "180355.650000", "180357.140000", "180358.630000", "180400.120000", "180401.610000", "180403.100000", "180404.590000", "180406.080000", "180407.570000", "180409.060000", "180410.550000", "180412.040000", "180413.530000", "180415.020000", "180416.510000", "180418.000000", "180419.490000", "180420.980000", "180422.470000", "180423.960000", "180425.450000", "180426.940000", "180428.430000", "180429.920000", "180431.410000", "180432.900000", "180434.390000", "180435.880000", "180437.370000", "180438.860000", "180440.350000", "180441.840000", "180443.330000", "180444.820000", "180446.310000", "180447.800000", "180449.290000", "180450.780000", "180452.270000", "180453.760000", "180455.250000", "180456.740000", "180458.230000", "180459.720000", "180501.210000", "180502.700000", "180504.190000", "180505.680000", "180507.170000", "180508.660000", "180510.150000", "180511.640000", "180513.130000", "180514.620000", "180516.110000", "180517.600000", "180519.090000", "180520.580000", "180522.070000", "180523.560000", "180525.050000", "180526.540000", "180528.030000", "180529.520000", "180531.010000", "180532.500000", "180533.990000", "180535.480000", "180536.970000", "180538.460000", "180539.950000", "180541.440000", "180542.930000", "180544.420000", "180545.910000", "180547.400000", "180548.890000", "180550.380000", "180551.870000", "180553.360000", "180554.850000", "180556.340000", "180557.830000", "180559.320000", "180600.810000", "180602.300000", "180603.790000", "180605.280000", "180606.770000", "180608.260000", "180609.750000", "180611.240000", "180612.730000", "180614.220000", "180615.710000", "180617.200000", "180618.690000", "180620.180000", "180621.670000", "180623.160000", "180624.650000", "180626.140000", "180627.630000", "180629.120000", "180630.610000", "180632.100000", "180633.590000", "180635.080000", "180636.570000", "180638.060000", "180639.550000", "180641.040000", "180642.530000", "180644.020000", "180645.510000", "180647.000000", "180648.490000", "180649.980000", "180651.470000", "180652.960000", "180654.450000", "180655.940000", "180657.430000", "180658.920000", "180700.410000", "180701.900000", "180703.390000", "180704.880000", "180706.370000", "180707.860000", "180709.350000", "180710.840000", "180712.330000", "180713.820000", "180715.310000", "180716.800000", "180718.290000", "180719.780000", "180721.270000", "180722.760000", "180724.250000", "180725.740000", "180727.230000", "180728.720000", "180730.210000", "180731.700000", "180733.190000", "180734.680000", "180736.170000", "180737.660000", "180739.150000", "180740.640000", "180742.130000", "180743.620000", "180745.110000", "180746.600000", "180748.090000", "180749.580000", "180751.070000", "180752.560000", "180754.050000", "180755.540000", "180757.030000", "180758.520000", "180800.010000", "180801.500000", "180802.990000", "180804.480000", "180805.970000", "180807.460000", "180808.950000", "180810.440000", "180811.930000", "180813.420000", "180814.910000", "180816.400000", "180817.890000", "180819.380000", "180820.870000", "180822.360000", "180823.850000", "180825.340000", "180826.830000", "180828.320000", "180829.810000", "180831.300000", "180832.790000", "180834.280000", "180835.770000", "180837.260000", "180838.750000", "180840.240000", "180841.730000", "180843.220000", "180844.710000", "180846.200000", "180847.690000", "180849.180000", "180850.670000", "180852.160000", "180853.650000", "180855.140000", "180856.630000", "180858.120000", "180859.610000", "180901.100000", "180902.590000", "180904.080000", "180905.570000", "180907.060000", "180908.550000", "180910.040000", "180911.530000", "180913.020000", "180914.510000", "180916.000000", "180917.490000", "180918.980000", "180920.470000", "180921.960000", "180923.450000", "180924.940000", "180926.430000", "180927.920000", "180929.410000", "180930.900000", "180932.390000", "180933.880000", "180935.370000", "180936.860000", "180938.350000", "180939.840000", "180941.330000", "180942.820000", "180944.310000", "180945.800000", "180947.290000", "180948.780000", "180950.270000", "180951.760000", "180953.250000", "180954.740000", "180956.230000", "180957.720000", "180959.210000", "181000.700000", "181002.190000", "181003.680000", "181005.170000", "181006.660000", "181008.150000", "181009.640000", "181011.130000", "181012.620000", "181014.110000", "181015.600000", "181017.090000", "181018.580000", "181020.070000", "181021.560000", "181023.050000", "181024.540000", "181026.030000", "181027.520000", "181029.010000", "181030.500000", "181031.990000", "181033.480000", "181034.970000", "181036.460000", "181037.950000", "181039.440000", "181040.930000", "181042.420000", "181043.910000", "181045.400000", "181046.890000", "181048.380000", "181049.870000", "181051.360000", "181052.850000", "181054.340000", "181055.830000", "181057.320000", "181058.810000", "181100.300000", "181101.790000", "181103.280000", "181104.770000", "181106.260000", "181107.750000", "181109.240000", "181110.730000", "181112.220000", "181113.710000", "181115.200000", "181116.690000", "181118.180000", "181119.670000", "181121.160000", "181122.650000", "181124.140000", "181125.630000", "181127.120000", "181128.610000", "181130.100000", "181131.590000", "181133.080000", "181134.570000", "181136.060000", "181137.550000", "181139.040000", "181140.530000", "181142.020000", "181143.510000", "181145.000000", "181146.490000", "181147.980000", "181149.470000", "181150.960000", "181152.450000", "181153.940000", "181155.430000", "181156.920000", "181158.410000", "181159.900000", "181201.390000", "181202.880000", "181204.370000", "181205.860000", "181207.350000", "181208.840000", "181210.330000", "181211.820000", "181213.310000", "181214.800000", "181216.290000", "181217.780000", "181219.270000", "181220.760000", "181222.250000", "181223.740000", "181225.230000", "181226.720000", "181228.210000", "181229.700000", "181231.190000", "181232.680000", "181234.170000", "181235.660000", "181237.150000", "181238.640000", "181240.130000", "181241.620000", "181243.110000", "181244.600000", "181246.090000", "181247.580000", "181249.070000", "181250.560000", "181252.050000", "181253.540000", "181255.030000", "181256.520000", "181258.010000", "181259.500000", "181300.990000", "181302.480000", "181303.970000", "181305.460000", "181306.950000", "181308.440000", "181309.930000", "181311.420000", "181312.910000", "181314.400000", "181315.890000", "181317.380000", "181318.870000", "181320.360000", "181321.850000", "181323.340000", "181324.830000", "181326.320000", "181327.810000", "181329.300000", "181330.790000", "181332.280000", "181333.770000", "181335.260000", "181336.750000", "181338.240000", "181339.730000", "181341.220000", "181342.710000", "181344.200000", "181345.690000", "181347.180000", "181348.670000", "181350.160000", "181351.650000", "181353.140000", "181354.630000", "181356.120000", "181357.610000", "181359.100000", "181400.590000", "181402.080000", "181403.570000", "181405.060000", "181406.550000", "181408.040000", "181409.530000", "181411.020000", "181412.510000", "181414.000000", "181415.490000", "181416.980000", "181418.470000", "181419.960000", "181421.450000", "181422.940000", "181424.430000", "181425.920000", "181427.410000", "181428.900000", "181430.390000", "181431.880000", "181433.370000", "181434.860000", "181436.350000", "181437.840000", "181439.330000", "181440.820000", "181442.310000", "181443.800000", "181445.290000", "181446.780000", "181448.270000", "181449.760000", "181451.250000", "181452.740000", "181454.230000", "181455.720000", "181457.210000", "181458.700000", "181500.190000", "181501.680000", "181503.170000", "181504.660000", "181506.150000", "181507.640000", "181509.130000", "181510.620000", "181512.110000", "181513.600000", "181515.090000", "181516.580000", "181518.070000", "181519.560000", "181521.050000", "181522.540000", "181524.030000", "181525.520000", "181527.010000", "181528.500000", "181529.990000", "181531.480000", "181532.970000", "181534.460000", "181535.950000", "181537.440000", "181538.930000", "181540.420000", "181541.910000", "181543.400000", "181544.890000", "181546.380000", "181547.870000", "181549.360000", "181550.850000", "181552.340000", "181553.830000", "181555.320000"],
      "ContentTime": ["180521.445000", "180521.449000", "180521.456000", "180521.459000", "180521.462000", "180521.465000", "180521.467000", "180521.470000", "180521.473000", "180521.476000", "180521.479000", "180521.482000", "180521.484000", "180521.487000", "180521.490000", "180521.493000", "180521.505000", "180521.508000", "180521.510000", "180521.513000", "180521.516000", "180521.519000", "180521.522000", "180521.525000", "180521.528000", "180521.530000", "180521.533000", "180521.536000", "180521.539000", "180521.542000", "180521.545000", "180521.547000", "180521.550000", "180521.553000", "180521.556000", "180521.559000", "180521.562000", "180541.415000", "180541.418000", "180541.435000", "180541.438000", "180541.441000", "180541.444000", "180541.447000", "180541.450000", "180541.453000", "180541.456000", "180541.461000", "180541.464000", "180541.467000", "180541.470000", "180541.473000", "180541.476000", "180541.478000", "180541.481000", "180541.484000", "180541.487000", "180601.415000", "180601.418000", "180601.421000", "180601.424000", "180601.426000", "180601.429000", "180601.432000", "180601.435000", "180601.438000", "180601.441000", "180601.443000", "180601.446000", "180601.449000", "180601.452000", "180601.455000", "180601.458000", "180601.460000", "180601.463000", "180601.466000", "180601.469000", "180621.415000", "180621.418000", "180621.421000", "180621.424000", "180621.426000", "180621.429000", "180621.432000", "180621.435000", "180621.438000", "180621.441000", "180621.444000", "180621.446000", "180621.449000", "180621.452000", "180621.455000", "180621.458000", "180621.461000", "180621.463000", "180621.466000", "180621.469000", "180641.415000", "180641.418000", "180641.421000", "180641.424000", "180641.427000", "180641.429000", "180641.432000", "180641.435000", "180641.438000", "180641.441000", "180641.444000", "180641.447000", "180641.450000", "180641.452000", "180641.455000", "180641.458000", "180721.414000", "180721.417000", "180721.420000", "180721.423000", "180721.425000", "180721.428000", "180721.431000", "180721.434000", "180721.437000", "180721.440000", "180721.442000", "180721.445000", "180721.448000", "180721.451000", "180721.454000", "180721.457000", "180721.459000", "180721.462000", "180721.465000", "180721.468000", "180721.471000", "180721.474000", "180721.476000", "180721.479000", "180721.482000", "180721.485000", "180721.488000", "180801.415000", "180801.418000", "180801.421000", "180801.424000", "180801.427000", "180801.430000", "180801.433000", "180801.436000", "180801.439000", "180801.442000", "180801.445000", "180801.447000", "180801.450000", "180801.453000", "180801.456000", "180801.459000", "180801.462000", "180801.465000", "180801.468000", "180801.471000", "180801.474000", "180801.477000", "180801.480000", "180801.483000", "180801.486000", "180801.489000", "180801.492000", "180841.415000", "180841.418000", "180841.421000", "180841.424000", "180841.426000", "180841.429000", "180841.432000", "180841.435000", "180841.438000", "180841.441000", "180841.444000", "180841.446000", "180841.449000", "180841.452000", "180841.455000", "180841.458000", "180841.461000", "180841.463000", "180841.466000", "180841.469000", "180841.472000", "180841.475000", "180841.478000", "180841.481000", "180841.483000", "180841.486000", "180841.489000", "180921.414000", "180921.417000", "180921.420000", "180921.423000", "180921.425000", "180921.428000", "180921.431000", "180921.434000", "180921.437000", "180921.440000", "180921.443000", "180921.445000", "180921.448000", "180921.451000", "180921.454000", "180921.457000", "180921.460000", "180921.463000", "180921.465000", "180921.468000", "180921.471000", "180921.474000", "180921.477000", "180921.480000", "180921.482000", "180921.485000", "180921.494000", "181001.414000", "181001.417000", "181001.420000", "181001.423000", "181001.426000", "181001.429000", "181001.447000", "181001.450000", "181001.453000", "181001.456000", "181001.458000", "181001.461000", "181001.464000", "181001.467000", "181001.470000", "181001.473000", "181001.475000", "181001.478000", "181001.481000", "181001.484000", "181001.487000", "181001.490000", "181001.493000", "181001.496000", "181001.498000", "181001.501000", "181041.415000", "181041.418000", "181041.421000", "181041.424000", "181041.427000", "181041.429000", "181041.432000", "181041.435000", "181041.438000", "181041.441000", "181041.444000", "181041.447000", "181041.449000", "181041.452000", "181041.455000", "181041.458000", "181041.461000", "181041.464000", "181041.466000", "181041.469000", "181041.472000", "181041.475000", "181041.478000", "181041.481000", "181041.484000", "181041.486000", "181041.489000", "181121.415000", "181121.418000", "181121.421000", "181121.424000", "181121.427000", "181121.430000", "181121.433000", "181121.436000", "181121.438000", "181121.441000", "181121.444000", "181121.447000", "181121.450000", "181121.453000", "181121.455000", "181121.458000", "181121.461000", "181121.464000", "181121.467000", "181121.470000", "181121.472000", "181121.475000", "181121.478000", "181121.481000", "181121.484000", "181121.487000", "181121.489000", "181201.414000", "181201.417000", "181201.420000", "181201.423000", "181201.426000", "181201.428000", "181201.431000", "181201.434000", "181201.437000", "181201.440000", "181201.443000", "181201.446000", "181201.448000", "181201.451000", "181201.454000", "181201.457000", "181201.460000", "181201.463000", "181201.465000", "181201.468000", "181201.471000", "181201.474000", "181201.477000", "181201.480000", "181201.483000", "181201.485000", "181201.488000", "181241.415000", "181241.418000", "181241.421000", "181241.424000", "181241.426000", "181241.429000", "181241.432000", "181241.435000", "181241.438000", "181241.441000", "181241.444000", "181241.447000", "181241.449000", "181241.452000", "181241.455000", "181241.458000", "181241.461000", "181241.464000", "181241.466000", "181241.469000", "181241.472000", "181241.475000", "181241.478000", "181241.481000", "181241.484000", "181241.486000", "181241.489000", "181321.415000", "181321.418000", "181321.421000", "181321.424000", "181321.427000", "181321.429000", "181321.432000", "181321.435000", "181321.438000", "181321.441000", "181321.444000", "181321.447000", "181321.450000", "181321.453000", "181321.455000", "181321.458000", "181321.461000", "181321.464000", "181321.467000", "181321.470000", "181321.472000", "181321.475000", "181321.478000", "181321.481000", "181321.484000", "181321.487000", "181321.489000", "181401.414000", "181401.417000", "181401.420000", "181401.423000", "181401.426000", "181401.428000", "181401.431000", "181401.434000", "181401.437000", "181401.440000", "181401.443000", "181401.446000", "181401.449000", "181401.451000", "181401.454000", "181401.457000", "181401.460000", "181401.463000", "181401.466000", "181401.469000", "181401.472000", "181401.474000", "181401.477000", "181401.480000", "181401.483000", "181401.486000", "181401.489000", "181441.414000", "181441.417000", "181441.420000", "181441.423000", "181441.426000", "181441.428000", "181441.431000", "181441.434000", "181441.437000", "181441.440000", "181441.443000", "181441.446000", "181441.448000", "181441.451000", "181441.454000", "181441.457000", "181441.460000", "181441.463000", "181441.466000", "181441.469000", "181441.471000", "181441.474000", "181441.477000", "181441.480000", "181441.483000", "181441.487000", "181521.415000", "181521.418000", "181521.421000", "181521.424000", "181521.426000", "181521.429000", "181521.432000", "181521.435000", "181521.438000", "181521.441000", "181521.444000", "181521.447000", "181521.450000", "181521.452000", "181521.455000", "181521.458000", "181521.461000", "181521.464000", "181521.467000", "181521.470000", "181521.472000", "181521.475000", "181521.478000", "181521.481000", "181521.484000", "181521.487000", "181521.489000", "181557.661000", "181557.665000", "181557.668000", "181557.671000", "181557.673000", "181557.676000", "181557.679000", "181557.682000", "181557.685000", "181557.688000", "181557.691000", "181557.694000", "181557.696000", "181557.699000", "181557.702000", "181557.705000", "181557.708000", "181557.711000", "181557.714000", "181557.717000", "181557.719000", "181557.722000", "181557.725000", "181557.728000", "181557.731000"],
