{
  "AcquisitionMatrixPE": 104,
  "AcquisitionNumber": 1,
  "AcquisitionTime": "18:37:27.545000",
  "BandwidthPerPixelPhaseEncode": 17.17,
  "BaseResolution": 104,
  "BodyPartExamined": "BRAIN",
  "CoilCombinationMethod": "Sum of Squares",
  "ConsistencyInfo": "N4_VE11C_LATEST_20160120",
  "ConversionSoftware": "dcm2niix",
  "ConversionSoftwareVersion": "v1.0.20211006",
  "DerivedVendorReportedEchoSpacing": 0.000560011,
  "DeviceSerialNumber": "167006",
  "DwellTime": 2.1e-06,
  "EchoTime": 0.037,
  "EchoTrainLength": 104,
  "EffectiveEchoSpacing": 0.000560011,
  "FlipAngle": 52,
  "HeudiconvVersion": "0.10.0",
  "ImageComments": "Unaliased MB4/PE3/LB",
  "ImageOrientationPatientDICOM": [0.99993, -0.0118392, -1.74803e-05, 0.0109952, 0.929187, -0.369445],
  "ImageOrientationText": "Tra>Cor(-21.7)>Sag(-0.3)",
  "ImageType": [
    "ORIGINAL",
    "PRIMARY",
    "M",
    "MB",
    "ND",
    "MOSAIC"
],
  "ImagingFrequency": 123.259,
  "InPlanePhaseEncodingDirectionDICOM": "COL",
  "InstitutionAddress": "Chemin Queen-Mary 4565,Montreal,District,CA,H3W 1W5",
  "InstitutionName": "IUGM",
  "InstitutionalDepartmentName": "Department",
  "MRAcquisitionType": "2D",
  "MagneticFieldStrength": 3,
  "Manufacturer": "Siemens",
  "ManufacturersModelName": "Prisma_fit",
  "MatrixCoilMode": "SENSE",
  "Modality": "MR",
  "MultibandAccelerationFactor": 4,
  "PartialFourier": 1,
  "PatientPosition": "HFS",
  "PercentPhaseFOV": 100,
  "PercentSampling": 100,
  "PhaseEncodingDirection": "j",
  "PhaseEncodingSteps": 104,
  "PhaseResolution": 1,
  "PixelBandwidth": 2290,
  "ProcedureStepDescription": "video^friends",
  "ProtocolName": "func_task-friends-s04e17a",
  "PulseSequenceDetails": "%CustomerSeq%\\cmrr_mbep2d_bold",
  "ReceiveCoilActiveElements": "HC2,4,6,7;NC2",
  "ReceiveCoilName": "HeadNeck_64",
  "ReconMatrixPE": 104,
  "RepetitionTime": 1.49,
  "SAR": 0.0385662,
  "ScanOptions": "FS",
  "ScanningSequence": "EP",
  "SequenceName": "epfid2d1_104",
  "SequenceVariant": "SK\\SS",
  "SeriesDescription": "func_task-friends-s04e17a",
  "SeriesNumber": 28,
  "ShimSetting": [622, -7324, -8815, 521, 18, -470, 75, 50],
  "SliceThickness": 2,
  "SliceTiming": [0, 0.785, 0.0975, 0.8825, 0.1975, 0.98, 0.295, 1.0775, 0.3925, 1.1775, 0.49, 1.275, 0.5875, 1.3725, 0.6875, 0, 0.785, 0.0975, 0.8825, 0.1975, 0.98, 0.295, 1.0775, 0.3925, 1.1775, 0.49, 1.275, 0.5875, 1.3725, 0.6875, 0, 0.785, 0.0975, 0.8825, 0.1975, 0.98, 0.295, 1.0775, 0.3925, 1.1775, 0.49, 1.275, 0.5875, 1.3725, 0.6875, 0, 0.785, 0.0975, 0.8825, 0.1975, 0.98, 0.295, 1.0775, 0.3925, 1.1775, 0.49, 1.275, 0.5875, 1.3725, 0.6875],
  "SoftwareVersions": "syngo MR E11",
  "SpacingBetweenSlices": 2,
  "StationName": "MRC35049",
  "TaskName": "s04e17a",
  "TotalReadoutTime": 0.0576811,
  "TxRefAmp": 242.504,
  "WipMemBlock": "5b77ce53-1fa6-4bdb-80d0-91dc97aba4fa||Sequence: R016 ve11c/master r/e634e98; Dec 19 2017 11:00:25 by eja",
  "dcmmeta_affine": [
    [-1.9998598098754883, 0.021990347653627396, -0.008780380710959435, 99.50881958007812],
    [0.023678455501794815, 1.858374834060669, -0.7388386130332947, -70.94644165039062],
    [-3.4960587072419e-05, 0.7388907670974731, 1.8585048913955688, -58.52208709716797],
    [0.0, 0.0, 0.0, 1.0]
],
  "dcmmeta_reorient_transform": [
    [0.0, -1.0, 0.0, 103.0],
    [1.0, 0.0, 0.0, 0.0],
    [0.0, 0.0, 1.0, 0.0],
    [0.0, 0.0, 0.0, 1.0]
],
  "dcmmeta_shape": [104, 104, 60, 478],
  "dcmmeta_slice_dim": 2,
  "dcmmeta_version": 0.6,
  "global": {
    "const": {
      "AcquisitionMatrix": [104, 0, 0, 104],
      "AngioFlag": "N",
      "BitsAllocated": 16,
      "BitsStored": 16,
      "BodyPartExamined": "BRAIN",
      "Columns": 832,
      "EchoNumbers": 1,
      "EchoTime": 37.0,
      "EchoTrainLength": 104,
      "FlipAngle": 52.0,
      "HighBit": 15,
      "ImageOrientationPatient": [0.99992991373487, -0.0118392277036, -1.74802935e-05, 0.01099517372956, 0.92918739364183, -0.3694453865618],
      "ImagePositionPatient": [-837.72728892793, -788.29562474417, 286.5526282338],
      "ImageType": [
        "ORIGINAL",
        "PRIMARY",
        "M",
        "MB",
        "ND",
        "MOSAIC"
],
      "ImagedNucleus": "1H",
      "ImagingFrequency": 123.258918,
      "InPlanePhaseEncodingDirection": "COL",
      "MRAcquisitionType": "2D",
      "MagneticFieldStrength": 3.0,
      "Manufacturer": "SIEMENS",
      "ManufacturerModelName": "Prisma_fit",
      "Modality": "MR",
      "NumberOfAverages": 1.0,
      "NumberOfPhaseEncodingSteps": 104,
      "PercentPhaseFieldOfView": 100.0,
      "PercentSampling": 100.0,
      "PerformedProcedureStepStartTime": "165617.516000",
      "PhotometricInterpretation": "MONOCHROME2",
      "PixelBandwidth": 2290.0,
      "PixelRepresentation": 0,
      "PixelSpacing": [2.0, 2.0],
      "ProtocolName": "func_task-friends-s04e17a",
      "RepetitionTime": 1490.0,
      "Rows": 832,
      "SAR": 0.03856621260197,
      "SamplesPerPixel": 1,
      "ScanOptions": "FS",
      "ScanningSequence": "EP",
      "SequenceName": "epfid2d1_104",
      "SequenceVariant": [
        "SK",
        "SS"
],
      "SeriesDescription": "func_task-friends-s04e17a",
      "SeriesNumber": 28,
      "SeriesTime": "183801.447000",
      "SliceLocation": -28.609670997584,
      "SliceThickness": 2.0,
      "SmallestImagePixelValue": 0,
      "SoftwareVersions": "syngo MR E11",
      "SpacingBetweenSlices": 1.9999999667263,
      "SpecificCharacterSet": "ISO_IR 100",
      "StudyID": "1",
      "StudyTime": "165617.455000",
      "TransmitCoilName": "Body",
      "VariableFlipAngleFlag": "N",
      "WindowCenterWidthExplanation": "Algo1",
      "dBdt": 0.0},
    "slices": {}
  },
  "time": {
    "samples": {
      "AcquisitionNumber": [1, 2, 3, 4, 5, 6, 7, 8, 9, 10, 11, 12, 13, 14, 15, 16, 17, 18, 19, 20, 21, 22, 23, 24, 25, 26, 27, 28, 29, 30, 31, 32, 33, 34, 35, 36, 37, 38, 39, 40, 41, 42, 43, 44, 45, 46, 47, 48, 49, 50, 51, 52, 53, 54, 55, 56, 57, 58, 59, 60, 61, 62, 63, 64, 65, 66, 67, 68, 69, 70, 71, 72, 73, 74, 75, 76, 77, 78, 79, 80, 81, 82, 83, 84, 85, 86, 87, 88, 89, 90, 91, 92, 93, 94, 95, 96, 97, 98, 99, 100, 101, 102, 103, 104, 105, 106, 107, 108, 109, 110, 111, 112, 113, 114, 115, 116, 117, 118, 119, 120, 121, 122, 123, 124, 125, 126, 127, 128, 129, 130, 131, 132, 133, 134, 135, 136, 137, 138, 139, 140, 141, 142, 143, 144, 145, 146, 147, 148, 149, 150, 151, 152, 153, 154, 155, 156, 157, 158, 159, 160, 161, 162, 163, 164, 165, 166, 167, 168, 169, 170, 171, 172, 173, 174, 175, 176, 177, 178, 179, 180, 181, 182, 183, 184, 185, 186, 187, 188, 189, 190, 191, 192, 193, 194, 195, 196, 197, 198, 199, 200, 201, 202, 203, 204, 205, 206, 207, 208, 209, 210, 211, 212, 213, 214, 215, 216, 217, 218, 219, 220, 221, 222, 223, 224, 225, 226, 227, 228, 229, 230, 231, 232, 233, 234, 235, 236, 237, 238, 239, 240, 241, 242, 243, 244, 245, 246, 247, 248, 249, 250, 251, 252, 253, 254, 255, 256, 257, 258, 259, 260, 261, 262, 263, 264, 265, 266, 267, 268, 269, 270, 271, 272, 273, 274, 275, 276, 277, 278, 279, 280, 281, 282, 283, 284, 285, 286, 287, 288, 289, 290, 291, 292, 293, 294, 295, 296, 297, 298, 299, 300, 301, 302, 303, 304, 305, 306, 307, 308, 309, 310, 311, 312, 313, 314, 315, 316, 317, 318, 319, 320, 321, 322, 323, 324, 325, 326, 327, 328, 329, 330, 331, 332, 333, 334, 335, 336, 337, 338, 339, 340, 341, 342, 343, 344, 345, 346, 347, 348, 349, 350, 351, 352, 353, 354, 355, 356, 357, 358, 359, 360, 361, 362, 363, 364, 365, 366, 367, 368, 369, 370, 371, 372, 373, 374, 375, 376, 377, 378, 379, 380, 381, 382, 383, 384, 385, 386, 387, 388, 389, 390, 391, 392, 393, 394, 395, 396, 397, 398, 399, 400, 401, 402, 403, 404, 405, 406, 407, 408, 409, 410, 411, 412, 413, 414, 415, 416, 417, 418, 419, 420, 421, 422, 423, 424, 425, 426, 427, 428, 429, 430, 431, 432, 433, 434, 435, 436, 437, 438, 439, 440, 441, 442, 443, 444, 445, 446, 447, 448, 449, 450, 451, 452, 453, 454, 455, 456, 457, 458, 459, 460, 461, 462, 463, 464, 465, 466, 467, 468, 469, 470, 471, 472, 473, 474, 475, 476, 477, 478],
      "AcquisitionTime": ["183727.545000", "183729.035000", "183730.525000", "183732.015000", "183733.505000", "183734.995000", "183736.485000", "183737.975000", "183739.465000", "183740.955000", "183742.445000", "183743.935000", "183745.425000", "183746.915000", "183748.405000", "183749.895000", "183751.385000", "183752.875000", "183754.365000", "183755.855000", "183757.345000", "183758.835000", "183800.325000", "183801.815000", "183803.305000", "183804.795000", "183806.285000", "183807.775000", "183809.265000", "183810.755000", "183812.245000", "183813.735000", "183815.225000", "183816.715000", "183818.205000", "183819.695000", "183821.185000", "183822.675000", "183824.165000", "183825.655000", "183827.145000", "183828.635000", "183830.125000", "183831.615000", "183833.105000", "183834.595000", "183836.085000", "183837.575000", "183839.065000", "183840.555000", "183842.045000", "183843.535000", "183845.025000", "183846.515000", "183848.005000", "183849.495000", "183850.985000", "183852.475000", "183853.965000", "183855.455000", "183856.945000", "183858.435000", "183859.925000", "183901.415000", "183902.905000", "183904.395000", "183905.885000", "183907.375000", "183908.865000", "183910.355000", "183911.845000", "183913.335000", "183914.825000", "183916.315000", "183917.805000", "183919.295000", "183920.785000", "183922.275000", "183923.765000", "183925.255000", "183926.745000", "183928.235000", "183929.725000", "183931.215000", "183932.705000", "183934.195000", "183935.685000", "183937.175000", "183938.665000", "183940.155000", "183941.645000", "183943.135000", "183944.625000", "183946.115000", "183947.605000", "183949.095000", "183950.585000", "183952.075000", "183953.565000", "183955.055000", "183956.545000", "183958.035000", "183959.525000", "184001.015000", "184002.505000", "184003.995000", "184005.485000", "184006.975000", "184008.465000", "184009.955000", "184011.445000", "184012.935000", "184014.425000", "184015.915000", "184017.405000", "184018.895000", "184020.385000", "184021.875000", "184023.365000", "184024.855000", "184026.345000", "184027.835000", "184029.325000", "184030.815000", "184032.305000", "184033.795000", "184035.285000", "184036.775000", "184038.265000", "184039.755000", "184041.245000", "184042.735000", "184044.225000", "184045.715000", "184047.205000", "184048.695000", "184050.185000", "184051.675000", "184053.165000", "184054.655000", "184056.145000", "184057.635000", "184059.125000", "184100.615000", "184102.105000", "184103.595000", "184105.085000", "184106.575000", "184108.065000", "184109.555000", "184111.045000", "184112.535000", "184114.025000", "184115.515000", "184117.005000", "184118.495000", "184119.985000", "184121.475000", "184122.965000", "184124.455000", "184125.945000", "184127.435000", "184128.925000", "184130.415000", "184131.905000", "184133.395000", "184134.885000", "184136.375000", "184137.865000", "184139.355000", "184140.845000", "184142.335000", "184143.825000", "184145.315000", "184146.805000", "184148.295000", "184149.785000", "184151.275000", "184152.765000", "184154.255000", "184155.745000", "184157.235000", "184158.725000", "184200.215000", "184201.705000", "184203.195000", "184204.685000", "184206.175000", "184207.665000", "184209.155000", "184210.645000", "184212.135000", "184213.625000", "184215.115000", "184216.605000", "184218.095000", "184219.585000", "184221.075000", "184222.565000", "184224.055000", "184225.545000", "184227.035000", "184228.525000", "184230.015000", "184231.505000", "184232.995000", "184234.485000", "184235.975000", "184237.465000", "184238.955000", "184240.445000", "184241.935000", "184243.425000", "184244.915000", "184246.405000", "184247.895000", "184249.385000", "184250.875000", "184252.365000", "184253.855000", "184255.345000", "184256.835000", "184258.325000", "184259.815000", "184301.305000", "184302.795000", "184304.285000", "184305.775000", "184307.265000", "184308.755000", "184310.245000", "184311.735000", "184313.225000", "184314.715000", "184316.205000", "184317.695000", "184319.185000", "184320.675000", "184322.165000", "184323.655000", "184325.145000", "184326.635000", "184328.125000", "184329.615000", "184331.105000", "184332.595000", "184334.085000", "184335.575000", "184337.065000", "184338.555000", "184340.045000", "184341.535000", "184343.025000", "184344.515000", "184346.005000", "184347.495000", "184348.985000", "184350.475000", "184351.965000", "184353.455000", "184354.945000", "184356.435000", "184357.925000", "184359.415000", "184400.905000", "184402.395000", "184403.885000", "184405.375000", "184406.865000", "184408.355000", "184409.845000", "184411.335000", "184412.825000", "184414.315000", "184415.805000", "184417.295000", "184418.785000", "184420.275000", "184421.765000", "184423.255000", "184424.745000", "184426.235000", "184427.725000", "184429.215000", "184430.705000", "184432.195000", "184433.685000", "184435.175000", "184436.665000", "184438.155000", "184439.645000", "184441.135000", "184442.625000", "184444.115000", "184445.605000", "184447.095000", "184448.585000", "184450.075000", "184451.565000", "184453.055000", "184454.545000", "184456.035000", "184457.525000", "184459.015000", "184500.505000", "184501.995000", "184503.485000", "184504.975000", "184506.465000", "184507.955000", "184509.445000", "184510.935000", "184512.425000", "184513.915000", "184515.405000", "184516.895000", "184518.385000", "184519.875000", "184521.365000", "184522.855000", "184524.345000", "184525.835000", "184527.325000", "184528.815000", "184530.305000", "184531.795000", "184533.285000", "184534.775000", "184536.265000", "184537.755000", "184539.245000", "184540.735000", "184542.225000", "184543.715000", "184545.205000", "184546.695000", "184548.185000", "184549.675000", "184551.165000", "184552.655000", "184554.145000", "184555.635000", "184557.125000", "184558.615000", "184600.105000", "184601.595000", "184603.085000", "184604.575000", "184606.065000", "184607.555000", "184609.045000", "184610.535000", "184612.025000", "184613.515000", "184615.005000", "184616.495000", "184617.985000", "184619.475000", "184620.965000", "184622.455000", "184623.945000", "184625.435000", "184626.925000", "184628.415000", "184629.905000", "184631.395000", "184632.885000", "184634.375000", "184635.865000", "184637.355000", "184638.845000", "184640.335000", "184641.825000", "184643.315000", "184644.805000", "184646.295000", "184647.785000", "184649.275000", "184650.765000", "184652.255000", "184653.745000", "184655.235000", "184656.725000", "184658.215000", "184659.705000", "184701.195000", "184702.685000", "184704.175000", "184705.665000", "184707.155000", "184708.645000", "184710.135000", "184711.625000", "184713.115000", "184714.605000", "184716.095000", "184717.585000", "184719.075000", "184720.565000", "184722.055000", "184723.545000", "184725.035000", "184726.525000", "184728.015000", "184729.505000", "184730.995000", "184732.485000", "184733.975000", "184735.465000", "184736.955000", "184738.445000", "184739.935000", "184741.425000", "184742.915000", "184744.405000", "184745.895000", "184747.385000", "184748.875000", "184750.365000", "184751.855000", "184753.345000", "184754.835000", "184756.325000", "184757.815000", "184759.305000", "184800.795000", "184802.285000", "184803.775000", "184805.265000", "184806.755000", "184808.245000", "184809.735000", "184811.225000", "184812.715000", "184814.205000", "184815.695000", "184817.185000", "184818.675000", "184820.165000", "184821.655000", "184823.145000", "184824.635000", "184826.125000", "184827.615000", "184829.105000", "184830.595000", "184832.085000", "184833.575000", "184835.065000", "184836.555000", "184838.045000", "184839.535000", "184841.025000", "184842.515000", "184844.005000", "184845.495000", "184846.985000", "184848.475000", "184849.965000", "184851.455000", "184852.945000", "184854.435000", "184855.925000", "184857.415000", "184858.905000", "184900.395000", "184901.885000", "184903.375000", "184904.865000", "184906.355000", "184907.845000", "184909.335000", "184910.825000", "184912.315000", "184913.805000", "184915.295000", "184916.785000", "184918.275000"],
      "ContentTime": ["183801.450000", "183801.453000", "183801.456000", "183801.459000", "183801.462000", "183801.465000", "183801.468000", "183801.471000", "183801.477000", "183801.480000", "183801.483000", "183801.523000", "183801.526000", "183801.529000", "183801.531000", "183801.534000", "183841.415000", "183841.418000", "183841.421000", "183841.423000", "183841.426000", "183841.429000", "183841.432000", "183841.435000", "183841.438000", "183841.441000", "183841.443000", "183841.446000", "183841.449000", "183841.452000", "183841.455000", "183841.457000", "183841.460000", "183841.463000", "183841.466000", "183841.469000", "183841.471000", "183841.474000", "183841.477000", "183841.480000", "183841.486000", "183841.489000", "183841.492000", "183841.495000", "183841.497000", "183841.500000", "183841.503000", "183841.506000", "183921.414000", "183921.417000", "183921.420000", "183921.423000", "183921.426000", "183921.428000", "183921.431000", "183921.434000", "183921.437000", "183921.440000", "183921.443000", "183921.446000", "183921.449000", "183921.451000", "183921.454000", "183921.457000", "183921.460000", "183921.463000", "183921.466000", "183921.468000", "183921.471000", "183921.474000", "183921.477000", "183921.480000", "183921.483000", "183921.485000", "183921.488000", "184001.414000", "184001.417000", "184001.420000", "184001.422000", "184001.431000", "184001.434000", "184001.437000", "184001.447000", "184001.450000", "184001.453000", "184001.456000", "184001.459000", "184001.461000", "184001.464000", "184001.467000", "184001.470000", "184001.473000", "184001.476000", "184001.478000", "184001.481000", "184001.484000", "184001.487000", "184001.490000", "184001.493000", "184001.495000", "184001.498000", "184001.501000", "184041.415000", "184041.418000", "184041.421000", "184041.424000", "184041.427000", "184041.430000", "184041.433000", "184041.436000", "184041.439000", "184041.441000", "184041.444000", "184041.447000", "184041.450000", "184041.453000", "184041.455000", "184041.459000", "184041.462000", "184041.465000", "184041.468000", "184041.471000", "184041.474000", "184041.477000", "184041.480000", "184041.482000", "184041.485000", "184041.488000", "184041.491000", "184121.415000", "184121.418000", "184121.421000", "184121.424000", "184121.427000", "184121.430000", "184121.433000", "184121.436000", "184121.439000", "184121.442000", "184121.445000", "184121.448000", "184121.450000", "184121.453000", "184121.456000", "184121.459000", "184121.462000", "184121.466000", "184121.469000", "184121.472000", "184121.475000", "184121.478000", "184121.482000", "184121.485000", "184121.489000", "184121.492000", "184121.496000", "184201.414000", "184201.417000", "184201.420000", "184201.423000", "184201.426000", "184201.428000", "184201.431000", "184201.434000", "184201.437000", "184201.440000", "184201.443000", "184201.445000", "184201.448000", "184201.451000", "184201.454000", "184201.457000", "184201.460000", "184201.462000", "184201.465000", "184201.468000", "184201.471000", "184201.474000", "184201.477000", "184201.480000", "184201.483000", "184201.486000", "184201.489000", "184241.416000", "184241.419000", "184241.422000", "184241.425000", "184241.428000", "184241.431000", "184241.434000", "184241.437000", "184241.440000", "184241.442000", "184241.445000", "184241.448000", "184241.451000", "184241.454000", "184241.457000", "184241.459000", "184241.462000", "184241.465000", "184241.468000", "184241.471000", "184241.474000", "184241.478000", "184241.482000", "184241.486000", "184241.489000", "184241.492000", "184321.415000", "184321.418000", "184321.421000", "184321.424000", "184321.427000", "184321.430000", "184321.432000", "184321.435000", "184321.438000", "184321.441000", "184321.444000", "184321.447000", "184321.449000", "184321.452000", "184321.455000", "184321.458000", "184321.461000", "184321.464000", "184321.466000", "184321.469000", "184321.472000", "184321.475000", "184321.478000", "184321.481000", "184321.483000", "184321.486000", "184321.489000", "184401.414000", "184401.417000", "184401.420000", "184401.423000", "184401.426000", "184401.429000", "184401.432000", "184401.435000", "184401.438000", "184401.441000", "184401.444000", "184401.447000", "184401.450000", "184401.453000", "184401.456000", "184401.459000", "184401.461000", "184401.464000", "184401.467000", "184401.470000", "184401.473000", "184401.476000", "184401.479000", "184401.482000", "184401.485000", "184401.488000", "184401.491000", "184441.414000", "184441.417000", "184441.420000", "184441.423000", "184441.441000", "184441.444000", "184441.447000", "184441.450000", "184441.453000", "184441.455000", "184441.458000", "184441.461000", "184441.464000", "184441.467000", "184441.470000", "184441.473000", "184441.475000", "184441.478000", "184441.481000", "184441.484000", "184441.487000", "184441.490000", "184441.493000", "184441.495000", "184441.498000", "184441.501000", "184441.504000", "184521.415000", "184521.418000", "184521.421000", "184521.424000", "184521.427000", "184521.429000", "184521.432000", "184521.435000", "184521.438000", "184521.441000", "184521.444000", "184521.447000", "184521.450000", "184521.453000", "184521.456000", "184521.459000", "184521.462000", "184521.465000", "184521.468000", "184521.471000", "184521.474000", "184521.477000", "184521.479000", "184521.482000", "184521.485000", "184521.488000", "184521.491000", "184601.415000", "184601.418000", "184601.421000", "184601.424000", "184601.427000", "184601.430000", "184601.432000", "184601.435000", "184601.438000", "184601.441000", "184601.444000", "184601.447000", "184601.449000", "184601.452000", "184601.455000", "184601.458000", "184601.461000", "184601.464000", "184601.467000", "184601.470000", "184601.472000", "184601.475000", "184601.478000", "184601.481000", "184601.484000", "184601.487000", "184601.489000", "184641.414000", "184641.417000", "184641.420000", "184641.423000", "184641.426000", "184641.428000", "184641.431000", "184641.434000", "184641.437000", "184641.440000", "184641.443000", "184641.446000", "184641.448000", "184641.451000", "184641.454000", "184641.457000", "184641.460000", "184641.463000", "184641.466000", "184641.468000", "184641.471000", "184641.474000", "184641.477000", "184641.480000", "184641.483000", "184641.485000", "184641.488000", "184721.415000", "184721.418000", "184721.421000", "184721.424000", "184721.427000", "184721.430000", "184721.432000", "184721.435000", "184721.438000", "184721.441000", "184721.444000", "184721.447000", "184721.450000", "184721.452000", "184721.455000", "184721.458000", "184721.461000", "184721.464000", "184721.467000", "184721.469000", "184721.472000", "184721.475000", "184721.478000", "184721.481000", "184721.484000", "184721.486000", "184801.415000", "184801.418000", "184801.421000", "184801.424000", "184801.427000", "184801.431000", "184801.434000", "184801.436000", "184801.439000", "184801.442000", "184801.445000", "184801.448000", "184801.451000", "184801.453000", "184801.456000", "184801.459000", "184801.462000", "184801.465000", "184801.468000", "184801.471000", "184801.473000", "184801.476000", "184801.479000", "184801.482000", "184801.485000", "184801.488000", "184801.491000", "184841.414000", "184841.417000", "184841.420000", "184841.423000", "184841.426000", "184841.428000", "184841.431000", "184841.434000", "184841.437000", "184841.440000", "184841.443000", "184841.446000", "184841.449000", "184841.451000", "184841.454000", "184841.457000", "184841.460000", "184841.463000", "184841.466000", "184841.469000", "184841.471000", "184841.474000", "184841.477000", "184841.480000", "184841.483000", "184841.486000", "184841.489000", "184920.865000", "184920.869000", "184920.872000", "184920.875000", "184920.878000", "184920.881000", "184920.884000", "184920.887000", "184920.890000", "184920.892000", "184920.895000", "184920.898000", "184920.901000", "184920.904000", "184920.907000", "184920.910000", "184920.913000", "184920.915000", "184920.918000", "184920.921000", "184920.925000", "184920.928000", "184920.930000", "184920.933000", "184920.936000", "184920.939000", "184920.942000"],
