{
  "AcquisitionMatrixPE": 104,
  "AcquisitionNumber": 1,
  "AcquisitionTime": "17:04:31.142500",
  "B0FieldSource": "sub-05_ses-025_task-s04e14a_bold.nii.gz",
  "BandwidthPerPixelPhaseEncode": 17.17,
  "BaseResolution": 104,
  "BodyPartExamined": "BRAIN",
  "CoilString": "HC1-7;NC1_2",
  "ConsistencyInfo": "N4_VE11C_LATEST_20160120",
  "ConversionSoftware": "dcm2niix",
  "ConversionSoftwareVersion": "v1.0.20190902",
  "DerivedVendorReportedEchoSpacing": 0.000560011,
  "DeviceSerialNumber": "167006",
  "DwellTime": 2.1e-06,
  "EchoTime": 0.037,
  "EchoTrainLength": 104,
  "EffectiveEchoSpacing": 0.000560011,
  "FlipAngle": 52,
  "ImageComments": "Unaliased_MB4_PE3_LB",
  "ImageOrientationPatientDICOM": [0.999902, -0.0101426, -0.00966023, 0.00593358, 0.931458, -0.363801],
  "ImageType": [
    "ORIGINAL",
    "PRIMARY",
    "M",
    "MB",
    "ND",
    "MOSAIC"
],
  "ImagingFrequency": 123.259,
  "InPlanePhaseEncodingDirectionDICOM": "COL",
  "InstitutionAddress": "Chemin_Queen-Mary_4565_Montreal_District_CA_H3W_1W5",
  "InstitutionName": "IUGM",
  "InstitutionalDepartmentName": "Department",
  "MRAcquisitionType": "2D",
  "MagneticFieldStrength": 3,
  "Manufacturer": "Siemens",
  "ManufacturersModelName": "Prisma_fit",
  "Modality": "MR",
  "MultibandAccelerationFactor": 4,
  "PartialFourier": 1,
  "PatientPosition": "HFS",
  "PercentPhaseFOV": 100,
  "PhaseEncodingDirection": "j",
  "PhaseEncodingSteps": 104,
  "PhaseResolution": 1,
  "PixelBandwidth": 2290,
  "ProcedureStepDescription": "video_friends",
  "ProtocolName": "func_task-friends-s04e14a",
  "PulseSequenceDetails": "%CustomerSeq%_cmrr_mbep2d_bold",
  "ReceiveCoilActiveElements": "HC1-7;NC1,2",
  "ReceiveCoilName": "HeadNeck_64",
  "ReconMatrixPE": 104,
  "RepetitionTime": 1.49,
  "SAR": 0.0349203,
  "ScanOptions": "FS",
  "ScanningSequence": "EP",
  "SequenceName": "epfid2d1_104",
  "SequenceVariant": "SK_SS",
  "SeriesDescription": "func_task-friends-s04e14a",
  "SeriesNumber": 9,
  "ShimSetting": [620, -7285, -8824, 460, 36, -454, 48, 41],
  "SliceThickness": 2,
  "SliceTiming": [0, 0.7825, 0.0975, 0.88, 0.195, 0.98, 0.2925, 1.0775, 0.39, 1.175, 0.49, 1.2725, 0.5875, 1.37, 0.685, 0, 0.7825, 0.0975, 0.88, 0.195, 0.98, 0.2925, 1.0775, 0.39, 1.175, 0.49, 1.2725, 0.5875, 1.37, 0.685, 0, 0.7825, 0.0975, 0.88, 0.195, 0.98, 0.2925, 1.0775, 0.39, 1.175, 0.49, 1.2725, 0.5875, 1.37, 0.685, 0, 0.7825, 0.0975, 0.88, 0.195, 0.98, 0.2925, 1.0775, 0.39, 1.175, 0.49, 1.2725, 0.5875, 1.37, 0.685],
  "SoftwareVersions": "syngo_MR_E11",
  "SpacingBetweenSlices": 2,
  "StationName": "MRC35049",
  "TaskName": "s04e14a",
  "TotalReadoutTime": 0.0576811,
  "TxRefAmp": 234.267,
  "WipMemBlock": "66e7d91e-df93-4e2c-b1a1-e718f74d3e11||Sequence: R016 ve11c/master r/e634e98; Dec 19 2017 11:00:25 by eja",
  "dcmmeta_affine": [
    [-1.9998037815093994, 0.011867163702845573, -0.02537596970796585, 100.70663452148438],
    [0.020285191014409065, 1.8629157543182373, -0.7274156212806702, -71.23199462890625],
    [-0.019320465624332428, 0.7276016473770142, 1.8628532886505127, -59.81240463256836],
    [0.0, 0.0, 0.0, 1.0]
],
  "dcmmeta_reorient_transform": [
    [0.0, -1.0, 0.0, 103.0],
    [1.0, 0.0, 0.0, 0.0],
    [0.0, 0.0, 1.0, 0.0],
    [0.0, 0.0, 0.0, 1.0]
],
  "dcmmeta_shape": [104, 104, 60, 447],
  "dcmmeta_slice_dim": 2,
  "dcmmeta_version": 0.6,
  "global": {
    "const": {
      "AcquisitionMatrix": [104, 0, 0, 104],
      "AngioFlag": "N",
      "BitsAllocated": 16,
      "BitsStored": 16,
      "BodyPartExamined": "BRAIN",
      "Columns": 832,
      "EchoNumbers": 1,
      "EchoTime": 37.0,
      "EchoTrainLength": 104,
      "FlipAngle": 52.0,
      "HighBit": 15,
      "ImageOrientationPatient": [0.99990189900972, -0.0101425958514, -0.0096602332352, 0.00593358197828, 0.9314578651632, -0.3638008219212],
      "ImagePositionPatient": [-834.1771829128, -791.36583940681, 287.01021297186],
      "ImageType": [
        "ORIGINAL",
        "PRIMARY",
        "M",
        "MB",
        "ND",
        "MOSAIC"
],
      "ImagedNucleus": "1H",
      "ImagingFrequency": 123.258901,
      "InPlanePhaseEncodingDirection": "COL",
      "MRAcquisitionType": "2D",
      "MagneticFieldStrength": 3.0,
      "Manufacturer": "SIEMENS",
      "ManufacturerModelName": "Prisma_fit",
      "Modality": "MR",
      "NumberOfAverages": 1.0,
      "NumberOfPhaseEncodingSteps": 104,
      "PercentPhaseFieldOfView": 100.0,
      "PercentSampling": 100.0,
      "PerformedProcedureStepStartTime": "165617.516000",
      "PhotometricInterpretation": "MONOCHROME2",
      "PixelBandwidth": 2290.0,
      "PixelRepresentation": 0,
      "PixelSpacing": [2.0, 2.0],
      "ProtocolName": "func_task-friends-s04e14a",
      "RepetitionTime": 1490.0,
      "Rows": 832,
      "SAR": 0.03492027591231,
      "SamplesPerPixel": 1,
      "ScanOptions": "FS",
      "ScanningSequence": "EP",
      "SequenceName": "epfid2d1_104",
      "SequenceVariant": [
        "SK",
        "SS"
],
      "SeriesDescription": "func_task-friends-s04e14a",
      "SeriesNumber": 9,
      "SeriesTime": "170557.413000",
      "SliceLocation": -31.080999227493,
      "SliceThickness": 2.0,
      "SmallestImagePixelValue": 0,
      "SoftwareVersions": "syngo MR E11",
      "SpacingBetweenSlices": 1.9999999589675,
      "SpecificCharacterSet": "ISO_IR 100",
      "StudyID": "1",
      "StudyTime": "165617.455000",
      "TransmitCoilName": "Body",
      "VariableFlipAngleFlag": "N",
      "WindowCenterWidthExplanation": "Algo1",
      "dBdt": 0.0},
    "slices": {}
  },
  "time": {
    "samples": {
      "AcquisitionNumber": [1, 2, 3, 4, 5, 6, 7, 8, 9, 10, 11, 12, 13, 14, 15, 16, 17, 18, 19, 20, 21, 22, 23, 24, 25, 26, 27, 28, 29, 30, 31, 32, 33, 34, 35, 36, 37, 38, 39, 40, 41, 42, 43, 44, 45, 46, 47, 48, 49, 50, 51, 52, 53, 54, 55, 56, 57, 58, 59, 60, 61, 62, 63, 64, 65, 66, 67, 68, 69, 70, 71, 72, 73, 74, 75, 76, 77, 78, 79, 80, 81, 82, 83, 84, 85, 86, 87, 88, 89, 90, 91, 92, 93, 94, 95, 96, 97, 98, 99, 100, 101, 102, 103, 104, 105, 106, 107, 108, 109, 110, 111, 112, 113, 114, 115, 116, 117, 118, 119, 120, 121, 122, 123, 124, 125, 126, 127, 128, 129, 130, 131, 132, 133, 134, 135, 136, 137, 138, 139, 140, 141, 142, 143, 144, 145, 146, 147, 148, 149, 150, 151, 152, 153, 154, 155, 156, 157, 158, 159, 160, 161, 162, 163, 164, 165, 166, 167, 168, 169, 170, 171, 172, 173, 174, 175, 176, 177, 178, 179, 180, 181, 182, 183, 184, 185, 186, 187, 188, 189, 190, 191, 192, 193, 194, 195, 196, 197, 198, 199, 200, 201, 202, 203, 204, 205, 206, 207, 208, 209, 210, 211, 212, 213, 214, 215, 216, 217, 218, 219, 220, 221, 222, 223, 224, 225, 226, 227, 228, 229, 230, 231, 232, 233, 234, 235, 236, 237, 238, 239, 240, 241, 242, 243, 244, 245, 246, 247, 248, 249, 250, 251, 252, 253, 254, 255, 256, 257, 258, 259, 260, 261, 262, 263, 264, 265, 266, 267, 268, 269, 270, 271, 272, 273, 274, 275, 276, 277, 278, 279, 280, 281, 282, 283, 284, 285, 286, 287, 288, 289, 290, 291, 292, 293, 294, 295, 296, 297, 298, 299, 300, 301, 302, 303, 304, 305, 306, 307, 308, 309, 310, 311, 312, 313, 314, 315, 316, 317, 318, 319, 320, 321, 322, 323, 324, 325, 326, 327, 328, 329, 330, 331, 332, 333, 334, 335, 336, 337, 338, 339, 340, 341, 342, 343, 344, 345, 346, 347, 348, 349, 350, 351, 352, 353, 354, 355, 356, 357, 358, 359, 360, 361, 362, 363, 364, 365, 366, 367, 368, 369, 370, 371, 372, 373, 374, 375, 376, 377, 378, 379, 380, 381, 382, 383, 384, 385, 386, 387, 388, 389, 390, 391, 392, 393, 394, 395, 396, 397, 398, 399, 400, 401, 402, 403, 404, 405, 406, 407, 408, 409, 410, 411, 412, 413, 414, 415, 416, 417, 418, 419, 420, 421, 422, 423, 424, 425, 426, 427, 428, 429, 430, 431, 432, 433, 434, 435, 436, 437, 438, 439, 440, 441, 442, 443, 444, 445, 446, 447],
      "AcquisitionTime": ["170431.142500", "170432.632500", "170434.122500", "170435.612500", "170437.102500", "170438.592500", "170440.082500", "170441.572500", "170443.062500", "170444.552500", "170446.042500", "170447.532500", "170449.022500", "170450.512500", "170452.002500", "170453.492500", "170454.982500", "170456.472500", "170457.962500", "170459.452500", "170500.942500", "170502.432500", "170503.922500", "170505.412500", "170506.902500", "170508.392500", "170509.882500", "170511.372500", "170512.862500", "170514.352500", "170515.842500", "170517.332500", "170518.822500", "170520.312500", "170521.802500", "170523.292500", "170524.782500", "170526.272500", "170527.762500", "170529.252500", "170530.742500", "170532.232500", "170533.722500", "170535.212500", "170536.702500", "170538.192500", "170539.682500", "170541.172500", "170542.662500", "170544.152500", "170545.642500", "170547.132500", "170548.622500", "170550.112500", "170551.602500", "170553.092500", "170554.582500", "170556.072500", "170557.562500", "170559.052500", "170600.542500", "170602.032500", "170603.522500", "170605.012500", "170606.502500", "170607.992500", "170609.482500", "170610.972500", "170612.462500", "170613.952500", "170615.442500", "170616.932500", "170618.422500", "170619.912500", "170621.402500", "170622.892500", "170624.382500", "170625.872500", "170627.362500", "170628.852500", "170630.342500", "170631.832500", "170633.322500", "170634.812500", "170636.302500", "170637.792500", "170639.282500", "170640.772500", "170642.262500", "170643.752500", "170645.242500", "170646.732500", "170648.222500", "170649.712500", "170651.202500", "170652.692500", "170654.182500", "170655.672500", "170657.162500", "170658.652500", "170700.142500", "170701.632500", "170703.122500", "170704.612500", "170706.102500", "170707.592500", "170709.082500", "170710.572500", "170712.062500", "170713.552500", "170715.042500", "170716.532500", "170718.022500", "170719.512500", "170721.002500", "170722.492500", "170723.982500", "170725.472500", "170726.962500", "170728.452500", "170729.942500", "170731.432500", "170732.922500", "170734.412500", "170735.902500", "170737.392500", "170738.882500", "170740.372500", "170741.862500", "170743.352500", "170744.842500", "170746.332500", "170747.822500", "170749.312500", "170750.802500", "170752.292500", "170753.782500", "170755.272500", "170756.762500", "170758.252500", "170759.742500", "170801.232500", "170802.722500", "170804.212500", "170805.702500", "170807.192500", "170808.682500", "170810.172500", "170811.662500", "170813.152500", "170814.642500", "170816.132500", "170817.622500", "170819.112500", "170820.602500", "170822.092500", "170823.582500", "170825.072500", "170826.562500", "170828.052500", "170829.542500", "170831.032500", "170832.522500", "170834.012500", "170835.502500", "170836.992500", "170838.482500", "170839.972500", "170841.462500", "170842.952500", "170844.442500", "170845.932500", "170847.422500", "170848.912500", "170850.402500", "170851.892500", "170853.382500", "170854.872500", "170856.362500", "170857.852500", "170859.342500", "170900.832500", "170902.322500", "170903.812500", "170905.302500", "170906.792500", "170908.282500", "170909.772500", "170911.262500", "170912.752500", "170914.242500", "170915.732500", "170917.222500", "170918.712500", "170920.202500", "170921.692500", "170923.182500", "170924.672500", "170926.162500", "170927.652500", "170929.142500", "170930.632500", "170932.122500", "170933.612500", "170935.102500", "170936.592500", "170938.082500", "170939.572500", "170941.062500", "170942.552500", "170944.042500", "170945.532500", "170947.022500", "170948.512500", "170950.002500", "170951.492500", "170952.982500", "170954.472500", "170955.962500", "170957.452500", "170958.942500", "171000.432500", "171001.922500", "171003.412500", "171004.902500", "171006.392500", "171007.882500", "171009.372500", "171010.862500", "171012.352500", "171013.842500", "171015.332500", "171016.822500", "171018.312500", "171019.802500", "171021.292500", "171022.782500", "171024.272500", "171025.762500", "171027.252500", "171028.742500", "171030.232500", "171031.722500", "171033.212500", "171034.702500", "171036.192500", "171037.682500", "171039.172500", "171040.662500", "171042.152500", "171043.642500", "171045.132500", "171046.622500", "171048.112500", "171049.602500", "171051.092500", "171052.582500", "171054.072500", "171055.562500", "171057.052500", "171058.542500", "171100.032500", "171101.522500", "171103.012500", "171104.502500", "171105.992500", "171107.482500", "171108.972500", "171110.462500", "171111.952500", "171113.442500", "171114.932500", "171116.422500", "171117.912500", "171119.402500", "171120.892500", "171122.382500", "171123.872500", "171125.362500", "171126.852500", "171128.342500", "171129.832500", "171131.322500", "171132.812500", "171134.302500", "171135.792500", "171137.282500", "171138.772500", "171140.262500", "171141.752500", "171143.242500", "171144.732500", "171146.222500", "171147.712500", "171149.202500", "171150.692500", "171152.182500", "171153.672500", "171155.162500", "171156.652500", "171158.142500", "171159.632500", "171201.122500", "171202.612500", "171204.102500", "171205.592500", "171207.082500", "171208.572500", "171210.062500", "171211.552500", "171213.042500", "171214.532500", "171216.022500", "171217.512500", "171219.002500", "171220.492500", "171221.982500", "171223.472500", "171224.962500", "171226.452500", "171227.942500", "171229.432500", "171230.922500", "171232.412500", "171233.902500", "171235.392500", "171236.882500", "171238.372500", "171239.862500", "171241.352500", "171242.842500", "171244.332500", "171245.822500", "171247.312500", "171248.802500", "171250.292500", "171251.782500", "171253.272500", "171254.762500", "171256.252500", "171257.742500", "171259.232500", "171300.722500", "171302.212500", "171303.702500", "171305.192500", "171306.682500", "171308.172500", "171309.662500", "171311.152500", "171312.642500", "171314.132500", "171315.622500", "171317.112500", "171318.602500", "171320.092500", "171321.582500", "171323.072500", "171324.562500", "171326.052500", "171327.542500", "171329.032500", "171330.522500", "171332.012500", "171333.502500", "171334.992500", "171336.482500", "171337.972500", "171339.462500", "171340.952500", "171342.442500", "171343.932500", "171345.422500", "171346.912500", "171348.402500", "171349.892500", "171351.382500", "171352.872500", "171354.362500", "171355.852500", "171357.342500", "171358.832500", "171400.322500", "171401.812500", "171403.302500", "171404.792500", "171406.282500", "171407.772500", "171409.262500", "171410.752500", "171412.242500", "171413.732500", "171415.222500", "171416.712500", "171418.202500", "171419.692500", "171421.182500", "171422.672500", "171424.162500", "171425.652500", "171427.142500", "171428.632500", "171430.122500", "171431.612500", "171433.102500", "171434.592500", "171436.082500", "171437.572500", "171439.062500", "171440.552500", "171442.042500", "171443.532500", "171445.022500", "171446.512500", "171448.002500", "171449.492500", "171450.982500", "171452.472500", "171453.962500", "171455.452500", "171456.942500", "171458.432500", "171459.922500", "171501.412500", "171502.902500", "171504.392500", "171505.882500", "171507.372500", "171508.862500", "171510.352500", "171511.842500", "171513.332500", "171514.822500", "171516.312500", "171517.802500", "171519.292500", "171520.782500", "171522.272500", "171523.762500", "171525.252500", "171526.742500", "171528.232500", "171529.722500", "171531.212500", "171532.702500", "171534.192500", "171535.682500"],
      "ContentTime": ["170557.416000", "170557.419000", "170557.422000", "170557.425000", "170557.427000", "170557.430000", "170557.433000", "170557.436000", "170557.439000", "170557.442000", "170557.445000", "170557.447000", "170557.450000", "170557.453000", "170557.456000", "170557.459000", "170557.462000", "170557.464000", "170557.477000", "170557.479000", "170557.482000", "170557.485000", "170557.488000", "170557.491000", "170557.493000", "170557.496000", "170557.499000", "170557.502000", "170557.505000", "170557.508000", "170557.511000", "170617.385000", "170617.398000", "170617.401000", "170617.404000", "170617.407000", "170617.410000", "170617.412000", "170617.415000", "170617.418000", "170617.421000", "170617.424000", "170617.427000", "170617.429000", "170617.432000", "170617.435000", "170617.438000", "170617.441000", "170617.443000", "170617.446000", "170617.449000", "170637.385000", "170637.388000", "170637.391000", "170637.393000", "170637.404000", "170637.407000", "170637.410000", "170637.412000", "170637.415000", "170637.418000", "170637.421000", "170637.423000", "170637.426000", "170637.429000", "170637.432000", "170637.435000", "170637.438000", "170637.440000", "170637.443000", "170637.446000", "170637.449000", "170657.385000", "170657.388000", "170657.391000", "170657.393000", "170657.396000", "170657.399000", "170657.402000", "170657.405000", "170657.408000", "170657.411000", "170657.413000", "170657.416000", "170657.419000", "170657.431000", "170657.434000", "170657.437000", "170657.440000", "170657.443000", "170657.445000", "170657.448000", "170737.395000", "170737.398000", "170737.401000", "170737.404000", "170737.407000", "170737.410000", "170737.412000", "170737.415000", "170737.418000", "170737.421000", "170737.424000", "170737.426000", "170737.429000", "170737.432000", "170737.435000", "170737.438000", "170737.441000", "170737.444000", "170737.446000", "170737.449000", "170737.452000", "170737.464000", "170737.467000", "170737.470000", "170737.472000", "170737.475000", "170737.478000", "170737.481000", "170737.484000", "170737.487000", "170737.489000", "170737.492000", "170817.385000", "170817.388000", "170817.391000", "170817.393000", "170817.396000", "170817.399000", "170817.402000", "170817.405000", "170817.407000", "170817.410000", "170817.413000", "170817.416000", "170817.419000", "170817.422000", "170817.424000", "170817.427000", "170817.430000", "170817.433000", "170817.436000", "170817.439000", "170817.441000", "170817.444000", "170817.447000", "170817.450000", "170817.453000", "170817.456000", "170817.459000", "170857.385000", "170857.388000", "170857.391000", "170857.393000", "170857.401000", "170857.404000", "170857.407000", "170857.410000", "170857.413000", "170857.415000", "170857.418000", "170857.421000", "170857.424000", "170857.427000", "170857.430000", "170857.433000", "170857.435000", "170857.438000", "170857.441000", "170857.444000", "170857.447000", "170857.450000", "170857.452000", "170857.455000", "170857.458000", "170857.461000", "170857.464000", "170937.384000", "170937.387000", "170937.390000", "170937.393000", "170937.396000", "170937.399000", "170937.402000", "170937.405000", "170937.407000", "170937.410000", "170937.413000", "170937.416000", "170937.419000", "170937.422000", "170937.424000", "170937.427000", "170937.430000", "170937.433000", "170937.436000", "170937.439000", "170937.441000", "170937.444000", "170937.447000", "170937.450000", "170937.453000", "170937.456000", "171017.384000", "171017.387000", "171017.390000", "171017.393000", "171017.395000", "171017.398000", "171017.401000", "171017.404000", "171017.407000", "171017.410000", "171017.412000", "171017.415000", "171017.418000", "171017.421000", "171017.424000", "171017.427000", "171017.429000", "171017.432000", "171017.435000", "171017.438000", "171017.441000", "171017.444000", "171017.446000", "171017.449000", "171017.452000", "171017.455000", "171017.458000", "171057.385000", "171057.388000", "171057.391000", "171057.399000", "171057.402000", "171057.405000", "171057.408000", "171057.411000", "171057.414000", "171057.417000", "171057.420000", "171057.422000", "171057.425000", "171057.428000", "171057.431000", "171057.434000", "171057.437000", "171057.439000", "171057.442000", "171057.445000", "171057.448000", "171057.451000", "171057.453000", "171057.456000", "171057.459000", "171057.462000", "171057.465000", "171137.385000", "171137.388000", "171137.391000", "171137.394000", "171137.397000", "171137.400000", "171137.402000", "171137.405000", "171137.408000", "171137.411000", "171137.414000", "171137.417000", "171137.419000", "171137.422000", "171137.425000", "171137.428000", "171137.431000", "171137.434000", "171137.437000", "171137.439000", "171137.442000", "171137.445000", "171137.448000", "171137.451000", "171137.454000", "171137.456000", "171137.459000", "171217.384000", "171217.387000", "171217.390000", "171217.393000", "171217.395000", "171217.398000", "171217.401000", "171217.404000", "171217.407000", "171217.422000", "171217.425000", "171217.428000", "171217.431000", "171217.433000", "171217.436000", "171217.439000", "171217.442000", "171217.445000", "171217.448000", "171217.450000", "171217.453000", "171217.456000", "171217.459000", "171217.462000", "171217.465000", "171217.468000", "171217.471000", "171257.385000", "171257.388000", "171257.391000", "171257.394000", "171257.397000", "171257.399000", "171257.402000", "171257.405000", "171257.408000", "171257.411000", "171257.414000", "171257.416000", "171257.419000", "171257.422000", "171257.425000", "171257.428000", "171257.430000", "171257.433000", "171257.436000", "171257.439000", "171257.442000", "171257.455000", "171257.458000", "171257.461000", "171257.464000", "171257.467000", "171257.470000", "171337.385000", "171337.388000", "171337.391000", "171337.394000", "171337.396000", "171337.399000", "171337.402000", "171337.405000", "171337.408000", "171337.411000", "171337.414000", "171337.416000", "171337.419000", "171337.422000", "171337.425000", "171337.428000", "171337.431000", "171337.433000", "171337.436000", "171337.439000", "171337.442000", "171337.445000", "171337.448000", "171337.451000", "171337.453000", "171337.456000", "171337.459000", "171417.384000", "171417.387000", "171417.390000", "171417.393000", "171417.395000", "171417.398000", "171417.401000", "171417.404000", "171417.407000", "171417.410000", "171417.413000", "171417.415000", "171417.418000", "171417.421000", "171417.424000", "171417.427000", "171417.430000", "171417.432000", "171417.435000", "171417.438000", "171417.441000", "171417.444000", "171417.448000", "171417.451000", "171417.454000", "171417.457000", "171457.384000", "171457.387000", "171457.390000", "171457.393000", "171457.396000", "171457.398000", "171457.401000", "171457.404000", "171457.407000", "171457.410000", "171457.413000", "171457.415000", "171457.418000", "171457.421000", "171457.424000", "171457.427000", "171457.430000", "171457.433000", "171457.435000", "171457.438000", "171457.441000", "171457.444000", "171457.447000", "171457.450000", "171457.453000", "171457.455000", "171457.458000", "171537.385000", "171537.388000", "171537.391000", "171537.394000", "171537.396000", "171537.399000", "171537.402000", "171537.405000", "171537.408000", "171537.411000", "171537.414000", "171537.416000", "171537.419000", "171537.422000", "171537.425000", "171537.428000", "171537.431000", "171537.433000", "171537.436000", "171537.439000", "171537.442000", "171537.445000", "171537.448000", "171537.451000", "171537.453000", "171537.456000", "171537.459000", "171538.078000"],
