{
  "AcquisitionMatrixPE": 104,
  "AcquisitionNumber": 1,
  "AcquisitionTime": "11:14:49.500000",
  "BandwidthPerPixelPhaseEncode": 17.17,
  "BaseResolution": 104,
  "BodyPartExamined": "BRAIN",
  "CoilCombinationMethod": "Sum of Squares",
  "ConsistencyInfo": "N4_VE11C_LATEST_20160120",
  "ConversionSoftware": "dcm2niix",
  "ConversionSoftwareVersion": "v1.0.20211006",
  "DerivedVendorReportedEchoSpacing": 0.000560011,
  "DeviceSerialNumber": "167006",
  "DwellTime": 2.1e-06,
  "EchoTime": 0.037,
  "EchoTrainLength": 104,
  "EffectiveEchoSpacing": 0.000560011,
  "FlipAngle": 52,
  "HeudiconvVersion": "0.11.3.post9+gc939bf8",
  "ImageComments": "Unaliased MB4/PE3/LB",
  "ImageOrientationPatientDICOM": [0.997032, 0.0767108, 0.00659756, -0.0693695, 0.932173, -0.355306],
  "ImageOrientationText": "Tra>Cor(-20.7)>Sag(1.9)",
  "ImageType": [
    "ORIGINAL",
    "PRIMARY",
    "M",
    "MB",
    "ND",
    "MOSAIC"
],
  "ImagingFrequency": 123.259,
  "InPlanePhaseEncodingDirectionDICOM": "COL",
  "InstitutionAddress": "Chemin Queen-Mary 4565,Montreal,District,CA,H3W 1W5",
  "InstitutionName": "IUGM",
  "InstitutionalDepartmentName": "Department",
  "MRAcquisitionType": "2D",
  "MagneticFieldStrength": 3,
  "Manufacturer": "Siemens",
  "ManufacturersModelName": "Prisma_fit",
  "MatrixCoilMode": "SENSE",
  "Modality": "MR",
  "MultibandAccelerationFactor": 4,
  "PartialFourier": 1,
  "PatientPosition": "HFS",
  "PercentPhaseFOV": 100,
  "PercentSampling": 100,
  "PhaseEncodingDirection": "j",
  "PhaseEncodingSteps": 104,
  "PhaseResolution": 1,
  "PixelBandwidth": 2290,
  "ProcedureStepDescription": "video^friends",
  "ProtocolName": "func_task-friends-s06e06b",
  "PulseSequenceDetails": "%CustomerSeq%\\cmrr_mbep2d_bold",
  "ReceiveCoilActiveElements": "HC1-7;NC1,2",
  "ReceiveCoilName": "HeadNeck_64",
  "ReconMatrixPE": 104,
  "RepetitionTime": 1.49,
  "SAR": 0.0374064,
  "ScanOptions": "FS",
  "ScanningSequence": "EP",
  "SequenceName": "epfid2d1_104",
  "SequenceVariant": "SK\\SS",
  "SeriesDescription": "func_task-friends-s06e06b",
  "SeriesNumber": 12,
  "ShimSetting": [620, -7196, -8837, 678, 62, -56, -53, 6],
  "SliceThickness": 2,
  "SliceTiming": [0, 0.785, 0.1, 0.8825, 0.1975, 0.98, 0.295, 1.0775, 0.3925, 1.1775, 0.49, 1.275, 0.59, 1.3725, 0.6875, 0, 0.785, 0.1, 0.8825, 0.1975, 0.98, 0.295, 1.0775, 0.3925, 1.1775, 0.49, 1.275, 0.59, 1.3725, 0.6875, 0, 0.785, 0.1, 0.8825, 0.1975, 0.98, 0.295, 1.0775, 0.3925, 1.1775, 0.49, 1.275, 0.59, 1.3725, 0.6875, 0, 0.785, 0.1, 0.8825, 0.1975, 0.98, 0.295, 1.0775, 0.3925, 1.1775, 0.49, 1.275, 0.59, 1.3725, 0.6875],
  "SoftwareVersions": "syngo MR E11",
  "SpacingBetweenSlices": 2,
  "StationName": "MRC35049",
  "TaskName": "s06e06b",
  "TotalReadoutTime": 0.0576811,
  "TxRefAmp": 245.19,
  "WipMemBlock": "a056dbda-6963-40e2-9086-08544694d4d6||Sequence: R016 ve11c/master r/e634e98; Dec 19 2017 11:00:25 by eja",
  "dcmmeta_affine": [
    [-1.994063138961792, -0.1387389898300171, 0.0668116956949234, 107.77042388916016],
    [-0.15342164039611816, 1.8643451929092407, -0.7075865864753723, -60.65653991699219],
    [0.01319511141628027, 0.7106113433837891, 1.86945378780365, -72.52747344970703],
    [0.0, 0.0, 0.0, 1.0]
],
  "dcmmeta_reorient_transform": [
    [0.0, -1.0, 0.0, 103.0],
    [1.0, 0.0, 0.0, 0.0],
    [0.0, 0.0, 1.0, 0.0],
    [0.0, 0.0, 0.0, 1.0]
],
  "dcmmeta_shape": [104, 104, 60, 478],
  "dcmmeta_slice_dim": 2,
  "dcmmeta_version": 0.6,
  "global": {
    "const": {
      "AcquisitionMatrix": [104, 0, 0, 104],
      "AngioFlag": "N",
      "BitsAllocated": 16,
      "BitsStored": 16,
      "BodyPartExamined": "BRAIN",
      "Columns": 832,
      "EchoNumbers": 1,
      "EchoTime": 37.0,
      "EchoTrainLength": 104,
      "FlipAngle": 52.0,
      "HighBit": 15,
      "ImageOrientationPatient": [0.99703155523254, 0.07671082146249, 0.00659755569379, -0.0693694965968, 0.93217260117826, -0.3553056635553],
      "ImagePositionPatient": [-768.81828294021, -865.83814737709, 254.52499849345],
      "ImageType": [
        "ORIGINAL",
        "PRIMARY",
        "M",
        "MB",
        "ND",
        "MOSAIC"
],
      "ImagedNucleus": "1H",
      "ImagingFrequency": 123.258721,
      "InPlanePhaseEncodingDirection": "COL",
      "MRAcquisitionType": "2D",
      "MagneticFieldStrength": 3.0,
      "Manufacturer": "SIEMENS",
      "ManufacturerModelName": "Prisma_fit",
      "Modality": "MR",
      "NumberOfAverages": 1.0,
      "NumberOfPhaseEncodingSteps": 104,
      "PercentPhaseFieldOfView": 100.0,
      "PercentSampling": 100.0,
      "PerformedProcedureStepStartTime": "104302.515000",
      "PhotometricInterpretation": "MONOCHROME2",
      "PixelBandwidth": 2290.0,
      "PixelRepresentation": 0,
      "PixelSpacing": [2.0, 2.0],
      "ProtocolName": "func_task-friends-s06e06b",
      "RepetitionTime": 1490.0,
      "Rows": 832,
      "SAR": 0.03740642268982,
      "SamplesPerPixel": 1,
      "ScanOptions": "FS",
      "ScanningSequence": "EP",
      "SequenceName": "epfid2d1_104",
      "SequenceVariant": [
        "SK",
        "SS"
],
      "SeriesDescription": "func_task-friends-s06e06b",
      "SeriesNumber": 12,
      "SeriesTime": "111611.145000",
      "SliceLocation": -42.733337750567,
      "SliceThickness": 2.0,
      "SmallestImagePixelValue": 0,
      "SoftwareVersions": "syngo MR E11",
      "SpacingBetweenSlices": 1.999999977505,
      "SpecificCharacterSet": "ISO_IR 100",
      "StudyID": "1",
      "StudyTime": "104302.457000",
      "TransmitCoilName": "Body",
      "VariableFlipAngleFlag": "N",
      "WindowCenterWidthExplanation": "Algo1",
      "dBdt": 0.0},
    "slices": {}
  },
  "time": {
    "samples": {
      "AcquisitionNumber": [1, 2, 3, 4, 5, 6, 7, 8, 9, 10, 11, 12, 13, 14, 15, 16, 17, 18, 19, 20, 21, 22, 23, 24, 25, 26, 27, 28, 29, 30, 31, 32, 33, 34, 35, 36, 37, 38, 39, 40, 41, 42, 43, 44, 45, 46, 47, 48, 49, 50, 51, 52, 53, 54, 55, 56, 57, 58, 59, 60, 61, 62, 63, 64, 65, 66, 67, 68, 69, 70, 71, 72, 73, 74, 75, 76, 77, 78, 79, 80, 81, 82, 83, 84, 85, 86, 87, 88, 89, 90, 91, 92, 93, 94, 95, 96, 97, 98, 99, 100, 101, 102, 103, 104, 105, 106, 107, 108, 109, 110, 111, 112, 113, 114, 115, 116, 117, 118, 119, 120, 121, 122, 123, 124, 125, 126, 127, 128, 129, 130, 131, 132, 133, 134, 135, 136, 137, 138, 139, 140, 141, 142, 143, 144, 145, 146, 147, 148, 149, 150, 151, 152, 153, 154, 155, 156, 157, 158, 159, 160, 161, 162, 163, 164, 165, 166, 167, 168, 169, 170, 171, 172, 173, 174, 175, 176, 177, 178, 179, 180, 181, 182, 183, 184, 185, 186, 187, 188, 189, 190, 191, 192, 193, 194, 195, 196, 197, 198, 199, 200, 201, 202, 203, 204, 205, 206, 207, 208, 209, 210, 211, 212, 213, 214, 215, 216, 217, 218, 219, 220, 221, 222, 223, 224, 225, 226, 227, 228, 229, 230, 231, 232, 233, 234, 235, 236, 237, 238, 239, 240, 241, 242, 243, 244, 245, 246, 247, 248, 249, 250, 251, 252, 253, 254, 255, 256, 257, 258, 259, 260, 261, 262, 263, 264, 265, 266, 267, 268, 269, 270, 271, 272, 273, 274, 275, 276, 277, 278, 279, 280, 281, 282, 283, 284, 285, 286, 287, 288, 289, 290, 291, 292, 293, 294, 295, 296, 297, 298, 299, 300, 301, 302, 303, 304, 305, 306, 307, 308, 309, 310, 311, 312, 313, 314, 315, 316, 317, 318, 319, 320, 321, 322, 323, 324, 325, 326, 327, 328, 329, 330, 331, 332, 333, 334, 335, 336, 337, 338, 339, 340, 341, 342, 343, 344, 345, 346, 347, 348, 349, 350, 351, 352, 353, 354, 355, 356, 357, 358, 359, 360, 361, 362, 363, 364, 365, 366, 367, 368, 369, 370, 371, 372, 373, 374, 375, 376, 377, 378, 379, 380, 381, 382, 383, 384, 385, 386, 387, 388, 389, 390, 391, 392, 393, 394, 395, 396, 397, 398, 399, 400, 401, 402, 403, 404, 405, 406, 407, 408, 409, 410, 411, 412, 413, 414, 415, 416, 417, 418, 419, 420, 421, 422, 423, 424, 425, 426, 427, 428, 429, 430, 431, 432, 433, 434, 435, 436, 437, 438, 439, 440, 441, 442, 443, 444, 445, 446, 447, 448, 449, 450, 451, 452, 453, 454, 455, 456, 457, 458, 459, 460, 461, 462, 463, 464, 465, 466, 467, 468, 469, 470, 471, 472, 473, 474, 475, 476, 477, 478],
      "AcquisitionTime": ["111449.500000", "111450.990000", "111452.480000", "111453.970000", "111455.460000", "111456.950000", "111458.440000", "111459.930000", "111501.420000", "111502.910000", "111504.400000", "111505.890000", "111507.380000", "111508.870000", "111510.360000", "111511.850000", "111513.340000", "111514.830000", "111516.320000", "111517.810000", "111519.300000", "111520.790000", "111522.280000", "111523.770000", "111525.260000", "111526.750000", "111528.240000", "111529.730000", "111531.220000", "111532.710000", "111534.200000", "111535.690000", "111537.180000", "111538.670000", "111540.160000", "111541.650000", "111543.140000", "111544.630000", "111546.120000", "111547.610000", "111549.100000", "111550.590000", "111552.080000", "111553.570000", "111555.060000", "111556.550000", "111558.040000", "111559.530000", "111601.020000", "111602.510000", "111604.000000", "111605.490000", "111606.980000", "111608.470000", "111609.960000", "111611.450000", "111612.940000", "111614.430000", "111615.920000", "111617.410000", "111618.900000", "111620.390000", "111621.880000", "111623.370000", "111624.860000", "111626.350000", "111627.840000", "111629.330000", "111630.820000", "111632.310000", "111633.800000", "111635.290000", "111636.780000", "111638.270000", "111639.760000", "111641.250000", "111642.740000", "111644.230000", "111645.720000", "111647.210000", "111648.700000", "111650.190000", "111651.680000", "111653.170000", "111654.660000", "111656.150000", "111657.640000", "111659.130000", "111700.620000", "111702.110000", "111703.600000", "111705.090000", "111706.580000", "111708.070000", "111709.560000", "111711.050000", "111712.540000", "111714.030000", "111715.520000", "111717.010000", "111718.500000", "111719.990000", "111721.480000", "111722.970000", "111724.460000", "111725.950000", "111727.440000", "111728.930000", "111730.420000", "111731.910000", "111733.400000", "111734.890000", "111736.380000", "111737.870000", "111739.360000", "111740.850000", "111742.340000", "111743.830000", "111745.320000", "111746.810000", "111748.300000", "111749.790000", "111751.280000", "111752.770000", "111754.260000", "111755.750000", "111757.240000", "111758.730000", "111800.220000", "111801.710000", "111803.200000", "111804.690000", "111806.180000", "111807.670000", "111809.160000", "111810.650000", "111812.140000", "111813.630000", "111815.120000", "111816.610000", "111818.100000", "111819.590000", "111821.080000", "111822.570000", "111824.060000", "111825.550000", "111827.040000", "111828.530000", "111830.020000", "111831.510000", "111833.000000", "111834.490000", "111835.980000", "111837.470000", "111838.960000", "111840.450000", "111841.940000", "111843.430000", "111844.920000", "111846.410000", "111847.900000", "111849.390000", "111850.880000", "111852.370000", "111853.860000", "111855.350000", "111856.840000", "111858.330000", "111859.820000", "111901.310000", "111902.800000", "111904.290000", "111905.780000", "111907.270000", "111908.760000", "111910.250000", "111911.740000", "111913.230000", "111914.720000", "111916.210000", "111917.700000", "111919.190000", "111920.680000", "111922.170000", "111923.660000", "111925.150000", "111926.640000", "111928.130000", "111929.620000", "111931.110000", "111932.600000", "111934.090000", "111935.580000", "111937.070000", "111938.560000", "111940.050000", "111941.540000", "111943.030000", "111944.520000", "111946.010000", "111947.500000", "111948.990000", "111950.480000", "111951.970000", "111953.460000", "111954.950000", "111956.440000", "111957.930000", "111959.420000", "112000.910000", "112002.400000", "112003.890000", "112005.380000", "112006.870000", "112008.360000", "112009.850000", "112011.340000", "112012.830000", "112014.320000", "112015.810000", "112017.300000", "112018.790000", "112020.280000", "112021.770000", "112023.260000", "112024.750000", "112026.240000", "112027.730000", "112029.220000", "112030.710000", "112032.200000", "112033.690000", "112035.180000", "112036.670000", "112038.160000", "112039.650000", "112041.140000", "112042.630000", "112044.120000", "112045.610000", "112047.100000", "112048.590000", "112050.080000", "112051.570000", "112053.060000", "112054.550000", "112056.040000", "112057.530000", "112059.020000", "112100.510000", "112102.000000", "112103.490000", "112104.980000", "112106.470000", "112107.960000", "112109.450000", "112110.940000", "112112.430000", "112113.920000", "112115.410000", "112116.900000", "112118.390000", "112119.880000", "112121.370000", "112122.860000", "112124.350000", "112125.840000", "112127.330000", "112128.820000", "112130.310000", "112131.800000", "112133.290000", "112134.780000", "112136.270000", "112137.760000", "112139.250000", "112140.740000", "112142.230000", "112143.720000", "112145.210000", "112146.700000", "112148.190000", "112149.680000", "112151.170000", "112152.660000", "112154.150000", "112155.640000", "112157.130000", "112158.620000", "112200.110000", "112201.600000", "112203.090000", "112204.580000", "112206.070000", "112207.560000", "112209.050000", "112210.540000", "112212.030000", "112213.520000", "112215.010000", "112216.500000", "112217.990000", "112219.480000", "112220.970000", "112222.460000", "112223.950000", "112225.440000", "112226.930000", "112228.420000", "112229.910000", "112231.400000", "112232.890000", "112234.380000", "112235.870000", "112237.360000", "112238.850000", "112240.340000", "112241.830000", "112243.320000", "112244.810000", "112246.300000", "112247.790000", "112249.280000", "112250.770000", "112252.260000", "112253.750000", "112255.240000", "112256.730000", "112258.220000", "112259.710000", "112301.200000", "112302.690000", "112304.180000", "112305.670000", "112307.160000", "112308.650000", "112310.140000", "112311.630000", "112313.120000", "112314.610000", "112316.100000", "112317.590000", "112319.080000", "112320.570000", "112322.060000", "112323.550000", "112325.040000", "112326.530000", "112328.020000", "112329.510000", "112331.000000", "112332.490000", "112333.980000", "112335.470000", "112336.960000", "112338.450000", "112339.940000", "112341.430000", "112342.920000", "112344.410000", "112345.900000", "112347.390000", "112348.880000", "112350.370000", "112351.860000", "112353.350000", "112354.840000", "112356.330000", "112357.820000", "112359.310000", "112400.800000", "112402.290000", "112403.780000", "112405.270000", "112406.760000", "112408.250000", "112409.740000", "112411.230000", "112412.720000", "112414.210000", "112415.700000", "112417.190000", "112418.680000", "112420.170000", "112421.660000", "112423.150000", "112424.640000", "112426.130000", "112427.620000", "112429.110000", "112430.600000", "112432.090000", "112433.580000", "112435.070000", "112436.560000", "112438.050000", "112439.540000", "112441.030000", "112442.520000", "112444.010000", "112445.500000", "112446.990000", "112448.480000", "112449.970000", "112451.460000", "112452.950000", "112454.440000", "112455.930000", "112457.420000", "112458.910000", "112500.400000", "112501.890000", "112503.380000", "112504.870000", "112506.360000", "112507.850000", "112509.340000", "112510.830000", "112512.320000", "112513.810000", "112515.300000", "112516.790000", "112518.280000", "112519.770000", "112521.260000", "112522.750000", "112524.240000", "112525.730000", "112527.220000", "112528.710000", "112530.200000", "112531.690000", "112533.180000", "112534.670000", "112536.160000", "112537.650000", "112539.140000", "112540.630000", "112542.120000", "112543.610000", "112545.100000", "112546.590000", "112548.080000", "112549.570000", "112551.060000", "112552.550000", "112554.040000", "112555.530000", "112557.020000", "112558.510000", "112600.000000", "112601.490000", "112602.980000", "112604.470000", "112605.960000", "112607.450000", "112608.940000", "112610.430000", "112611.920000", "112613.410000", "112614.900000", "112616.390000", "112617.880000", "112619.370000", "112620.860000", "112622.350000", "112623.840000", "112625.330000", "112626.820000", "112628.310000", "112629.800000", "112631.290000", "112632.780000", "112634.270000", "112635.760000", "112637.250000", "112638.740000", "112640.230000"],
      "ContentTime": ["111611.147000", "111611.151000", "111611.154000", "111611.162000", "111611.164000", "111611.167000", "111611.170000", "111611.173000", "111611.178000", "111611.181000", "111611.195000", "111611.198000", "111611.200000", "111611.203000", "111611.206000", "111611.209000", "111611.212000", "111611.215000", "111611.218000", "111611.220000", "111611.223000", "111611.226000", "111611.237000", "111611.240000", "111611.243000", "111611.258000", "111611.260000", "111631.111000", "111631.114000", "111631.117000", "111631.125000", "111631.128000", "111631.131000", "111631.134000", "111631.137000", "111631.139000", "111631.142000", "111631.145000", "111631.148000", "111631.151000", "111631.153000", "111631.156000", "111631.165000", "111631.168000", "111631.171000", "111631.174000", "111631.176000", "111631.179000", "111651.110000", "111651.113000", "111651.116000", "111651.118000", "111651.121000", "111651.124000", "111651.127000", "111651.130000", "111651.132000", "111651.135000", "111651.144000", "111651.147000", "111651.150000", "111651.153000", "111651.156000", "111651.162000", "111651.165000", "111651.168000", "111651.179000", "111651.182000", "111711.111000", "111711.114000", "111711.117000", "111711.119000", "111711.122000", "111711.125000", "111711.128000", "111711.131000", "111711.133000", "111711.136000", "111711.139000", "111711.149000", "111711.152000", "111711.155000", "111711.158000", "111711.160000", "111711.163000", "111711.166000", "111711.169000", "111711.172000", "111751.111000", "111751.114000", "111751.117000", "111751.119000", "111751.122000", "111751.125000", "111751.128000", "111751.131000", "111751.134000", "111751.136000", "111751.139000", "111751.155000", "111751.158000", "111751.160000", "111751.163000", "111751.166000", "111751.169000", "111751.172000", "111751.175000", "111751.177000", "111751.180000", "111751.183000", "111751.186000", "111751.189000", "111751.192000", "111751.194000", "111751.197000", "111751.200000", "111751.203000", "111751.206000", "111751.209000", "111751.212000", "111751.214000", "111831.111000", "111831.114000", "111831.117000", "111831.120000", "111831.122000", "111831.125000", "111831.128000", "111831.131000", "111831.134000", "111831.137000", "111831.139000", "111831.142000", "111831.145000", "111831.148000", "111831.151000", "111831.154000", "111831.156000", "111831.159000", "111831.162000", "111831.165000", "111831.168000", "111831.171000", "111831.173000", "111831.176000", "111831.179000", "111831.182000", "111831.185000", "111911.110000", "111911.113000", "111911.116000", "111911.119000", "111911.121000", "111911.124000", "111911.127000", "111911.130000", "111911.133000", "111911.136000", "111911.138000", "111911.141000", "111911.144000", "111911.147000", "111911.150000", "111911.153000", "111911.155000", "111911.158000", "111911.161000", "111911.164000", "111911.167000", "111911.170000", "111911.172000", "111911.175000", "111911.178000", "111911.181000", "111911.193000", "111951.111000", "111951.114000", "111951.117000", "111951.119000", "111951.122000", "111951.125000", "111951.128000", "111951.131000", "111951.134000", "111951.137000", "111951.140000", "111951.142000", "111951.145000", "111951.149000", "111951.152000", "111951.155000", "111951.158000", "111951.161000", "111951.164000", "111951.166000", "111951.169000", "111951.172000", "111951.175000", "111951.178000", "111951.181000", "111951.184000", "112031.111000", "112031.114000", "112031.117000", "112031.120000", "112031.122000", "112031.125000", "112031.128000", "112031.131000", "112031.134000", "112031.137000", "112031.139000", "112031.142000", "112031.145000", "112031.148000", "112031.151000", "112031.154000", "112031.156000", "112031.159000", "112031.162000", "112031.165000", "112031.168000", "112031.171000", "112031.173000", "112031.176000", "112031.179000", "112031.182000", "112031.185000", "112111.111000", "112111.114000", "112111.117000", "112111.120000", "112111.122000", "112111.125000", "112111.145000", "112111.147000", "112111.150000", "112111.153000", "112111.156000", "112111.159000", "112111.162000", "112111.165000", "112111.168000", "112111.170000", "112111.173000", "112111.176000", "112111.179000", "112111.182000", "112111.185000", "112111.187000", "112111.190000", "112111.193000", "112111.196000", "112111.199000", "112111.202000", "112151.111000", "112151.114000", "112151.117000", "112151.120000", "112151.123000", "112151.126000", "112151.129000", "112151.132000", "112151.134000", "112151.137000", "112151.140000", "112151.143000", "112151.146000", "112151.149000", "112151.151000", "112151.154000", "112151.157000", "112151.160000", "112151.163000", "112151.166000", "112151.169000", "112151.171000", "112151.174000", "112151.177000", "112151.180000", "112151.183000", "112151.186000", "112231.111000", "112231.114000", "112231.117000", "112231.120000", "112231.122000", "112231.125000", "112231.128000", "112231.131000", "112231.134000", "112231.137000", "112231.139000", "112231.142000", "112231.145000", "112231.148000", "112231.151000", "112231.154000", "112231.156000", "112231.159000", "112231.162000", "112231.165000", "112231.168000", "112231.171000", "112231.174000", "112231.176000", "112231.179000", "112231.182000", "112231.185000", "112311.111000", "112311.114000", "112311.117000", "112311.120000", "112311.122000", "112311.125000", "112311.128000", "112311.131000", "112311.134000", "112311.137000", "112311.139000", "112311.142000", "112311.145000", "112311.148000", "112311.151000", "112311.154000", "112311.157000", "112311.159000", "112311.162000", "112311.165000", "112311.168000", "112311.171000", "112311.174000", "112311.177000", "112311.179000", "112311.182000", "112311.185000", "112351.110000", "112351.113000", "112351.116000", "112351.119000", "112351.121000", "112351.124000", "112351.127000", "112351.130000", "112351.133000", "112351.136000", "112351.139000", "112351.142000", "112351.145000", "112351.148000", "112351.151000", "112351.154000", "112351.157000", "112351.160000", "112351.163000", "112351.166000", "112351.169000", "112351.172000", "112351.174000", "112351.177000", "112351.180000", "112351.183000", "112431.111000", "112431.114000", "112431.117000", "112431.120000", "112431.122000", "112431.125000", "112431.128000", "112431.131000", "112431.134000", "112431.137000", "112431.139000", "112431.142000", "112431.145000", "112431.148000", "112431.151000", "112431.153000", "112431.156000", "112431.159000", "112431.162000", "112431.165000", "112431.168000", "112431.171000", "112431.173000", "112431.176000", "112431.179000", "112431.182000", "112431.185000", "112511.111000", "112511.114000", "112511.117000", "112511.120000", "112511.122000", "112511.125000", "112511.128000", "112511.131000", "112511.134000", "112511.137000", "112511.139000", "112511.142000", "112511.145000", "112511.148000", "112511.151000", "112511.154000", "112511.157000", "112511.159000", "112511.162000", "112511.165000", "112511.168000", "112511.171000", "112511.174000", "112511.177000", "112511.179000", "112511.182000", "112511.185000", "112551.111000", "112551.114000", "112551.117000", "112551.120000", "112551.123000", "112551.126000", "112551.128000", "112551.131000", "112551.134000", "112551.137000", "112551.140000", "112551.143000", "112551.145000", "112551.148000", "112551.151000", "112551.154000", "112551.157000", "112551.160000", "112551.163000", "112551.166000", "112551.168000", "112551.171000", "112551.174000", "112551.177000", "112551.180000", "112551.182000", "112551.185000", "112611.110000", "112611.113000", "112611.116000", "112611.119000", "112611.122000", "112611.125000", "112611.127000", "112611.130000", "112611.133000", "112611.136000", "112611.139000", "112611.142000", "112611.145000", "112642.568000", "112642.572000", "112642.574000", "112642.577000", "112642.580000", "112642.583000", "112642.586000", "112642.589000", "112642.592000", "112642.595000", "112642.598000", "112642.601000", "112642.604000", "112642.607000", "112642.610000", "112642.613000", "112642.616000", "112642.619000", "112642.622000", "112642.625000", "112642.628000", "112642.631000"],
