{
  "AcquisitionMatrixPE": 104,
  "AcquisitionNumber": 1,
  "AcquisitionTime": "11:44:51.267500",
  "BandwidthPerPixelPhaseEncode": 17.17,
  "BaseResolution": 104,
  "BodyPartExamined": "BRAIN",
  "CoilCombinationMethod": "Sum of Squares",
  "ConsistencyInfo": "N4_VE11C_LATEST_20160120",
  "ConversionSoftware": "dcm2niix",
  "ConversionSoftwareVersion": "v1.0.20211006",
  "DerivedVendorReportedEchoSpacing": 0.000560011,
  "DeviceSerialNumber": "167006",
  "DwellTime": 2.1e-06,
  "EchoTime": 0.037,
  "EchoTrainLength": 104,
  "EffectiveEchoSpacing": 0.000560011,
  "FlipAngle": 52,
  "HeudiconvVersion": "0.11.3.post9+gc939bf8",
  "ImageComments": "Unaliased MB4/PE3/LB",
  "ImageOrientationPatientDICOM": [0.997032, 0.0767108, 0.00659756, -0.0693695, 0.932173, -0.355306],
  "ImageOrientationText": "Tra>Cor(-20.7)>Sag(1.9)",
  "ImageType": [
    "ORIGINAL",
    "PRIMARY",
    "M",
    "MB",
    "ND",
    "MOSAIC"
],
  "ImagingFrequency": 123.259,
  "InPlanePhaseEncodingDirectionDICOM": "COL",
  "InstitutionAddress": "Chemin Queen-Mary 4565,Montreal,District,CA,H3W 1W5",
  "InstitutionName": "IUGM",
  "InstitutionalDepartmentName": "Department",
  "MRAcquisitionType": "2D",
  "MagneticFieldStrength": 3,
  "Manufacturer": "Siemens",
  "ManufacturersModelName": "Prisma_fit",
  "MatrixCoilMode": "SENSE",
  "Modality": "MR",
  "MultibandAccelerationFactor": 4,
  "PartialFourier": 1,
  "PatientPosition": "HFS",
  "PercentPhaseFOV": 100,
  "PercentSampling": 100,
  "PhaseEncodingDirection": "j",
  "PhaseEncodingSteps": 104,
  "PhaseResolution": 1,
  "PixelBandwidth": 2290,
  "ProcedureStepDescription": "video^friends",
  "ProtocolName": "func_task-friends-s06e07b",
  "PulseSequenceDetails": "%CustomerSeq%\\cmrr_mbep2d_bold",
  "ReceiveCoilActiveElements": "HC1-7;NC1,2",
  "ReceiveCoilName": "HeadNeck_64",
  "ReconMatrixPE": 104,
  "RepetitionTime": 1.49,
  "SAR": 0.0374067,
  "ScanOptions": "FS",
  "ScanningSequence": "EP",
  "SequenceName": "epfid2d1_104",
  "SequenceVariant": "SK\\SS",
  "SeriesDescription": "func_task-friends-s06e07b",
  "SeriesNumber": 16,
  "ShimSetting": [620, -7196, -8837, 678, 62, -56, -53, 6],
  "SliceThickness": 2,
  "SliceTiming": [0, 0.7825, 0.0975, 0.8825, 0.195, 0.98, 0.295, 1.0775, 0.3925, 1.175, 0.49, 1.2725, 0.5875, 1.3725, 0.685, 0, 0.7825, 0.0975, 0.8825, 0.195, 0.98, 0.295, 1.0775, 0.3925, 1.175, 0.49, 1.2725, 0.5875, 1.3725, 0.685, 0, 0.7825, 0.0975, 0.8825, 0.195, 0.98, 0.295, 1.0775, 0.3925, 1.175, 0.49, 1.2725, 0.5875, 1.3725, 0.685, 0, 0.7825, 0.0975, 0.8825, 0.195, 0.98, 0.295, 1.0775, 0.3925, 1.175, 0.49, 1.2725, 0.5875, 1.3725, 0.685],
  "SoftwareVersions": "syngo MR E11",
  "SpacingBetweenSlices": 2,
  "StationName": "MRC35049",
  "TaskName": "s06e07b",
  "TotalReadoutTime": 0.0576811,
  "TxRefAmp": 245.19,
  "WipMemBlock": "725729b3-f098-446a-b3dc-36f7a6ec369e||Sequence: R016 ve11c/master r/e634e98; Dec 19 2017 11:00:25 by eja",
  "dcmmeta_affine": [
    [-1.994063138961792, -0.1387389898300171, 0.0668116956949234, 107.77042388916016],
    [-0.15342164039611816, 1.8643451929092407, -0.7075865864753723, -60.65653991699219],
    [0.01319511141628027, 0.7106113433837891, 1.86945378780365, -72.52747344970703],
    [0.0, 0.0, 0.0, 1.0]
],
  "dcmmeta_reorient_transform": [
    [0.0, -1.0, 0.0, 103.0],
    [1.0, 0.0, 0.0, 0.0],
    [0.0, 0.0, 1.0, 0.0],
    [0.0, 0.0, 0.0, 1.0]
],
  "dcmmeta_shape": [104, 104, 60, 479],
  "dcmmeta_slice_dim": 2,
  "dcmmeta_version": 0.6,
  "global": {
    "const": {
      "AcquisitionMatrix": [104, 0, 0, 104],
      "AngioFlag": "N",
      "BitsAllocated": 16,
      "BitsStored": 16,
      "BodyPartExamined": "BRAIN",
      "Columns": 832,
      "EchoNumbers": 1,
      "EchoTime": 37.0,
      "EchoTrainLength": 104,
      "FlipAngle": 52.0,
      "HighBit": 15,
      "ImageOrientationPatient": [0.99703155523254, 0.07671082146249, 0.00659755569379, -0.0693694965968, 0.93217260117826, -0.3553056635553],
      "ImagePositionPatient": [-768.81828294021, -865.83814737709, 254.52499849345],
      "ImageType": [
        "ORIGINAL",
        "PRIMARY",
        "M",
        "MB",
        "ND",
        "MOSAIC"
],
      "ImagedNucleus": "1H",
      "ImagingFrequency": 123.258731,
      "InPlanePhaseEncodingDirection": "COL",
      "MRAcquisitionType": "2D",
      "MagneticFieldStrength": 3.0,
      "Manufacturer": "SIEMENS",
      "ManufacturerModelName": "Prisma_fit",
      "Modality": "MR",
      "NumberOfAverages": 1.0,
      "NumberOfPhaseEncodingSteps": 104,
      "PercentPhaseFieldOfView": 100.0,
      "PercentSampling": 100.0,
      "PerformedProcedureStepStartTime": "104302.515000",
      "PhotometricInterpretation": "MONOCHROME2",
      "PixelBandwidth": 2290.0,
      "PixelRepresentation": 0,
      "PixelSpacing": [2.0, 2.0],
      "ProtocolName": "func_task-friends-s06e07b",
      "RepetitionTime": 1490.0,
      "Rows": 832,
      "SAR": 0.0374067461855,
      "SamplesPerPixel": 1,
      "ScanOptions": "FS",
      "ScanningSequence": "EP",
      "SequenceName": "epfid2d1_104",
      "SequenceVariant": [
        "SK",
        "SS"
],
      "SeriesDescription": "func_task-friends-s06e07b",
      "SeriesNumber": 16,
      "SeriesTime": "114602.958000",
      "SliceLocation": -42.733337750567,
      "SliceThickness": 2.0,
      "SmallestImagePixelValue": 0,
      "SoftwareVersions": "syngo MR E11",
      "SpacingBetweenSlices": 1.999999977505,
      "SpecificCharacterSet": "ISO_IR 100",
      "StudyID": "1",
      "StudyTime": "104302.457000",
      "TransmitCoilName": "Body",
      "VariableFlipAngleFlag": "N",
      "WindowCenterWidthExplanation": "Algo1",
      "dBdt": 0.0},
    "slices": {}
  },
  "time": {
    "samples": {
      "AcquisitionNumber": [1, 2, 3, 4, 5, 6, 7, 8, 9, 10, 11, 12, 13, 14, 15, 16, 17, 18, 19, 20, 21, 22, 23, 24, 25, 26, 27, 28, 29, 30, 31, 32, 33, 34, 35, 36, 37, 38, 39, 40, 41, 42, 43, 44, 45, 46, 47, 48, 49, 50, 51, 52, 53, 54, 55, 56, 57, 58, 59, 60, 61, 62, 63, 64, 65, 66, 67, 68, 69, 70, 71, 72, 73, 74, 75, 76, 77, 78, 79, 80, 81, 82, 83, 84, 85, 86, 87, 88, 89, 90, 91, 92, 93, 94, 95, 96, 97, 98, 99, 100, 101, 102, 103, 104, 105, 106, 107, 108, 109, 110, 111, 112, 113, 114, 115, 116, 117, 118, 119, 120, 121, 122, 123, 124, 125, 126, 127, 128, 129, 130, 131, 132, 133, 134, 135, 136, 137, 138, 139, 140, 141, 142, 143, 144, 145, 146, 147, 148, 149, 150, 151, 152, 153, 154, 155, 156, 157, 158, 159, 160, 161, 162, 163, 164, 165, 166, 167, 168, 169, 170, 171, 172, 173, 174, 175, 176, 177, 178, 179, 180, 181, 182, 183, 184, 185, 186, 187, 188, 189, 190, 191, 192, 193, 194, 195, 196, 197, 198, 199, 200, 201, 202, 203, 204, 205, 206, 207, 208, 209, 210, 211, 212, 213, 214, 215, 216, 217, 218, 219, 220, 221, 222, 223, 224, 225, 226, 227, 228, 229, 230, 231, 232, 233, 234, 235, 236, 237, 238, 239, 240, 241, 242, 243, 244, 245, 246, 247, 248, 249, 250, 251, 252, 253, 254, 255, 256, 257, 258, 259, 260, 261, 262, 263, 264, 265, 266, 267, 268, 269, 270, 271, 272, 273, 274, 275, 276, 277, 278, 279, 280, 281, 282, 283, 284, 285, 286, 287, 288, 289, 290, 291, 292, 293, 294, 295, 296, 297, 298, 299, 300, 301, 302, 303, 304, 305, 306, 307, 308, 309, 310, 311, 312, 313, 314, 315, 316, 317, 318, 319, 320, 321, 322, 323, 324, 325, 326, 327, 328, 329, 330, 331, 332, 333, 334, 335, 336, 337, 338, 339, 340, 341, 342, 343, 344, 345, 346, 347, 348, 349, 350, 351, 352, 353, 354, 355, 356, 357, 358, 359, 360, 361, 362, 363, 364, 365, 366, 367, 368, 369, 370, 371, 372, 373, 374, 375, 376, 377, 378, 379, 380, 381, 382, 383, 384, 385, 386, 387, 388, 389, 390, 391, 392, 393, 394, 395, 396, 397, 398, 399, 400, 401, 402, 403, 404, 405, 406, 407, 408, 409, 410, 411, 412, 413, 414, 415, 416, 417, 418, 419, 420, 421, 422, 423, 424, 425, 426, 427, 428, 429, 430, 431, 432, 433, 434, 435, 436, 437, 438, 439, 440, 441, 442, 443, 444, 445, 446, 447, 448, 449, 450, 451, 452, 453, 454, 455, 456, 457, 458, 459, 460, 461, 462, 463, 464, 465, 466, 467, 468, 469, 470, 471, 472, 473, 474, 475, 476, 477, 478, 479],
      "AcquisitionTime": ["114451.267500", "114452.757500", "114454.247500", "114455.737500", "114457.227500", "114458.717500", "114500.207500", "114501.697500", "114503.187500", "114504.677500", "114506.167500", "114507.657500", "114509.147500", "114510.637500", "114512.127500", "114513.617500", "114515.107500", "114516.597500", "114518.087500", "114519.577500", "114521.067500", "114522.557500", "114524.047500", "114525.537500", "114527.027500", "114528.517500", "114530.007500", "114531.497500", "114532.987500", "114534.477500", "114535.967500", "114537.457500", "114538.947500", "114540.437500", "114541.927500", "114543.417500", "114544.907500", "114546.397500", "114547.887500", "114549.377500", "114550.867500", "114552.357500", "114553.847500", "114555.337500", "114556.827500", "114558.317500", "114559.807500", "114601.297500", "114602.787500", "114604.277500", "114605.767500", "114607.257500", "114608.747500", "114610.237500", "114611.727500", "114613.217500", "114614.707500", "114616.197500", "114617.687500", "114619.177500", "114620.667500", "114622.157500", "114623.647500", "114625.137500", "114626.627500", "114628.117500", "114629.607500", "114631.097500", "114632.587500", "114634.077500", "114635.567500", "114637.057500", "114638.547500", "114640.037500", "114641.527500", "114643.017500", "114644.507500", "114645.997500", "114647.487500", "114648.977500", "114650.467500", "114651.957500", "114653.447500", "114654.937500", "114656.427500", "114657.917500", "114659.407500", "114700.897500", "114702.387500", "114703.877500", "114705.367500", "114706.857500", "114708.347500", "114709.837500", "114711.327500", "114712.817500", "114714.307500", "114715.797500", "114717.287500", "114718.777500", "114720.267500", "114721.757500", "114723.247500", "114724.737500", "114726.227500", "114727.717500", "114729.207500", "114730.697500", "114732.187500", "114733.677500", "114735.167500", "114736.657500", "114738.147500", "114739.637500", "114741.127500", "114742.617500", "114744.107500", "114745.597500", "114747.087500", "114748.577500", "114750.067500", "114751.557500", "114753.047500", "114754.537500", "114756.027500", "114757.517500", "114759.007500", "114800.497500", "114801.987500", "114803.477500", "114804.967500", "114806.457500", "114807.947500", "114809.437500", "114810.927500", "114812.417500", "114813.907500", "114815.397500", "114816.887500", "114818.377500", "114819.867500", "114821.357500", "114822.847500", "114824.337500", "114825.827500", "114827.317500", "114828.807500", "114830.297500", "114831.787500", "114833.277500", "114834.767500", "114836.257500", "114837.747500", "114839.237500", "114840.727500", "114842.217500", "114843.707500", "114845.197500", "114846.687500", "114848.177500", "114849.667500", "114851.157500", "114852.647500", "114854.137500", "114855.627500", "114857.117500", "114858.607500", "114900.097500", "114901.587500", "114903.077500", "114904.567500", "114906.057500", "114907.547500", "114909.037500", "114910.527500", "114912.017500", "114913.507500", "114914.997500", "114916.487500", "114917.977500", "114919.467500", "114920.957500", "114922.447500", "114923.937500", "114925.427500", "114926.917500", "114928.407500", "114929.897500", "114931.387500", "114932.877500", "114934.367500", "114935.857500", "114937.347500", "114938.837500", "114940.327500", "114941.817500", "114943.307500", "114944.797500", "114946.287500", "114947.777500", "114949.267500", "114950.757500", "114952.247500", "114953.737500", "114955.227500", "114956.717500", "114958.207500", "114959.697500", "115001.187500", "115002.677500", "115004.167500", "115005.657500", "115007.147500", "115008.637500", "115010.127500", "115011.617500", "115013.107500", "115014.597500", "115016.087500", "115017.577500", "115019.067500", "115020.557500", "115022.047500", "115023.537500", "115025.027500", "115026.517500", "115028.007500", "115029.497500", "115030.987500", "115032.477500", "115033.967500", "115035.457500", "115036.947500", "115038.437500", "115039.927500", "115041.417500", "115042.907500", "115044.397500", "115045.887500", "115047.377500", "115048.867500", "115050.357500", "115051.847500", "115053.337500", "115054.827500", "115056.317500", "115057.807500", "115059.297500", "115100.787500", "115102.277500", "115103.767500", "115105.257500", "115106.747500", "115108.237500", "115109.727500", "115111.217500", "115112.707500", "115114.197500", "115115.687500", "115117.177500", "115118.667500", "115120.157500", "115121.647500", "115123.137500", "115124.627500", "115126.117500", "115127.607500", "115129.097500", "115130.587500", "115132.077500", "115133.567500", "115135.057500", "115136.547500", "115138.037500", "115139.527500", "115141.017500", "115142.507500", "115143.997500", "115145.487500", "115146.977500", "115148.467500", "115149.957500", "115151.447500", "115152.937500", "115154.427500", "115155.917500", "115157.407500", "115158.897500", "115200.387500", "115201.877500", "115203.367500", "115204.857500", "115206.347500", "115207.837500", "115209.327500", "115210.817500", "115212.307500", "115213.797500", "115215.287500", "115216.777500", "115218.267500", "115219.757500", "115221.247500", "115222.737500", "115224.227500", "115225.717500", "115227.207500", "115228.697500", "115230.187500", "115231.677500", "115233.167500", "115234.657500", "115236.147500", "115237.637500", "115239.127500", "115240.617500", "115242.107500", "115243.597500", "115245.087500", "115246.577500", "115248.067500", "115249.557500", "115251.047500", "115252.537500", "115254.027500", "115255.517500", "115257.007500", "115258.497500", "115259.987500", "115301.477500", "115302.967500", "115304.457500", "115305.947500", "115307.437500", "115308.927500", "115310.417500", "115311.907500", "115313.397500", "115314.887500", "115316.377500", "115317.867500", "115319.357500", "115320.847500", "115322.337500", "115323.827500", "115325.317500", "115326.807500", "115328.297500", "115329.787500", "115331.277500", "115332.767500", "115334.257500", "115335.747500", "115337.237500", "115338.727500", "115340.217500", "115341.707500", "115343.197500", "115344.687500", "115346.177500", "115347.667500", "115349.157500", "115350.647500", "115352.137500", "115353.627500", "115355.117500", "115356.607500", "115358.097500", "115359.587500", "115401.077500", "115402.567500", "115404.057500", "115405.547500", "115407.037500", "115408.527500", "115410.017500", "115411.507500", "115412.997500", "115414.487500", "115415.977500", "115417.467500", "115418.957500", "115420.447500", "115421.937500", "115423.427500", "115424.917500", "115426.407500", "115427.897500", "115429.387500", "115430.877500", "115432.367500", "115433.857500", "115435.347500", "115436.837500", "115438.327500", "115439.817500", "115441.307500", "115442.797500", "115444.287500", "115445.777500", "115447.267500", "115448.757500", "115450.247500", "115451.737500", "115453.227500", "115454.717500", "115456.207500", "115457.697500", "115459.187500", "115500.677500", "115502.167500", "115503.657500", "115505.147500", "115506.637500", "115508.127500", "115509.617500", "115511.107500", "115512.597500", "115514.087500", "115515.577500", "115517.067500", "115518.557500", "115520.047500", "115521.537500", "115523.027500", "115524.517500", "115526.007500", "115527.497500", "115528.987500", "115530.477500", "115531.967500", "115533.457500", "115534.947500", "115536.437500", "115537.927500", "115539.417500", "115540.907500", "115542.397500", "115543.887500", "115545.377500", "115546.867500", "115548.357500", "115549.847500", "115551.337500", "115552.827500", "115554.317500", "115555.807500", "115557.297500", "115558.787500", "115600.277500", "115601.767500", "115603.257500", "115604.747500", "115606.237500", "115607.727500", "115609.217500", "115610.707500", "115612.197500", "115613.687500", "115615.177500", "115616.667500", "115618.157500", "115619.647500", "115621.137500", "115622.627500", "115624.117500", "115625.607500", "115627.097500", "115628.587500", "115630.077500", "115631.567500", "115633.057500", "115634.547500", "115636.037500", "115637.527500", "115639.017500", "115640.507500", "115641.997500", "115643.487500"],
      "ContentTime": ["114602.961000", "114602.964000", "114602.967000", "114602.970000", "114602.973000", "114602.975000", "114602.978000", "114602.981000", "114602.984000", "114602.987000", "114602.990000", "114602.992000", "114602.995000", "114602.998000", "114622.921000", "114622.924000", "114622.927000", "114622.929000", "114622.932000", "114622.935000", "114622.938000", "114622.951000", "114622.953000", "114622.956000", "114622.969000", "114622.972000", "114622.974000", "114622.977000", "114622.980000", "114622.983000", "114622.986000", "114622.989000", "114622.991000", "114622.994000", "114642.921000", "114642.924000", "114642.927000", "114642.929000", "114642.932000", "114642.935000", "114642.938000", "114642.941000", "114642.944000", "114642.947000", "114642.950000", "114642.953000", "114642.955000", "114642.958000", "114642.961000", "114642.964000", "114642.967000", "114642.970000", "114642.973000", "114642.983000", "114702.921000", "114702.924000", "114702.927000", "114702.930000", "114702.933000", "114702.935000", "114702.938000", "114702.941000", "114702.944000", "114702.947000", "114702.950000", "114702.953000", "114702.956000", "114702.958000", "114702.961000", "114702.964000", "114702.967000", "114702.970000", "114702.973000", "114702.976000", "114702.979000", "114722.920000", "114722.923000", "114722.926000", "114722.929000", "114722.932000", "114722.935000", "114722.937000", "114722.940000", "114722.943000", "114722.946000", "114722.949000", "114722.952000", "114722.954000", "114722.962000", "114722.965000", "114722.968000", "114722.970000", "114722.973000", "114722.976000", "114722.979000", "114742.920000", "114742.923000", "114742.926000", "114742.929000", "114742.931000", "114742.934000", "114742.937000", "114742.940000", "114742.951000", "114742.954000", "114742.957000", "114742.960000", "114742.963000", "114742.965000", "114742.968000", "114742.971000", "114742.974000", "114742.977000", "114742.980000", "114742.982000", "114822.922000", "114822.925000", "114822.928000", "114822.931000", "114822.934000", "114822.937000", "114822.940000", "114822.943000", "114822.945000", "114822.948000", "114822.951000", "114822.954000", "114822.957000", "114822.960000", "114822.963000", "114822.966000", "114822.969000", "114822.971000", "114822.974000", "114822.977000", "114822.980000", "114822.983000", "114822.986000", "114822.989000", "114822.992000", "114822.994000", "114902.921000", "114902.924000", "114902.927000", "114902.930000", "114902.933000", "114902.935000", "114902.938000", "114902.941000", "114902.944000", "114902.947000", "114902.950000", "114902.952000", "114902.955000", "114902.958000", "114902.961000", "114902.964000", "114902.967000", "114902.970000", "114902.972000", "114902.975000", "114902.978000", "114902.981000", "114902.984000", "114902.986000", "114902.989000", "114902.992000", "114902.995000", "114942.920000", "114942.923000", "114942.926000", "114942.929000", "114942.932000", "114942.935000", "114942.938000", "114942.941000", "114942.944000", "114942.947000", "114942.950000", "114942.952000", "114942.955000", "114942.958000", "114942.961000", "114942.964000", "114942.967000", "114942.970000", "114942.973000", "114942.976000", "114942.978000", "114942.981000", "114942.984000", "114942.987000", "114942.990000", "114942.993000", "114942.996000", "115022.920000", "115022.923000", "115022.926000", "115022.929000", "115022.932000", "115022.934000", "115022.937000", "115022.940000", "115022.943000", "115022.946000", "115022.949000", "115022.951000", "115022.954000", "115022.957000", "115022.960000", "115022.963000", "115022.978000", "115022.981000", "115022.984000", "115022.986000", "115022.989000", "115022.992000", "115022.995000", "115022.998000", "115023.002000", "115023.005000", "115023.020000", "115102.921000", "115102.924000", "115102.927000", "115102.930000", "115102.932000", "115102.935000", "115102.938000", "115102.941000", "115102.944000", "115102.947000", "115102.949000", "115102.952000", "115102.955000", "115102.958000", "115102.961000", "115102.964000", "115102.976000", "115102.979000", "115102.981000", "115102.984000", "115102.987000", "115102.990000", "115102.993000", "115102.996000", "115103.000000", "115103.003000", "115103.005000", "115142.921000", "115142.924000", "115142.927000", "115142.930000", "115142.932000", "115142.935000", "115142.938000", "115142.941000", "115142.944000", "115142.947000", "115142.949000", "115142.952000", "115142.955000", "115142.958000", "115142.961000", "115142.964000", "115142.966000", "115142.969000", "115142.972000", "115142.975000", "115142.978000", "115142.981000", "115142.984000", "115142.986000", "115142.989000", "115142.992000", "115142.995000", "115222.920000", "115222.923000", "115222.927000", "115222.930000", "115222.933000", "115222.937000", "115222.941000", "115222.944000", "115222.947000", "115222.949000", "115222.952000", "115222.955000", "115222.958000", "115222.961000", "115222.964000", "115222.967000", "115222.970000", "115222.973000", "115222.986000", "115222.989000", "115222.992000", "115222.995000", "115222.997000", "115223.001000", "115223.004000", "115223.007000", "115302.921000", "115302.924000", "115302.927000", "115302.930000", "115302.932000", "115302.935000", "115302.938000", "115302.941000", "115302.944000", "115302.947000", "115302.949000", "115302.952000", "115302.955000", "115302.958000", "115302.961000", "115302.964000", "115302.966000", "115302.969000", "115302.972000", "115302.975000", "115302.978000", "115302.981000", "115302.983000", "115302.986000", "115302.989000", "115302.992000", "115302.995000", "115342.921000", "115342.924000", "115342.927000", "115342.930000", "115342.932000", "115342.935000", "115342.938000", "115342.946000", "115342.949000", "115342.952000", "115342.955000", "115342.958000", "115342.961000", "115342.964000", "115342.967000", "115342.970000", "115342.972000", "115342.975000", "115342.978000", "115342.981000", "115342.984000", "115342.987000", "115342.989000", "115342.992000", "115342.995000", "115342.998000", "115343.002000", "115422.920000", "115422.923000", "115422.926000", "115422.929000", "115422.932000", "115422.934000", "115422.937000", "115422.940000", "115422.943000", "115422.946000", "115422.949000", "115422.952000", "115422.955000", "115422.958000", "115422.960000", "115422.963000", "115422.966000", "115422.969000", "115422.972000", "115422.975000", "115422.978000", "115422.980000", "115422.983000", "115422.986000", "115422.989000", "115422.992000", "115422.995000", "115502.920000", "115502.923000", "115502.926000", "115502.929000", "115502.932000", "115502.935000", "115502.938000", "115502.940000", "115502.943000", "115502.946000", "115502.949000", "115502.952000", "115502.955000", "115502.958000", "115502.975000", "115502.977000", "115502.980000", "115502.983000", "115502.986000", "115502.989000", "115502.992000", "115502.994000", "115503.011000", "115503.014000", "115503.017000", "115503.020000", "115503.022000", "115542.921000", "115542.924000", "115542.927000", "115542.930000", "115542.933000", "115542.935000", "115542.938000", "115542.941000", "115542.944000", "115542.947000", "115542.950000", "115542.953000", "115542.955000", "115542.958000", "115542.961000", "115542.964000", "115542.967000", "115542.970000", "115542.973000", "115542.976000", "115542.978000", "115542.981000", "115542.984000", "115542.987000", "115542.990000", "115542.993000", "115542.996000", "115602.921000", "115602.924000", "115602.927000", "115602.930000", "115602.933000", "115602.935000", "115602.938000", "115602.941000", "115602.944000", "115602.947000", "115602.950000", "115602.953000", "115602.956000", "115642.920000", "115642.923000", "115642.926000", "115642.929000", "115642.932000", "115642.934000", "115642.937000", "115642.940000", "115642.943000", "115642.946000", "115642.949000", "115642.952000", "115642.955000", "115642.957000", "115642.960000", "115642.963000", "115642.966000", "115642.969000", "115642.972000", "115642.974000", "115642.977000", "115642.980000", "115642.983000", "115642.986000", "115642.989000", "115642.992000", "115642.994000", "115645.231000", "115645.234000"],
