{
  "AcquisitionMatrixPE": 104,
  "AcquisitionNumber": 1,
  "AcquisitionTime": "11:32:28.812500",
  "BandwidthPerPixelPhaseEncode": 17.17,
  "BaseResolution": 104,
  "BodyPartExamined": "BRAIN",
  "CoilCombinationMethod": "Sum of Squares",
  "ConsistencyInfo": "N4_VE11C_LATEST_20160120",
  "ConversionSoftware": "dcm2niix",
  "ConversionSoftwareVersion": "v1.0.20211006",
  "DerivedVendorReportedEchoSpacing": 0.000560011,
  "DeviceSerialNumber": "167006",
  "DwellTime": 2.1e-06,
  "EchoTime": 0.037,
  "EchoTrainLength": 104,
  "EffectiveEchoSpacing": 0.000560011,
  "FlipAngle": 52,
  "HeudiconvVersion": "0.11.3.post9+gc939bf8",
  "ImageComments": "Unaliased MB4/PE3/LB",
  "ImageOrientationPatientDICOM": [0.997032, 0.0767108, 0.00659756, -0.0693695, 0.932173, -0.355306],
  "ImageOrientationText": "Tra>Cor(-20.7)>Sag(1.9)",
  "ImageType": [
    "ORIGINAL",
    "PRIMARY",
    "M",
    "MB",
    "ND",
    "MOSAIC"
],
  "ImagingFrequency": 123.259,
  "InPlanePhaseEncodingDirectionDICOM": "COL",
  "InstitutionAddress": "Chemin Queen-Mary 4565,Montreal,District,CA,H3W 1W5",
  "InstitutionName": "IUGM",
  "InstitutionalDepartmentName": "Department",
  "MRAcquisitionType": "2D",
  "MagneticFieldStrength": 3,
  "Manufacturer": "Siemens",
  "ManufacturersModelName": "Prisma_fit",
  "MatrixCoilMode": "SENSE",
  "Modality": "MR",
  "MultibandAccelerationFactor": 4,
  "PartialFourier": 1,
  "PatientPosition": "HFS",
  "PercentPhaseFOV": 100,
  "PercentSampling": 100,
  "PhaseEncodingDirection": "j",
  "PhaseEncodingSteps": 104,
  "PhaseResolution": 1,
  "PixelBandwidth": 2290,
  "ProcedureStepDescription": "video^friends",
  "ProtocolName": "func_task-friends-s06e07a",
  "PulseSequenceDetails": "%CustomerSeq%\\cmrr_mbep2d_bold",
  "ReceiveCoilActiveElements": "HC1-7;NC1,2",
  "ReceiveCoilName": "HeadNeck_64",
  "ReconMatrixPE": 104,
  "RepetitionTime": 1.49,
  "SAR": 0.037395,
  "ScanOptions": "FS",
  "ScanningSequence": "EP",
  "SequenceName": "epfid2d1_104",
  "SequenceVariant": "SK\\SS",
  "SeriesDescription": "func_task-friends-s06e07a",
  "SeriesNumber": 14,
  "ShimSetting": [620, -7196, -8837, 678, 62, -56, -53, 6],
  "SliceThickness": 2,
  "SliceTiming": [0, 0.785, 0.1, 0.8825, 0.1975, 0.98, 0.295, 1.08, 0.3925, 1.1775, 0.49, 1.275, 0.59, 1.3725, 0.6875, 0, 0.785, 0.1, 0.8825, 0.1975, 0.98, 0.295, 1.08, 0.3925, 1.1775, 0.49, 1.275, 0.59, 1.3725, 0.6875, 0, 0.785, 0.1, 0.8825, 0.1975, 0.98, 0.295, 1.08, 0.3925, 1.1775, 0.49, 1.275, 0.59, 1.3725, 0.6875, 0, 0.785, 0.1, 0.8825, 0.1975, 0.98, 0.295, 1.08, 0.3925, 1.1775, 0.49, 1.275, 0.59, 1.3725, 0.6875],
  "SoftwareVersions": "syngo MR E11",
  "SpacingBetweenSlices": 2,
  "StationName": "MRC35049",
  "TaskName": "s06e07a",
  "TotalReadoutTime": 0.0576811,
  "TxRefAmp": 245.19,
  "WipMemBlock": "6b1e7c1c-cecc-46a2-830f-d42793699f20||Sequence: R016 ve11c/master r/e634e98; Dec 19 2017 11:00:25 by eja",
  "dcmmeta_affine": [
    [-1.994063138961792, -0.1387389898300171, 0.0668116956949234, 107.77042388916016],
    [-0.15342164039611816, 1.8643451929092407, -0.7075865864753723, -60.65653991699219],
    [0.01319511141628027, 0.7106113433837891, 1.86945378780365, -72.52747344970703],
    [0.0, 0.0, 0.0, 1.0]
],
  "dcmmeta_reorient_transform": [
    [0.0, -1.0, 0.0, 103.0],
    [1.0, 0.0, 0.0, 0.0],
    [0.0, 0.0, 1.0, 0.0],
    [0.0, 0.0, 0.0, 1.0]
],
  "dcmmeta_shape": [104, 104, 60, 445],
  "dcmmeta_slice_dim": 2,
  "dcmmeta_version": 0.6,
  "global": {
    "const": {
      "AcquisitionMatrix": [104, 0, 0, 104],
      "AngioFlag": "N",
      "BitsAllocated": 16,
      "BitsStored": 16,
      "BodyPartExamined": "BRAIN",
      "Columns": 832,
      "EchoNumbers": 1,
      "EchoTime": 37.0,
      "EchoTrainLength": 104,
      "FlipAngle": 52.0,
      "HighBit": 15,
      "ImageOrientationPatient": [0.99703155523254, 0.07671082146249, 0.00659755569379, -0.0693694965968, 0.93217260117826, -0.3553056635553],
      "ImagePositionPatient": [-768.81828294021, -865.83814737709, 254.52499849345],
      "ImageType": [
        "ORIGINAL",
        "PRIMARY",
        "M",
        "MB",
        "ND",
        "MOSAIC"
],
      "ImagedNucleus": "1H",
      "ImagingFrequency": 123.258731,
      "InPlanePhaseEncodingDirection": "COL",
      "MRAcquisitionType": "2D",
      "MagneticFieldStrength": 3.0,
      "Manufacturer": "SIEMENS",
      "ManufacturerModelName": "Prisma_fit",
      "Modality": "MR",
      "NumberOfAverages": 1.0,
      "NumberOfPhaseEncodingSteps": 104,
      "PercentPhaseFieldOfView": 100.0,
      "PercentSampling": 100.0,
      "PerformedProcedureStepStartTime": "104302.515000",
      "PhotometricInterpretation": "MONOCHROME2",
      "PixelBandwidth": 2290.0,
      "PixelRepresentation": 0,
      "PixelSpacing": [2.0, 2.0],
      "ProtocolName": "func_task-friends-s06e07a",
      "RepetitionTime": 1490.0,
      "Rows": 832,
      "SAR": 0.03739496539273,
      "SamplesPerPixel": 1,
      "ScanOptions": "FS",
      "ScanningSequence": "EP",
      "SequenceName": "epfid2d1_104",
      "SequenceVariant": [
        "SK",
        "SS"
],
      "SeriesDescription": "func_task-friends-s06e07a",
      "SeriesNumber": 14,
      "SeriesTime": "113358.821000",
      "SliceLocation": -42.733337750567,
      "SliceThickness": 2.0,
      "SmallestImagePixelValue": 0,
      "SoftwareVersions": "syngo MR E11",
      "SpacingBetweenSlices": 1.999999977505,
      "SpecificCharacterSet": "ISO_IR 100",
      "StudyID": "1",
      "StudyTime": "104302.457000",
      "TransmitCoilName": "Body",
      "VariableFlipAngleFlag": "N",
      "WindowCenterWidthExplanation": "Algo1",
      "dBdt": 0.0},
    "slices": {}
  },
  "time": {
    "samples": {
      "AcquisitionNumber": [1, 2, 3, 4, 5, 6, 7, 8, 9, 10, 11, 12, 13, 14, 15, 16, 17, 18, 19, 20, 21, 22, 23, 24, 25, 26, 27, 28, 29, 30, 31, 32, 33, 34, 35, 36, 37, 38, 39, 40, 41, 42, 43, 44, 45, 46, 47, 48, 49, 50, 51, 52, 53, 54, 55, 56, 57, 58, 59, 60, 61, 62, 63, 64, 65, 66, 67, 68, 69, 70, 71, 72, 73, 74, 75, 76, 77, 78, 79, 80, 81, 82, 83, 84, 85, 86, 87, 88, 89, 90, 91, 92, 93, 94, 95, 96, 97, 98, 99, 100, 101, 102, 103, 104, 105, 106, 107, 108, 109, 110, 111, 112, 113, 114, 115, 116, 117, 118, 119, 120, 121, 122, 123, 124, 125, 126, 127, 128, 129, 130, 131, 132, 133, 134, 135, 136, 137, 138, 139, 140, 141, 142, 143, 144, 145, 146, 147, 148, 149, 150, 151, 152, 153, 154, 155, 156, 157, 158, 159, 160, 161, 162, 163, 164, 165, 166, 167, 168, 169, 170, 171, 172, 173, 174, 175, 176, 177, 178, 179, 180, 181, 182, 183, 184, 185, 186, 187, 188, 189, 190, 191, 192, 193, 194, 195, 196, 197, 198, 199, 200, 201, 202, 203, 204, 205, 206, 207, 208, 209, 210, 211, 212, 213, 214, 215, 216, 217, 218, 219, 220, 221, 222, 223, 224, 225, 226, 227, 228, 229, 230, 231, 232, 233, 234, 235, 236, 237, 238, 239, 240, 241, 242, 243, 244, 245, 246, 247, 248, 249, 250, 251, 252, 253, 254, 255, 256, 257, 258, 259, 260, 261, 262, 263, 264, 265, 266, 267, 268, 269, 270, 271, 272, 273, 274, 275, 276, 277, 278, 279, 280, 281, 282, 283, 284, 285, 286, 287, 288, 289, 290, 291, 292, 293, 294, 295, 296, 297, 298, 299, 300, 301, 302, 303, 304, 305, 306, 307, 308, 309, 310, 311, 312, 313, 314, 315, 316, 317, 318, 319, 320, 321, 322, 323, 324, 325, 326, 327, 328, 329, 330, 331, 332, 333, 334, 335, 336, 337, 338, 339, 340, 341, 342, 343, 344, 345, 346, 347, 348, 349, 350, 351, 352, 353, 354, 355, 356, 357, 358, 359, 360, 361, 362, 363, 364, 365, 366, 367, 368, 369, 370, 371, 372, 373, 374, 375, 376, 377, 378, 379, 380, 381, 382, 383, 384, 385, 386, 387, 388, 389, 390, 391, 392, 393, 394, 395, 396, 397, 398, 399, 400, 401, 402, 403, 404, 405, 406, 407, 408, 409, 410, 411, 412, 413, 414, 415, 416, 417, 418, 419, 420, 421, 422, 423, 424, 425, 426, 427, 428, 429, 430, 431, 432, 433, 434, 435, 436, 437, 438, 439, 440, 441, 442, 443, 444, 445],
      "AcquisitionTime": ["113228.812500", "113230.302500", "113231.792500", "113233.282500", "113234.772500", "113236.262500", "113237.752500", "113239.242500", "113240.732500", "113242.222500", "113243.712500", "113245.202500", "113246.692500", "113248.182500", "113249.672500", "113251.162500", "113252.652500", "113254.142500", "113255.632500", "113257.122500", "113258.612500", "113300.102500", "113301.592500", "113303.082500", "113304.572500", "113306.062500", "113307.552500", "113309.042500", "113310.532500", "113312.022500", "113313.512500", "113315.002500", "113316.492500", "113317.982500", "113319.472500", "113320.962500", "113322.452500", "113323.942500", "113325.432500", "113326.922500", "113328.412500", "113329.902500", "113331.392500", "113332.882500", "113334.372500", "113335.862500", "113337.352500", "113338.842500", "113340.332500", "113341.822500", "113343.312500", "113344.802500", "113346.292500", "113347.782500", "113349.272500", "113350.762500", "113352.252500", "113353.742500", "113355.232500", "113356.722500", "113358.212500", "113359.702500", "113401.192500", "113402.682500", "113404.172500", "113405.662500", "113407.152500", "113408.642500", "113410.132500", "113411.622500", "113413.112500", "113414.602500", "113416.092500", "113417.582500", "113419.072500", "113420.562500", "113422.052500", "113423.542500", "113425.032500", "113426.522500", "113428.012500", "113429.502500", "113430.992500", "113432.482500", "113433.972500", "113435.462500", "113436.952500", "113438.442500", "113439.932500", "113441.422500", "113442.912500", "113444.402500", "113445.892500", "113447.382500", "113448.872500", "113450.362500", "113451.852500", "113453.342500", "113454.832500", "113456.322500", "113457.812500", "113459.302500", "113500.792500", "113502.282500", "113503.772500", "113505.262500", "113506.752500", "113508.242500", "113509.732500", "113511.222500", "113512.712500", "113514.202500", "113515.692500", "113517.182500", "113518.672500", "113520.162500", "113521.652500", "113523.142500", "113524.632500", "113526.122500", "113527.612500", "113529.102500", "113530.592500", "113532.082500", "113533.572500", "113535.062500", "113536.552500", "113538.042500", "113539.532500", "113541.022500", "113542.512500", "113544.002500", "113545.492500", "113546.982500", "113548.472500", "113549.962500", "113551.452500", "113552.942500", "113554.432500", "113555.922500", "113557.412500", "113558.902500", "113600.392500", "113601.882500", "113603.372500", "113604.862500", "113606.352500", "113607.842500", "113609.332500", "113610.822500", "113612.312500", "113613.802500", "113615.292500", "113616.782500", "113618.272500", "113619.762500", "113621.252500", "113622.742500", "113624.232500", "113625.722500", "113627.212500", "113628.702500", "113630.192500", "113631.682500", "113633.172500", "113634.662500", "113636.152500", "113637.642500", "113639.132500", "113640.622500", "113642.112500", "113643.602500", "113645.092500", "113646.582500", "113648.072500", "113649.562500", "113651.052500", "113652.542500", "113654.032500", "113655.522500", "113657.012500", "113658.502500", "113659.992500", "113701.482500", "113702.972500", "113704.462500", "113705.952500", "113707.442500", "113708.932500", "113710.422500", "113711.912500", "113713.402500", "113714.892500", "113716.382500", "113717.872500", "113719.362500", "113720.852500", "113722.342500", "113723.832500", "113725.322500", "113726.812500", "113728.302500", "113729.792500", "113731.282500", "113732.772500", "113734.262500", "113735.752500", "113737.242500", "113738.732500", "113740.222500", "113741.712500", "113743.202500", "113744.692500", "113746.182500", "113747.672500", "113749.162500", "113750.652500", "113752.142500", "113753.632500", "113755.122500", "113756.612500", "113758.102500", "113759.592500", "113801.082500", "113802.572500", "113804.062500", "113805.552500", "113807.042500", "113808.532500", "113810.022500", "113811.512500", "113813.002500", "113814.492500", "113815.982500", "113817.472500", "113818.962500", "113820.452500", "113821.942500", "113823.432500", "113824.922500", "113826.412500", "113827.902500", "113829.392500", "113830.882500", "113832.372500", "113833.862500", "113835.352500", "113836.842500", "113838.332500", "113839.822500", "113841.312500", "113842.802500", "113844.292500", "113845.782500", "113847.272500", "113848.762500", "113850.252500", "113851.742500", "113853.232500", "113854.722500", "113856.212500", "113857.702500", "113859.192500", "113900.682500", "113902.172500", "113903.662500", "113905.152500", "113906.642500", "113908.132500", "113909.622500", "113911.112500", "113912.602500", "113914.092500", "113915.582500", "113917.072500", "113918.562500", "113920.052500", "113921.542500", "113923.032500", "113924.522500", "113926.012500", "113927.502500", "113928.992500", "113930.482500", "113931.972500", "113933.462500", "113934.952500", "113936.442500", "113937.932500", "113939.422500", "113940.912500", "113942.402500", "113943.892500", "113945.382500", "113946.872500", "113948.362500", "113949.852500", "113951.342500", "113952.832500", "113954.322500", "113955.812500", "113957.302500", "113958.792500", "114000.282500", "114001.772500", "114003.262500", "114004.752500", "114006.242500", "114007.732500", "114009.222500", "114010.712500", "114012.202500", "114013.692500", "114015.182500", "114016.672500", "114018.162500", "114019.652500", "114021.142500", "114022.632500", "114024.122500", "114025.612500", "114027.102500", "114028.592500", "114030.082500", "114031.572500", "114033.062500", "114034.552500", "114036.042500", "114037.532500", "114039.022500", "114040.512500", "114042.002500", "114043.492500", "114044.982500", "114046.472500", "114047.962500", "114049.452500", "114050.942500", "114052.432500", "114053.922500", "114055.412500", "114056.902500", "114058.392500", "114059.882500", "114101.372500", "114102.862500", "114104.352500", "114105.842500", "114107.332500", "114108.822500", "114110.312500", "114111.802500", "114113.292500", "114114.782500", "114116.272500", "114117.762500", "114119.252500", "114120.742500", "114122.232500", "114123.722500", "114125.212500", "114126.702500", "114128.192500", "114129.682500", "114131.172500", "114132.662500", "114134.152500", "114135.642500", "114137.132500", "114138.622500", "114140.112500", "114141.602500", "114143.092500", "114144.582500", "114146.072500", "114147.562500", "114149.052500", "114150.542500", "114152.032500", "114153.522500", "114155.012500", "114156.502500", "114157.992500", "114159.482500", "114200.972500", "114202.462500", "114203.952500", "114205.442500", "114206.932500", "114208.422500", "114209.912500", "114211.402500", "114212.892500", "114214.382500", "114215.872500", "114217.362500", "114218.852500", "114220.342500", "114221.832500", "114223.322500", "114224.812500", "114226.302500", "114227.792500", "114229.282500", "114230.772500", "114232.262500", "114233.752500", "114235.242500", "114236.732500", "114238.222500", "114239.712500", "114241.202500", "114242.692500", "114244.182500", "114245.672500", "114247.162500", "114248.652500", "114250.142500", "114251.632500", "114253.122500", "114254.612500", "114256.102500", "114257.592500", "114259.082500", "114300.572500", "114302.062500", "114303.552500", "114305.042500", "114306.532500", "114308.022500", "114309.512500", "114311.002500", "114312.492500", "114313.982500", "114315.472500", "114316.962500", "114318.452500", "114319.942500", "114321.432500", "114322.922500", "114324.412500", "114325.902500", "114327.392500", "114328.882500", "114330.372500"],
      "ContentTime": ["113358.824000", "113358.827000", "113358.832000", "113358.839000", "113358.842000", "113358.845000", "113358.848000", "113358.850000", "113358.853000", "113358.856000", "113358.859000", "113358.862000", "113358.874000", "113358.876000", "113358.879000", "113358.882000", "113358.885000", "113358.888000", "113358.891000", "113358.893000", "113358.896000", "113358.899000", "113358.902000", "113358.905000", "113358.907000", "113358.910000", "113358.913000", "113358.916000", "113358.919000", "113358.922000", "113358.924000", "113418.786000", "113418.789000", "113418.792000", "113418.794000", "113418.807000", "113418.810000", "113418.813000", "113418.816000", "113418.818000", "113418.821000", "113418.824000", "113418.827000", "113418.830000", "113418.832000", "113418.835000", "113418.838000", "113418.841000", "113418.844000", "113418.847000", "113418.849000", "113438.786000", "113438.789000", "113438.792000", "113438.794000", "113438.797000", "113438.800000", "113438.811000", "113438.814000", "113438.816000", "113438.819000", "113438.822000", "113438.825000", "113438.828000", "113438.831000", "113438.834000", "113438.836000", "113438.839000", "113438.842000", "113438.845000", "113438.848000", "113458.787000", "113458.790000", "113458.792000", "113458.795000", "113458.798000", "113458.812000", "113458.815000", "113458.818000", "113458.821000", "113458.823000", "113458.826000", "113458.829000", "113458.832000", "113458.835000", "113458.837000", "113458.840000", "113458.843000", "113458.846000", "113458.849000", "113458.852000", "113518.787000", "113518.790000", "113518.793000", "113518.795000", "113518.798000", "113518.801000", "113518.804000", "113518.807000", "113518.809000", "113518.812000", "113518.815000", "113518.818000", "113518.821000", "113518.823000", "113518.826000", "113518.829000", "113518.832000", "113518.845000", "113518.847000", "113518.850000", "113518.853000", "113558.787000", "113558.790000", "113558.793000", "113558.796000", "113558.799000", "113558.801000", "113558.804000", "113558.807000", "113558.810000", "113558.813000", "113558.815000", "113558.818000", "113558.821000", "113558.824000", "113558.827000", "113558.829000", "113558.832000", "113558.835000", "113558.838000", "113558.841000", "113558.844000", "113558.846000", "113558.849000", "113558.852000", "113558.855000", "113558.858000", "113558.861000", "113558.863000", "113638.786000", "113638.789000", "113638.792000", "113638.795000", "113638.797000", "113638.800000", "113638.803000", "113638.806000", "113638.809000", "113638.812000", "113638.814000", "113638.817000", "113638.820000", "113638.823000", "113638.826000", "113638.829000", "113638.832000", "113638.834000", "113638.837000", "113638.840000", "113638.843000", "113638.846000", "113638.849000", "113638.851000", "113638.854000", "113638.857000", "113638.860000", "113718.787000", "113718.790000", "113718.793000", "113718.796000", "113718.798000", "113718.801000", "113718.804000", "113718.807000", "113718.810000", "113718.812000", "113718.815000", "113718.818000", "113718.821000", "113718.824000", "113718.827000", "113718.829000", "113718.832000", "113718.835000", "113718.838000", "113718.841000", "113718.844000", "113718.846000", "113718.849000", "113718.852000", "113718.855000", "113718.858000", "113718.860000", "113758.787000", "113758.790000", "113758.793000", "113758.796000", "113758.798000", "113758.801000", "113758.804000", "113758.807000", "113758.810000", "113758.813000", "113758.816000", "113758.818000", "113758.821000", "113758.824000", "113758.827000", "113758.830000", "113758.833000", "113758.835000", "113758.838000", "113758.841000", "113758.844000", "113758.847000", "113758.850000", "113758.852000", "113758.855000", "113758.858000", "113758.861000", "113838.786000", "113838.789000", "113838.792000", "113838.795000", "113838.797000", "113838.800000", "113838.803000", "113838.806000", "113838.809000", "113838.812000", "113838.814000", "113838.817000", "113838.820000", "113838.823000", "113838.826000", "113838.829000", "113838.832000", "113838.834000", "113838.837000", "113838.840000", "113838.843000", "113838.846000", "113838.849000", "113838.851000", "113838.854000", "113838.857000", "113838.860000", "113918.786000", "113918.789000", "113918.792000", "113918.795000", "113918.797000", "113918.800000", "113918.803000", "113918.806000", "113918.809000", "113918.812000", "113918.814000", "113918.817000", "113918.820000", "113918.823000", "113918.826000", "113918.829000", "113918.832000", "113918.834000", "113918.837000", "113918.840000", "113918.843000", "113918.846000", "113918.849000", "113918.852000", "113918.854000", "113918.857000", "113958.787000", "113958.790000", "113958.793000", "113958.796000", "113958.798000", "113958.801000", "113958.804000", "113958.807000", "113958.810000", "113958.812000", "113958.815000", "113958.818000", "113958.821000", "113958.824000", "113958.827000", "113958.830000", "113958.832000", "113958.835000", "113958.838000", "113958.841000", "113958.844000", "113958.847000", "113958.849000", "113958.852000", "113958.855000", "113958.858000", "113958.875000", "114038.787000", "114038.790000", "114038.793000", "114038.795000", "114038.798000", "114038.801000", "114038.804000", "114038.807000", "114038.810000", "114038.812000", "114038.815000", "114038.818000", "114038.821000", "114038.824000", "114038.827000", "114038.830000", "114038.833000", "114038.835000", "114038.838000", "114038.841000", "114038.844000", "114038.847000", "114038.850000", "114038.852000", "114038.855000", "114038.858000", "114038.861000", "114118.786000", "114118.789000", "114118.792000", "114118.795000", "114118.798000", "114118.801000", "114118.803000", "114118.806000", "114118.809000", "114118.812000", "114118.815000", "114118.818000", "114118.821000", "114118.823000", "114118.826000", "114118.829000", "114118.832000", "114118.835000", "114118.838000", "114118.841000", "114118.843000", "114118.846000", "114118.849000", "114118.852000", "114118.855000", "114118.858000", "114118.861000", "114158.787000", "114158.790000", "114158.793000", "114158.796000", "114158.798000", "114158.801000", "114158.804000", "114158.807000", "114158.810000", "114158.813000", "114158.816000", "114158.819000", "114158.821000", "114158.824000", "114158.827000", "114158.830000", "114158.833000", "114158.835000", "114158.838000", "114158.841000", "114158.844000", "114158.847000", "114158.850000", "114158.853000", "114158.855000", "114158.858000", "114158.861000", "114238.787000", "114238.790000", "114238.793000", "114238.796000", "114238.799000", "114238.801000", "114238.804000", "114238.807000", "114238.810000", "114238.813000", "114238.816000", "114238.819000", "114238.821000", "114238.824000", "114238.827000", "114238.830000", "114238.833000", "114238.836000", "114238.838000", "114238.841000", "114238.844000", "114238.847000", "114238.850000", "114238.853000", "114238.855000", "114238.858000", "114238.861000", "114318.786000", "114318.789000", "114318.792000", "114318.795000", "114318.798000", "114318.800000", "114318.803000", "114318.806000", "114318.809000", "114318.812000", "114318.815000", "114318.818000", "114318.821000", "114318.824000", "114318.826000", "114318.829000", "114318.832000", "114318.835000", "114318.838000", "114318.841000", "114318.844000", "114318.846000", "114318.849000", "114318.852000", "114318.855000", "114318.858000", "114332.331000", "114332.334000", "114332.337000", "114332.339000", "114332.342000", "114332.345000", "114332.348000", "114332.351000", "114332.354000", "114332.356000"],
