{
  "AcquisitionMatrixPE": 104,
  "AcquisitionNumber": 1,
  "AcquisitionTime": "17:26:57.402500",
  "BandwidthPerPixelPhaseEncode": 17.17,
  "BaseResolution": 104,
  "BodyPartExamined": "BRAIN",
  "CoilString": "HC1-7;NC1_2",
  "ConsistencyInfo": "N4_VE11C_LATEST_20160120",
  "ConversionSoftware": "dcm2niix",
  "ConversionSoftwareVersion": "v1.0.20190902",
  "DerivedVendorReportedEchoSpacing": 0.000560011,
  "DeviceSerialNumber": "167006",
  "DwellTime": 2.1e-06,
  "EchoTime": 0.037,
  "EchoTrainLength": 104,
  "EffectiveEchoSpacing": 0.000560011,
  "FlipAngle": 52,
  "ImageComments": "Unaliased_MB4_PE3_LB",
  "ImageOrientationPatientDICOM": [0.999807, 0.015731, -0.0117427, -0.0179754, 0.974057, -0.225587],
  "ImageType": [
    "ORIGINAL",
    "PRIMARY",
    "M",
    "MB",
    "ND",
    "MOSAIC"
],
  "ImagingFrequency": 123.259,
  "InPlanePhaseEncodingDirectionDICOM": "COL",
  "InstitutionAddress": "Chemin_Queen-Mary_4565_Montreal_District_CA_H3W_1W5",
  "InstitutionName": "IUGM",
  "InstitutionalDepartmentName": "Department",
  "MRAcquisitionType": "2D",
  "MagneticFieldStrength": 3,
  "Manufacturer": "Siemens",
  "ManufacturersModelName": "Prisma_fit",
  "Modality": "MR",
  "MultibandAccelerationFactor": 4,
  "PartialFourier": 1,
  "PatientPosition": "HFS",
  "PercentPhaseFOV": 100,
  "PhaseEncodingDirection": "j",
  "PhaseEncodingSteps": 104,
  "PhaseResolution": 1,
  "PixelBandwidth": 2290,
  "ProcedureStepDescription": "video_friends",
  "ProtocolName": "func_task-friends-s04e04a",
  "PulseSequenceDetails": "%CustomerSeq%_cmrr_mbep2d_bold",
  "ReceiveCoilActiveElements": "HC1-7;NC1,2",
  "ReceiveCoilName": "HeadNeck_64",
  "ReconMatrixPE": 104,
  "RepetitionTime": 1.49,
  "SAR": 0.0349526,
  "ScanOptions": "FS",
  "ScanningSequence": "EP",
  "SequenceName": "epfid2d1_104",
  "SequenceVariant": "SK_SS",
  "SeriesDescription": "func_task-friends-s04e04a",
  "SeriesNumber": 9,
  "ShimSetting": [627, -7240, -8690, 731, 29, -46, 122, 1],
  "SliceThickness": 2,
  "SliceTiming": [0, 0.7825, 0.0975, 0.8825, 0.195, 0.98, 0.295, 1.0775, 0.3925, 1.175, 0.49, 1.2725, 0.5875, 1.3725, 0.685, 0, 0.7825, 0.0975, 0.8825, 0.195, 0.98, 0.295, 1.0775, 0.3925, 1.175, 0.49, 1.2725, 0.5875, 1.3725, 0.685, 0, 0.7825, 0.0975, 0.8825, 0.195, 0.98, 0.295, 1.0775, 0.3925, 1.175, 0.49, 1.2725, 0.5875, 1.3725, 0.685, 0, 0.7825, 0.0975, 0.8825, 0.195, 0.98, 0.295, 1.0775, 0.3925, 1.175, 0.49, 1.2725, 0.5875, 1.3725, 0.685],
  "SoftwareVersions": "syngo_MR_E11",
  "SpacingBetweenSlices": 2,
  "StationName": "MRC35049",
  "TaskName": "s04e04a",
  "TotalReadoutTime": 0.0576811,
  "TxRefAmp": 215.321,
  "WipMemBlock": "b1a00643-61cf-4bdd-99d6-3db9a0793a21||Sequence: R016 ve11c/master r/e634e98; Dec 19 2017 11:00:25 by eja",
  "dcmmeta_affine": [
    [-1.9996145963668823, -0.03595071658492088, -0.015778740867972374, 107.10430908203125],
    [-0.03146200254559517, 1.9481145143508911, -0.4515085220336914, -84.68926239013672],
    [-0.023485425859689713, 0.4511733055114746, 1.9483046531677246, -32.342613220214844],
    [0.0, 0.0, 0.0, 1.0]
],
  "dcmmeta_reorient_transform": [
    [0.0, -1.0, 0.0, 103.0],
    [1.0, 0.0, 0.0, 0.0],
    [0.0, 0.0, 1.0, 0.0],
    [0.0, 0.0, 0.0, 1.0]
],
  "dcmmeta_shape": [104, 104, 60, 453],
  "dcmmeta_slice_dim": 2,
  "dcmmeta_version": 0.6,
  "global": {
    "const": {
      "AcquisitionMatrix": [104, 0, 0, 104],
      "AngioFlag": "N",
      "BitsAllocated": 16,
      "BitsStored": 16,
      "BodyPartExamined": "BRAIN",
      "Columns": 832,
      "EchoNumbers": 1,
      "EchoTime": 37.0,
      "EchoTrainLength": 104,
      "FlipAngle": 52.0,
      "HighBit": 15,
      "ImageOrientationPatient": [0.99980730358374, 0.01573100103786, -0.0117427129299, -0.0179753589, 0.97405726093217, -0.2255866549638],
      "ImagePositionPatient": [-818.17503779537, -836.53238506075, 186.90401797424],
      "ImageType": [
        "ORIGINAL",
        "PRIMARY",
        "M",
        "MB",
        "ND",
        "MOSAIC"
],
      "ImagedNucleus": "1H",
      "ImagingFrequency": 123.259305,
      "InPlanePhaseEncodingDirection": "COL",
      "MRAcquisitionType": "2D",
      "MagneticFieldStrength": 3.0,
      "Manufacturer": "SIEMENS",
      "ManufacturerModelName": "Prisma_fit",
      "Modality": "MR",
      "NumberOfAverages": 1.0,
      "NumberOfPhaseEncodingSteps": 104,
      "PercentPhaseFieldOfView": 100.0,
      "PercentSampling": 100.0,
      "PerformedProcedureStepStartTime": "171206.422000",
      "PhotometricInterpretation": "MONOCHROME2",
      "PixelBandwidth": 2290.0,
      "PixelRepresentation": 0,
      "PixelSpacing": [2.0, 2.0],
      "ProtocolName": "func_task-friends-s04e04a",
      "RepetitionTime": 1490.0,
      "Rows": 832,
      "SAR": 0.03495264205612,
      "SamplesPerPixel": 1,
      "ScanOptions": "FS",
      "ScanningSequence": "EP",
      "SequenceName": "epfid2d1_104",
      "SequenceVariant": [
        "SK",
        "SS"
],
      "SeriesDescription": "func_task-friends-s04e04a",
      "SeriesNumber": 9,
      "SeriesTime": "172828.091000",
      "SliceLocation": -13.232654475579,
      "SliceThickness": 2.0,
      "SmallestImagePixelValue": 0,
      "SoftwareVersions": "syngo MR E11",
      "SpacingBetweenSlices": 1.9999999760067,
      "SpecificCharacterSet": "ISO_IR 100",
      "StudyID": "1",
      "StudyTime": "171206.293000",
      "TransmitCoilName": "Body",
      "VariableFlipAngleFlag": "N",
      "WindowCenterWidthExplanation": "Algo1",
      "dBdt": 0.0},
    "slices": {}
  },
  "time": {
    "samples": {
      "AcquisitionNumber": [1, 2, 3, 4, 5, 6, 7, 8, 9, 10, 11, 12, 13, 14, 15, 16, 17, 18, 19, 20, 21, 22, 23, 24, 25, 26, 27, 28, 29, 30, 31, 32, 33, 34, 35, 36, 37, 38, 39, 40, 41, 42, 43, 44, 45, 46, 47, 48, 49, 50, 51, 52, 53, 54, 55, 56, 57, 58, 59, 60, 61, 62, 63, 64, 65, 66, 67, 68, 69, 70, 71, 72, 73, 74, 75, 76, 77, 78, 79, 80, 81, 82, 83, 84, 85, 86, 87, 88, 89, 90, 91, 92, 93, 94, 95, 96, 97, 98, 99, 100, 101, 102, 103, 104, 105, 106, 107, 108, 109, 110, 111, 112, 113, 114, 115, 116, 117, 118, 119, 120, 121, 122, 123, 124, 125, 126, 127, 128, 129, 130, 131, 132, 133, 134, 135, 136, 137, 138, 139, 140, 141, 142, 143, 144, 145, 146, 147, 148, 149, 150, 151, 152, 153, 154, 155, 156, 157, 158, 159, 160, 161, 162, 163, 164, 165, 166, 167, 168, 169, 170, 171, 172, 173, 174, 175, 176, 177, 178, 179, 180, 181, 182, 183, 184, 185, 186, 187, 188, 189, 190, 191, 192, 193, 194, 195, 196, 197, 198, 199, 200, 201, 202, 203, 204, 205, 206, 207, 208, 209, 210, 211, 212, 213, 214, 215, 216, 217, 218, 219, 220, 221, 222, 223, 224, 225, 226, 227, 228, 229, 230, 231, 232, 233, 234, 235, 236, 237, 238, 239, 240, 241, 242, 243, 244, 245, 246, 247, 248, 249, 250, 251, 252, 253, 254, 255, 256, 257, 258, 259, 260, 261, 262, 263, 264, 265, 266, 267, 268, 269, 270, 271, 272, 273, 274, 275, 276, 277, 278, 279, 280, 281, 282, 283, 284, 285, 286, 287, 288, 289, 290, 291, 292, 293, 294, 295, 296, 297, 298, 299, 300, 301, 302, 303, 304, 305, 306, 307, 308, 309, 310, 311, 312, 313, 314, 315, 316, 317, 318, 319, 320, 321, 322, 323, 324, 325, 326, 327, 328, 329, 330, 331, 332, 333, 334, 335, 336, 337, 338, 339, 340, 341, 342, 343, 344, 345, 346, 347, 348, 349, 350, 351, 352, 353, 354, 355, 356, 357, 358, 359, 360, 361, 362, 363, 364, 365, 366, 367, 368, 369, 370, 371, 372, 373, 374, 375, 376, 377, 378, 379, 380, 381, 382, 383, 384, 385, 386, 387, 388, 389, 390, 391, 392, 393, 394, 395, 396, 397, 398, 399, 400, 401, 402, 403, 404, 405, 406, 407, 408, 409, 410, 411, 412, 413, 414, 415, 416, 417, 418, 419, 420, 421, 422, 423, 424, 425, 426, 427, 428, 429, 430, 431, 432, 433, 434, 435, 436, 437, 438, 439, 440, 441, 442, 443, 444, 445, 446, 447, 448, 449, 450, 451, 452, 453],
      "AcquisitionTime": ["172657.402500", "172658.892500", "172700.382500", "172701.872500", "172703.362500", "172704.852500", "172706.342500", "172707.832500", "172709.322500", "172710.812500", "172712.302500", "172713.792500", "172715.282500", "172716.772500", "172718.262500", "172719.752500", "172721.242500", "172722.732500", "172724.222500", "172725.712500", "172727.202500", "172728.692500", "172730.182500", "172731.672500", "172733.162500", "172734.652500", "172736.142500", "172737.632500", "172739.122500", "172740.612500", "172742.102500", "172743.592500", "172745.082500", "172746.572500", "172748.062500", "172749.552500", "172751.042500", "172752.532500", "172754.022500", "172755.512500", "172757.002500", "172758.492500", "172759.982500", "172801.472500", "172802.962500", "172804.452500", "172805.942500", "172807.432500", "172808.922500", "172810.412500", "172811.902500", "172813.392500", "172814.882500", "172816.372500", "172817.862500", "172819.352500", "172820.842500", "172822.332500", "172823.822500", "172825.312500", "172826.802500", "172828.292500", "172829.782500", "172831.272500", "172832.762500", "172834.252500", "172835.742500", "172837.232500", "172838.722500", "172840.212500", "172841.702500", "172843.192500", "172844.682500", "172846.172500", "172847.662500", "172849.152500", "172850.642500", "172852.132500", "172853.622500", "172855.112500", "172856.602500", "172858.092500", "172859.582500", "172901.072500", "172902.562500", "172904.052500", "172905.542500", "172907.032500", "172908.522500", "172910.012500", "172911.502500", "172912.992500", "172914.482500", "172915.972500", "172917.462500", "172918.952500", "172920.442500", "172921.932500", "172923.422500", "172924.912500", "172926.402500", "172927.892500", "172929.382500", "172930.872500", "172932.362500", "172933.852500", "172935.342500", "172936.832500", "172938.322500", "172939.812500", "172941.302500", "172942.792500", "172944.282500", "172945.772500", "172947.262500", "172948.752500", "172950.242500", "172951.732500", "172953.222500", "172954.712500", "172956.202500", "172957.692500", "172959.182500", "173000.672500", "173002.162500", "173003.652500", "173005.142500", "173006.632500", "173008.122500", "173009.612500", "173011.102500", "173012.592500", "173014.082500", "173015.572500", "173017.062500", "173018.552500", "173020.042500", "173021.532500", "173023.022500", "173024.512500", "173026.002500", "173027.492500", "173028.982500", "173030.472500", "173031.962500", "173033.452500", "173034.942500", "173036.432500", "173037.922500", "173039.412500", "173040.902500", "173042.392500", "173043.882500", "173045.372500", "173046.862500", "173048.352500", "173049.842500", "173051.332500", "173052.822500", "173054.312500", "173055.802500", "173057.292500", "173058.782500", "173100.272500", "173101.762500", "173103.252500", "173104.742500", "173106.232500", "173107.722500", "173109.212500", "173110.702500", "173112.192500", "173113.682500", "173115.172500", "173116.662500", "173118.152500", "173119.642500", "173121.132500", "173122.622500", "173124.112500", "173125.602500", "173127.092500", "173128.582500", "173130.072500", "173131.562500", "173133.052500", "173134.542500", "173136.032500", "173137.522500", "173139.012500", "173140.502500", "173141.992500", "173143.482500", "173144.972500", "173146.462500", "173147.952500", "173149.442500", "173150.932500", "173152.422500", "173153.912500", "173155.402500", "173156.892500", "173158.382500", "173159.872500", "173201.362500", "173202.852500", "173204.342500", "173205.832500", "173207.322500", "173208.812500", "173210.302500", "173211.792500", "173213.282500", "173214.772500", "173216.262500", "173217.752500", "173219.242500", "173220.732500", "173222.222500", "173223.712500", "173225.202500", "173226.692500", "173228.182500", "173229.672500", "173231.162500", "173232.652500", "173234.142500", "173235.632500", "173237.122500", "173238.612500", "173240.102500", "173241.592500", "173243.082500", "173244.572500", "173246.062500", "173247.552500", "173249.042500", "173250.532500", "173252.022500", "173253.512500", "173255.002500", "173256.492500", "173257.982500", "173259.472500", "173300.962500", "173302.452500", "173303.942500", "173305.432500", "173306.922500", "173308.412500", "173309.902500", "173311.392500", "173312.882500", "173314.372500", "173315.862500", "173317.352500", "173318.842500", "173320.332500", "173321.822500", "173323.312500", "173324.802500", "173326.292500", "173327.782500", "173329.272500", "173330.762500", "173332.252500", "173333.742500", "173335.232500", "173336.722500", "173338.212500", "173339.702500", "173341.192500", "173342.682500", "173344.172500", "173345.662500", "173347.152500", "173348.642500", "173350.132500", "173351.622500", "173353.112500", "173354.602500", "173356.092500", "173357.582500", "173359.072500", "173400.562500", "173402.052500", "173403.542500", "173405.032500", "173406.522500", "173408.012500", "173409.502500", "173410.992500", "173412.482500", "173413.972500", "173415.462500", "173416.952500", "173418.442500", "173419.932500", "173421.422500", "173422.912500", "173424.402500", "173425.892500", "173427.382500", "173428.872500", "173430.362500", "173431.852500", "173433.342500", "173434.832500", "173436.322500", "173437.812500", "173439.302500", "173440.792500", "173442.282500", "173443.772500", "173445.262500", "173446.752500", "173448.242500", "173449.732500", "173451.222500", "173452.712500", "173454.202500", "173455.692500", "173457.182500", "173458.672500", "173500.162500", "173501.652500", "173503.142500", "173504.632500", "173506.122500", "173507.612500", "173509.102500", "173510.592500", "173512.082500", "173513.572500", "173515.062500", "173516.552500", "173518.042500", "173519.532500", "173521.022500", "173522.512500", "173524.002500", "173525.492500", "173526.982500", "173528.472500", "173529.962500", "173531.452500", "173532.942500", "173534.432500", "173535.922500", "173537.412500", "173538.902500", "173540.392500", "173541.882500", "173543.372500", "173544.862500", "173546.352500", "173547.842500", "173549.332500", "173550.822500", "173552.312500", "173553.802500", "173555.292500", "173556.782500", "173558.272500", "173559.762500", "173601.252500", "173602.742500", "173604.232500", "173605.722500", "173607.212500", "173608.702500", "173610.192500", "173611.682500", "173613.172500", "173614.662500", "173616.152500", "173617.642500", "173619.132500", "173620.622500", "173622.112500", "173623.602500", "173625.092500", "173626.582500", "173628.072500", "173629.562500", "173631.052500", "173632.542500", "173634.032500", "173635.522500", "173637.012500", "173638.502500", "173639.992500", "173641.482500", "173642.972500", "173644.462500", "173645.952500", "173647.442500", "173648.932500", "173650.422500", "173651.912500", "173653.402500", "173654.892500", "173656.382500", "173657.872500", "173659.362500", "173700.852500", "173702.342500", "173703.832500", "173705.322500", "173706.812500", "173708.302500", "173709.792500", "173711.282500", "173712.772500", "173714.262500", "173715.752500", "173717.242500", "173718.732500", "173720.222500", "173721.712500", "173723.202500", "173724.692500", "173726.182500", "173727.672500", "173729.162500", "173730.652500", "173732.142500", "173733.632500", "173735.122500", "173736.612500", "173738.102500", "173739.592500", "173741.082500", "173742.572500", "173744.062500", "173745.552500", "173747.042500", "173748.532500", "173750.022500", "173751.512500", "173753.002500", "173754.492500", "173755.982500", "173757.472500", "173758.962500", "173800.452500", "173801.942500", "173803.432500", "173804.922500", "173806.412500", "173807.902500", "173809.392500", "173810.882500"],
      "ContentTime": ["172828.094000", "172828.097000", "172828.100000", "172828.103000", "172828.106000", "172828.109000", "172828.112000", "172828.115000", "172828.118000", "172828.121000", "172828.124000", "172828.127000", "172828.130000", "172828.133000", "172828.135000", "172828.138000", "172828.141000", "172828.144000", "172828.147000", "172828.150000", "172828.153000", "172828.160000", "172828.163000", "172828.166000", "172828.169000", "172828.182000", "172828.184000", "172828.187000", "172828.190000", "172828.193000", "172828.196000", "172828.199000", "172828.202000", "172828.205000", "172828.208000", "172828.211000", "172848.061000", "172848.064000", "172848.067000", "172848.070000", "172848.073000", "172848.076000", "172848.079000", "172848.082000", "172848.085000", "172848.087000", "172848.090000", "172848.093000", "172848.096000", "172848.099000", "172848.102000", "172848.108000", "172848.111000", "172848.114000", "172848.117000", "172848.120000", "172908.061000", "172908.064000", "172908.067000", "172908.070000", "172908.073000", "172908.076000", "172908.079000", "172908.082000", "172908.084000", "172908.087000", "172908.090000", "172908.093000", "172908.096000", "172908.099000", "172908.102000", "172908.105000", "172908.108000", "172908.111000", "172908.113000", "172908.116000", "172928.060000", "172928.063000", "172928.066000", "172928.069000", "172928.072000", "172928.075000", "172928.078000", "172928.081000", "172928.083000", "172928.086000", "172928.090000", "172928.093000", "172928.095000", "172928.098000", "172928.101000", "172928.104000", "172928.107000", "172928.110000", "172928.113000", "172928.116000", "173008.061000", "173008.064000", "173008.067000", "173008.070000", "173008.073000", "173008.076000", "173008.079000", "173008.082000", "173008.084000", "173008.087000", "173008.090000", "173008.093000", "173008.096000", "173008.099000", "173008.102000", "173008.105000", "173008.108000", "173008.111000", "173008.114000", "173008.117000", "173008.119000", "173008.122000", "173008.125000", "173008.128000", "173008.131000", "173008.134000", "173008.137000", "173008.140000", "173008.143000", "173008.146000", "173008.149000", "173048.061000", "173048.064000", "173048.067000", "173048.070000", "173048.073000", "173048.076000", "173048.087000", "173048.090000", "173048.093000", "173048.096000", "173048.099000", "173048.101000", "173048.104000", "173048.107000", "173048.110000", "173048.113000", "173048.116000", "173048.119000", "173048.122000", "173048.125000", "173048.128000", "173048.131000", "173048.134000", "173048.136000", "173048.139000", "173048.142000", "173048.145000", "173128.061000", "173128.064000", "173128.067000", "173128.070000", "173128.073000", "173128.076000", "173128.079000", "173128.092000", "173128.095000", "173128.098000", "173128.100000", "173128.104000", "173128.106000", "173128.109000", "173128.112000", "173128.115000", "173128.118000", "173128.121000", "173128.124000", "173128.127000", "173128.130000", "173128.133000", "173128.135000", "173128.138000", "173128.141000", "173128.144000", "173128.147000", "173208.061000", "173208.064000", "173208.067000", "173208.070000", "173208.073000", "173208.076000", "173208.079000", "173208.082000", "173208.085000", "173208.087000", "173208.090000", "173208.093000", "173208.096000", "173208.099000", "173208.102000", "173208.105000", "173208.108000", "173208.111000", "173208.114000", "173208.117000", "173208.120000", "173208.123000", "173208.126000", "173208.129000", "173208.131000", "173208.134000", "173208.137000", "173248.061000", "173248.064000", "173248.067000", "173248.070000", "173248.073000", "173248.076000", "173248.079000", "173248.082000", "173248.085000", "173248.088000", "173248.090000", "173248.093000", "173248.096000", "173248.099000", "173248.102000", "173248.105000", "173248.108000", "173248.111000", "173248.114000", "173248.117000", "173248.120000", "173248.123000", "173248.126000", "173248.129000", "173248.131000", "173248.134000", "173248.137000", "173328.061000", "173328.064000", "173328.067000", "173328.070000", "173328.073000", "173328.076000", "173328.079000", "173328.082000", "173328.085000", "173328.088000", "173328.091000", "173328.094000", "173328.097000", "173328.099000", "173328.102000", "173328.105000", "173328.108000", "173328.111000", "173328.114000", "173328.117000", "173328.120000", "173328.123000", "173328.126000", "173328.129000", "173328.132000", "173328.135000", "173328.137000", "173408.060000", "173408.063000", "173408.066000", "173408.069000", "173408.072000", "173408.075000", "173408.078000", "173408.081000", "173408.084000", "173408.087000", "173408.089000", "173408.092000", "173408.095000", "173408.098000", "173408.101000", "173408.104000", "173408.107000", "173408.110000", "173408.113000", "173408.116000", "173408.119000", "173408.122000", "173408.125000", "173408.129000", "173408.132000", "173408.135000", "173448.061000", "173448.064000", "173448.067000", "173448.070000", "173448.073000", "173448.076000", "173448.079000", "173448.082000", "173448.085000", "173448.088000", "173448.091000", "173448.093000", "173448.096000", "173448.099000", "173448.102000", "173448.105000", "173448.108000", "173448.111000", "173448.114000", "173448.117000", "173448.120000", "173448.123000", "173448.126000", "173448.128000", "173448.131000", "173448.134000", "173448.137000", "173528.061000", "173528.064000", "173528.067000", "173528.070000", "173528.073000", "173528.076000", "173528.079000", "173528.082000", "173528.085000", "173528.088000", "173528.090000", "173528.093000", "173528.096000", "173528.099000", "173528.102000", "173528.105000", "173528.108000", "173528.111000", "173528.114000", "173528.117000", "173528.133000", "173528.136000", "173528.139000", "173528.142000", "173528.145000", "173528.148000", "173528.151000", "173608.061000", "173608.064000", "173608.067000", "173608.070000", "173608.073000", "173608.076000", "173608.079000", "173608.082000", "173608.085000", "173608.088000", "173608.090000", "173608.093000", "173608.096000", "173608.099000", "173608.102000", "173608.105000", "173608.108000", "173608.111000", "173608.114000", "173608.117000", "173608.120000", "173608.123000", "173608.125000", "173608.128000", "173608.131000", "173608.134000", "173608.137000", "173648.061000", "173648.064000", "173648.067000", "173648.070000", "173648.073000", "173648.076000", "173648.079000", "173648.082000", "173648.085000", "173648.087000", "173648.090000", "173648.093000", "173648.096000", "173648.099000", "173648.102000", "173648.105000", "173648.108000", "173648.111000", "173648.114000", "173648.117000", "173648.123000", "173648.126000", "173648.129000", "173648.132000", "173648.135000", "173648.138000", "173648.141000", "173728.061000", "173728.064000", "173728.067000", "173728.070000", "173728.073000", "173728.076000", "173728.079000", "173728.082000", "173728.085000", "173728.088000", "173728.091000", "173728.094000", "173728.097000", "173728.100000", "173728.102000", "173728.105000", "173728.108000", "173728.111000", "173728.114000", "173728.117000", "173728.120000", "173728.123000", "173728.126000", "173728.129000", "173728.131000", "173728.134000", "173728.137000", "173808.061000", "173808.064000", "173808.067000", "173808.070000", "173808.073000", "173808.076000", "173808.079000", "173808.082000", "173808.085000", "173808.088000", "173808.091000", "173808.094000", "173808.097000", "173808.100000", "173808.103000", "173808.106000", "173808.109000", "173808.111000", "173808.114000", "173808.117000", "173808.120000", "173808.123000", "173808.126000", "173808.129000", "173808.132000", "173808.135000", "173812.671000", "173812.674000", "173812.677000", "173812.680000"],
