{
  "AcquisitionMatrixPE": 104,
  "AcquisitionNumber": 1,
  "AcquisitionTime": "11:21:8.545000",
  "BandwidthPerPixelPhaseEncode": 17.17,
  "BaseResolution": 104,
  "BodyPartExamined": "BRAIN",
  "CoilString": "HC1-7;NC1_2",
  "ConsistencyInfo": "N4_VE11C_LATEST_20160120",
  "ConversionSoftware": "dcm2niix",
  "ConversionSoftwareVersion": "v1.0.20190902",
  "DerivedVendorReportedEchoSpacing": 0.000560011,
  "DeviceSerialNumber": "167006",
  "DwellTime": 2.1e-06,
  "EchoTime": 0.037,
  "EchoTrainLength": 104,
  "EffectiveEchoSpacing": 0.000560011,
  "FlipAngle": 52,
  "ImageComments": "Unaliased_MB4_PE3_LB",
  "ImageOrientationPatientDICOM": [0.998864, -0.0476522, 0.000854969, 0.0451834, 0.941103, -0.335087],
  "ImageType": [
    "ORIGINAL",
    "PRIMARY",
    "M",
    "MB",
    "ND",
    "MOSAIC"
],
  "ImagingFrequency": 123.259,
  "InPlanePhaseEncodingDirectionDICOM": "COL",
  "InstitutionAddress": "Chemin_Queen-Mary_4565_Montreal_District_CA_H3W_1W5",
  "InstitutionName": "IUGM",
  "InstitutionalDepartmentName": "Department",
  "MRAcquisitionType": "2D",
  "MagneticFieldStrength": 3,
  "Manufacturer": "Siemens",
  "ManufacturersModelName": "Prisma_fit",
  "Modality": "MR",
  "MultibandAccelerationFactor": 4,
  "PartialFourier": 1,
  "PatientPosition": "HFS",
  "PercentPhaseFOV": 100,
  "PhaseEncodingDirection": "j",
  "PhaseEncodingSteps": 104,
  "PhaseResolution": 1,
  "PixelBandwidth": 2290,
  "ProcedureStepDescription": "video_friends",
  "ProtocolName": "func_task-friends-s03e15a",
  "PulseSequenceDetails": "%CustomerSeq%_cmrr_mbep2d_bold",
  "ReceiveCoilActiveElements": "HC1-7;NC1,2",
  "ReceiveCoilName": "HeadNeck_64",
  "ReconMatrixPE": 104,
  "RepetitionTime": 1.49,
  "SAR": 0.0304203,
  "ScanOptions": "FS",
  "ScanningSequence": "EP",
  "SequenceName": "epfid2d1_104",
  "SequenceVariant": "SK_SS",
  "SeriesDescription": "func_task-friends-s03e15a",
  "SeriesNumber": 13,
  "ShimSetting": [636, -7268, -8830, 604, 12, -219, -70, 0],
  "SliceThickness": 2,
  "SliceTiming": [0, 0.785, 0.1, 0.8825, 0.1975, 0.98, 0.295, 1.0775, 0.3925, 1.1775, 0.49, 1.275, 0.59, 1.3725, 0.6875, 0, 0.785, 0.1, 0.8825, 0.1975, 0.98, 0.295, 1.0775, 0.3925, 1.1775, 0.49, 1.275, 0.59, 1.3725, 0.6875, 0, 0.785, 0.1, 0.8825, 0.1975, 0.98, 0.295, 1.0775, 0.3925, 1.1775, 0.49, 1.275, 0.59, 1.3725, 0.6875, 0, 0.785, 0.1, 0.8825, 0.1975, 0.98, 0.295, 1.0775, 0.3925, 1.1775, 0.49, 1.275, 0.59, 1.3725, 0.6875],
  "SoftwareVersions": "syngo_MR_E11",
  "SpacingBetweenSlices": 2,
  "StationName": "MRC35049",
  "TaskName": "s03e15a",
  "TotalReadoutTime": 0.0576811,
  "TxRefAmp": 218.806,
  "WipMemBlock": "288857e0-8808-49ec-87cf-8ab29e85ac33||Sequence: R016 ve11c/master r/e634e98; Dec 19 2017 11:00:25 by eja",
  "dcmmeta_affine": [
    [-1.9977272748947144, 0.09036686271429062, -0.030326036736369133, 97.9367904663086],
    [0.09530432522296906, 1.8822062015533447, -0.6694902181625366, -78.76932525634766],
    [0.001709937583655119, 0.6701744794845581, 1.884373426437378, -65.31027221679688],
    [0.0, 0.0, 0.0, 1.0]
],
  "dcmmeta_reorient_transform": [
    [0.0, -1.0, 0.0, 103.0],
    [1.0, 0.0, 0.0, 0.0],
    [0.0, 0.0, 1.0, 0.0],
    [0.0, 0.0, 0.0, 1.0]
],
  "dcmmeta_shape": [104, 104, 60, 458],
  "dcmmeta_slice_dim": 2,
  "dcmmeta_version": 0.6,
  "global": {
    "const": {
      "AcquisitionMatrix": [104, 0, 0, 104],
      "AngioFlag": "N",
      "BitsAllocated": 16,
      "BitsStored": 16,
      "BodyPartExamined": "BRAIN",
      "Columns": 832,
      "EchoNumbers": 1,
      "EchoTime": 37.0,
      "EchoTrainLength": 104,
      "FlipAngle": 52.0,
      "HighBit": 15,
      "ImageOrientationPatient": [0.99886362452959, -0.0476521628052, 0.00085496877279, 0.04518343128101, 0.94110307198472, -0.3350872504865],
      "ImagePositionPatient": [-867.31083122627, -765.53017064328, 247.03879889787],
      "ImageType": [
        "ORIGINAL",
        "PRIMARY",
        "M",
        "MB",
        "ND",
        "MOSAIC"
],
      "ImagedNucleus": "1H",
      "ImagingFrequency": 123.259237,
      "InPlanePhaseEncodingDirection": "COL",
      "MRAcquisitionType": "2D",
      "MagneticFieldStrength": 3.0,
      "Manufacturer": "SIEMENS",
      "ManufacturerModelName": "Prisma_fit",
      "Modality": "MR",
      "NumberOfAverages": 1.0,
      "NumberOfPhaseEncodingSteps": 104,
      "PercentPhaseFieldOfView": 100.0,
      "PercentSampling": 100.0,
      "PerformedProcedureStepStartTime": "103726.271000",
      "PhotometricInterpretation": "MONOCHROME2",
      "PixelBandwidth": 2290.0,
      "PixelRepresentation": 0,
      "PixelSpacing": [2.0, 2.0],
      "ProtocolName": "func_task-friends-s03e15a",
      "RepetitionTime": 1490.0,
      "Rows": 832,
      "SAR": 0.03042026068705,
      "SamplesPerPixel": 1,
      "ScanOptions": "FS",
      "ScanningSequence": "EP",
      "SequenceName": "epfid2d1_104",
      "SequenceVariant": [
        "SK",
        "SS"
],
      "SeriesDescription": "func_task-friends-s03e15a",
      "SeriesNumber": 13,
      "SeriesTime": "112237.853000",
      "SliceLocation": -36.651846498218,
      "SliceThickness": 2.0,
      "SmallestImagePixelValue": 0,
      "SoftwareVersions": "syngo MR E11",
      "SpacingBetweenSlices": 2.000000028346,
      "SpecificCharacterSet": "ISO_IR 100",
      "StudyID": "1",
      "StudyTime": "103726.180000",
      "TransmitCoilName": "Body",
      "VariableFlipAngleFlag": "N",
      "WindowCenterWidthExplanation": "Algo1",
      "dBdt": 0.0},
    "slices": {}
  },
  "time": {
    "samples": {
      "AcquisitionNumber": [1, 2, 3, 4, 5, 6, 7, 8, 9, 10, 11, 12, 13, 14, 15, 16, 17, 18, 19, 20, 21, 22, 23, 24, 25, 26, 27, 28, 29, 30, 31, 32, 33, 34, 35, 36, 37, 38, 39, 40, 41, 42, 43, 44, 45, 46, 47, 48, 49, 50, 51, 52, 53, 54, 55, 56, 57, 58, 59, 60, 61, 62, 63, 64, 65, 66, 67, 68, 69, 70, 71, 72, 73, 74, 75, 76, 77, 78, 79, 80, 81, 82, 83, 84, 85, 86, 87, 88, 89, 90, 91, 92, 93, 94, 95, 96, 97, 98, 99, 100, 101, 102, 103, 104, 105, 106, 107, 108, 109, 110, 111, 112, 113, 114, 115, 116, 117, 118, 119, 120, 121, 122, 123, 124, 125, 126, 127, 128, 129, 130, 131, 132, 133, 134, 135, 136, 137, 138, 139, 140, 141, 142, 143, 144, 145, 146, 147, 148, 149, 150, 151, 152, 153, 154, 155, 156, 157, 158, 159, 160, 161, 162, 163, 164, 165, 166, 167, 168, 169, 170, 171, 172, 173, 174, 175, 176, 177, 178, 179, 180, 181, 182, 183, 184, 185, 186, 187, 188, 189, 190, 191, 192, 193, 194, 195, 196, 197, 198, 199, 200, 201, 202, 203, 204, 205, 206, 207, 208, 209, 210, 211, 212, 213, 214, 215, 216, 217, 218, 219, 220, 221, 222, 223, 224, 225, 226, 227, 228, 229, 230, 231, 232, 233, 234, 235, 236, 237, 238, 239, 240, 241, 242, 243, 244, 245, 246, 247, 248, 249, 250, 251, 252, 253, 254, 255, 256, 257, 258, 259, 260, 261, 262, 263, 264, 265, 266, 267, 268, 269, 270, 271, 272, 273, 274, 275, 276, 277, 278, 279, 280, 281, 282, 283, 284, 285, 286, 287, 288, 289, 290, 291, 292, 293, 294, 295, 296, 297, 298, 299, 300, 301, 302, 303, 304, 305, 306, 307, 308, 309, 310, 311, 312, 313, 314, 315, 316, 317, 318, 319, 320, 321, 322, 323, 324, 325, 326, 327, 328, 329, 330, 331, 332, 333, 334, 335, 336, 337, 338, 339, 340, 341, 342, 343, 344, 345, 346, 347, 348, 349, 350, 351, 352, 353, 354, 355, 356, 357, 358, 359, 360, 361, 362, 363, 364, 365, 366, 367, 368, 369, 370, 371, 372, 373, 374, 375, 376, 377, 378, 379, 380, 381, 382, 383, 384, 385, 386, 387, 388, 389, 390, 391, 392, 393, 394, 395, 396, 397, 398, 399, 400, 401, 402, 403, 404, 405, 406, 407, 408, 409, 410, 411, 412, 413, 414, 415, 416, 417, 418, 419, 420, 421, 422, 423, 424, 425, 426, 427, 428, 429, 430, 431, 432, 433, 434, 435, 436, 437, 438, 439, 440, 441, 442, 443, 444, 445, 446, 447, 448, 449, 450, 451, 452, 453, 454, 455, 456, 457, 458],
      "AcquisitionTime": ["112108.545000", "112110.035000", "112111.525000", "112113.015000", "112114.505000", "112115.995000", "112117.485000", "112118.975000", "112120.465000", "112121.955000", "112123.445000", "112124.935000", "112126.425000", "112127.915000", "112129.405000", "112130.895000", "112132.385000", "112133.875000", "112135.365000", "112136.855000", "112138.345000", "112139.835000", "112141.325000", "112142.815000", "112144.305000", "112145.795000", "112147.285000", "112148.775000", "112150.265000", "112151.755000", "112153.245000", "112154.735000", "112156.225000", "112157.715000", "112159.205000", "112200.695000", "112202.185000", "112203.675000", "112205.165000", "112206.655000", "112208.145000", "112209.635000", "112211.125000", "112212.615000", "112214.105000", "112215.595000", "112217.085000", "112218.575000", "112220.065000", "112221.555000", "112223.045000", "112224.535000", "112226.025000", "112227.515000", "112229.005000", "112230.495000", "112231.985000", "112233.475000", "112234.965000", "112236.455000", "112237.945000", "112239.435000", "112240.925000", "112242.415000", "112243.905000", "112245.395000", "112246.885000", "112248.375000", "112249.865000", "112251.355000", "112252.845000", "112254.335000", "112255.825000", "112257.315000", "112258.805000", "112300.295000", "112301.785000", "112303.275000", "112304.765000", "112306.255000", "112307.745000", "112309.235000", "112310.725000", "112312.215000", "112313.705000", "112315.195000", "112316.685000", "112318.175000", "112319.665000", "112321.155000", "112322.645000", "112324.135000", "112325.625000", "112327.115000", "112328.605000", "112330.095000", "112331.585000", "112333.075000", "112334.565000", "112336.055000", "112337.545000", "112339.035000", "112340.525000", "112342.015000", "112343.505000", "112344.995000", "112346.485000", "112347.975000", "112349.465000", "112350.955000", "112352.445000", "112353.935000", "112355.425000", "112356.915000", "112358.405000", "112359.895000", "112401.385000", "112402.875000", "112404.365000", "112405.855000", "112407.345000", "112408.835000", "112410.325000", "112411.815000", "112413.305000", "112414.795000", "112416.285000", "112417.775000", "112419.265000", "112420.755000", "112422.245000", "112423.735000", "112425.225000", "112426.715000", "112428.205000", "112429.695000", "112431.185000", "112432.675000", "112434.165000", "112435.655000", "112437.145000", "112438.635000", "112440.125000", "112441.615000", "112443.105000", "112444.595000", "112446.085000", "112447.575000", "112449.065000", "112450.555000", "112452.045000", "112453.535000", "112455.025000", "112456.515000", "112458.005000", "112459.495000", "112500.985000", "112502.475000", "112503.965000", "112505.455000", "112506.945000", "112508.435000", "112509.925000", "112511.415000", "112512.905000", "112514.395000", "112515.885000", "112517.375000", "112518.865000", "112520.355000", "112521.845000", "112523.335000", "112524.825000", "112526.315000", "112527.805000", "112529.295000", "112530.785000", "112532.275000", "112533.765000", "112535.255000", "112536.745000", "112538.235000", "112539.725000", "112541.215000", "112542.705000", "112544.195000", "112545.685000", "112547.175000", "112548.665000", "112550.155000", "112551.645000", "112553.135000", "112554.625000", "112556.115000", "112557.605000", "112559.095000", "112600.585000", "112602.075000", "112603.565000", "112605.055000", "112606.545000", "112608.035000", "112609.525000", "112611.015000", "112612.505000", "112613.995000", "112615.485000", "112616.975000", "112618.465000", "112619.955000", "112621.445000", "112622.935000", "112624.425000", "112625.915000", "112627.405000", "112628.895000", "112630.385000", "112631.875000", "112633.365000", "112634.855000", "112636.345000", "112637.835000", "112639.325000", "112640.815000", "112642.305000", "112643.795000", "112645.285000", "112646.775000", "112648.265000", "112649.755000", "112651.245000", "112652.735000", "112654.225000", "112655.715000", "112657.205000", "112658.695000", "112700.185000", "112701.675000", "112703.165000", "112704.655000", "112706.145000", "112707.635000", "112709.125000", "112710.615000", "112712.105000", "112713.595000", "112715.085000", "112716.575000", "112718.065000", "112719.555000", "112721.045000", "112722.535000", "112724.025000", "112725.515000", "112727.005000", "112728.495000", "112729.985000", "112731.475000", "112732.965000", "112734.455000", "112735.945000", "112737.435000", "112738.925000", "112740.415000", "112741.905000", "112743.395000", "112744.885000", "112746.375000", "112747.865000", "112749.355000", "112750.845000", "112752.335000", "112753.825000", "112755.315000", "112756.805000", "112758.295000", "112759.785000", "112801.275000", "112802.765000", "112804.255000", "112805.745000", "112807.235000", "112808.725000", "112810.215000", "112811.705000", "112813.195000", "112814.685000", "112816.175000", "112817.665000", "112819.155000", "112820.645000", "112822.135000", "112823.625000", "112825.115000", "112826.605000", "112828.095000", "112829.585000", "112831.075000", "112832.565000", "112834.055000", "112835.545000", "112837.035000", "112838.525000", "112840.015000", "112841.505000", "112842.995000", "112844.485000", "112845.975000", "112847.465000", "112848.955000", "112850.445000", "112851.935000", "112853.425000", "112854.915000", "112856.405000", "112857.895000", "112859.385000", "112900.875000", "112902.365000", "112903.855000", "112905.345000", "112906.835000", "112908.325000", "112909.815000", "112911.305000", "112912.795000", "112914.285000", "112915.775000", "112917.265000", "112918.755000", "112920.245000", "112921.735000", "112923.225000", "112924.715000", "112926.205000", "112927.695000", "112929.185000", "112930.675000", "112932.165000", "112933.655000", "112935.145000", "112936.635000", "112938.125000", "112939.615000", "112941.105000", "112942.595000", "112944.085000", "112945.575000", "112947.065000", "112948.555000", "112950.045000", "112951.535000", "112953.025000", "112954.515000", "112956.005000", "112957.495000", "112958.985000", "113000.475000", "113001.965000", "113003.455000", "113004.945000", "113006.435000", "113007.925000", "113009.415000", "113010.905000", "113012.395000", "113013.885000", "113015.375000", "113016.865000", "113018.355000", "113019.845000", "113021.335000", "113022.825000", "113024.315000", "113025.805000", "113027.295000", "113028.785000", "113030.275000", "113031.765000", "113033.255000", "113034.745000", "113036.235000", "113037.725000", "113039.215000", "113040.705000", "113042.195000", "113043.685000", "113045.175000", "113046.665000", "113048.155000", "113049.645000", "113051.135000", "113052.625000", "113054.115000", "113055.605000", "113057.095000", "113058.585000", "113100.075000", "113101.565000", "113103.055000", "113104.545000", "113106.035000", "113107.525000", "113109.015000", "113110.505000", "113111.995000", "113113.485000", "113114.975000", "113116.465000", "113117.955000", "113119.445000", "113120.935000", "113122.425000", "113123.915000", "113125.405000", "113126.895000", "113128.385000", "113129.875000", "113131.365000", "113132.855000", "113134.345000", "113135.835000", "113137.325000", "113138.815000", "113140.305000", "113141.795000", "113143.285000", "113144.775000", "113146.265000", "113147.755000", "113149.245000", "113150.735000", "113152.225000", "113153.715000", "113155.205000", "113156.695000", "113158.185000", "113159.675000", "113201.165000", "113202.655000", "113204.145000", "113205.635000", "113207.125000", "113208.615000", "113210.105000", "113211.595000", "113213.085000", "113214.575000", "113216.065000", "113217.555000", "113219.045000", "113220.535000", "113222.025000", "113223.515000", "113225.005000", "113226.495000", "113227.985000", "113229.475000"],
      "ContentTime": ["112237.855000", "112237.859000", "112237.862000", "112237.865000", "112237.872000", "112237.875000", "112237.878000", "112237.881000", "112237.884000", "112237.887000", "112237.890000", "112237.893000", "112237.896000", "112237.899000", "112237.902000", "112237.905000", "112237.908000", "112237.911000", "112237.919000", "112237.922000", "112237.925000", "112237.928000", "112237.931000", "112237.934000", "112237.937000", "112237.954000", "112237.957000", "112237.960000", "112237.963000", "112237.966000", "112237.969000", "112237.972000", "112237.976000", "112237.979000", "112237.982000", "112237.984000", "112257.826000", "112257.829000", "112257.832000", "112257.835000", "112257.838000", "112257.841000", "112257.844000", "112257.847000", "112257.850000", "112257.853000", "112257.856000", "112257.859000", "112257.862000", "112257.865000", "112257.868000", "112257.872000", "112257.875000", "112257.878000", "112257.881000", "112257.884000", "112317.827000", "112317.830000", "112317.834000", "112317.837000", "112317.840000", "112317.843000", "112317.846000", "112317.849000", "112317.852000", "112317.855000", "112317.858000", "112317.861000", "112317.864000", "112317.867000", "112317.870000", "112317.873000", "112317.876000", "112317.879000", "112317.882000", "112317.885000", "112337.826000", "112337.829000", "112337.832000", "112337.835000", "112337.838000", "112337.841000", "112337.844000", "112337.847000", "112337.850000", "112337.853000", "112337.856000", "112337.860000", "112337.863000", "112337.866000", "112337.870000", "112337.873000", "112337.876000", "112337.880000", "112337.883000", "112337.886000", "112417.826000", "112417.829000", "112417.832000", "112417.835000", "112417.838000", "112417.841000", "112417.845000", "112417.848000", "112417.851000", "112417.854000", "112417.857000", "112417.860000", "112417.863000", "112417.866000", "112417.869000", "112417.873000", "112417.875000", "112417.878000", "112417.881000", "112417.890000", "112417.893000", "112417.896000", "112417.899000", "112417.902000", "112417.905000", "112417.908000", "112417.911000", "112417.915000", "112417.917000", "112417.920000", "112457.826000", "112457.829000", "112457.832000", "112457.836000", "112457.839000", "112457.842000", "112457.845000", "112457.848000", "112457.851000", "112457.854000", "112457.857000", "112457.860000", "112457.863000", "112457.866000", "112457.869000", "112457.872000", "112457.875000", "112457.878000", "112457.881000", "112457.884000", "112457.887000", "112457.890000", "112457.893000", "112457.896000", "112457.899000", "112457.902000", "112457.905000", "112537.827000", "112537.830000", "112537.833000", "112537.836000", "112537.839000", "112537.842000", "112537.845000", "112537.848000", "112537.851000", "112537.854000", "112537.858000", "112537.861000", "112537.864000", "112537.867000", "112537.870000", "112537.873000", "112537.876000", "112537.879000", "112537.882000", "112537.885000", "112537.888000", "112537.891000", "112537.894000", "112537.897000", "112537.900000", "112537.903000", "112537.906000", "112557.826000", "112557.836000", "112557.848000", "112557.851000", "112557.854000", "112557.857000", "112557.860000", "112557.863000", "112557.867000", "112557.871000", "112557.874000", "112557.877000", "112557.880000", "112637.826000", "112637.829000", "112637.841000", "112637.844000", "112637.847000", "112637.850000", "112637.853000", "112637.856000", "112637.859000", "112637.862000", "112637.865000", "112637.868000", "112637.871000", "112637.874000", "112637.877000", "112637.880000", "112637.883000", "112637.886000", "112637.890000", "112637.893000", "112637.896000", "112637.899000", "112637.902000", "112637.905000", "112637.908000", "112637.911000", "112637.919000", "112717.826000", "112717.829000", "112717.832000", "112717.835000", "112717.838000", "112717.842000", "112717.845000", "112717.848000", "112717.851000", "112717.854000", "112717.857000", "112717.860000", "112717.863000", "112717.866000", "112717.869000", "112717.872000", "112717.875000", "112717.879000", "112717.882000", "112717.885000", "112717.888000", "112717.891000", "112717.895000", "112717.898000", "112717.901000", "112717.904000", "112717.907000", "112757.827000", "112757.830000", "112757.833000", "112757.836000", "112757.840000", "112757.843000", "112757.846000", "112757.849000", "112757.852000", "112757.855000", "112757.858000", "112757.861000", "112757.864000", "112757.867000", "112757.870000", "112757.873000", "112757.876000", "112757.879000", "112757.882000", "112757.885000", "112757.888000", "112757.891000", "112757.894000", "112757.907000", "112757.910000", "112757.913000", "112757.916000", "112837.826000", "112837.829000", "112837.832000", "112837.835000", "112837.838000", "112837.841000", "112837.844000", "112837.848000", "112837.851000", "112837.854000", "112837.857000", "112837.860000", "112837.863000", "112837.866000", "112837.869000", "112837.872000", "112837.875000", "112837.878000", "112837.881000", "112837.884000", "112837.887000", "112837.890000", "112837.893000", "112837.896000", "112837.899000", "112837.902000", "112837.905000", "112917.826000", "112917.829000", "112917.832000", "112917.836000", "112917.839000", "112917.842000", "112917.845000", "112917.848000", "112917.851000", "112917.854000", "112917.857000", "112917.860000", "112917.863000", "112917.866000", "112917.876000", "112917.879000", "112917.882000", "112917.885000", "112917.888000", "112917.891000", "112917.894000", "112917.897000", "112917.900000", "112917.903000", "112917.906000", "112917.909000", "112917.913000", "112957.826000", "112957.829000", "112957.832000", "112957.836000", "112957.839000", "112957.842000", "112957.845000", "112957.848000", "112957.851000", "112957.854000", "112957.857000", "112957.860000", "112957.863000", "112957.866000", "112957.869000", "112957.872000", "112957.875000", "112957.878000", "112957.882000", "112957.885000", "112957.888000", "112957.892000", "112957.895000", "112957.898000", "112957.915000", "112957.918000", "113037.826000", "113037.829000", "113037.832000", "113037.836000", "113037.839000", "113037.842000", "113037.845000", "113037.848000", "113037.851000", "113037.854000", "113037.857000", "113037.860000", "113037.863000", "113037.866000", "113037.869000", "113037.872000", "113037.875000", "113037.878000", "113037.881000", "113037.884000", "113037.887000", "113037.890000", "113037.893000", "113037.896000", "113037.900000", "113037.903000", "113037.906000", "113117.826000", "113117.829000", "113117.833000", "113117.836000", "113117.839000", "113117.842000", "113117.845000", "113117.848000", "113117.851000", "113117.854000", "113117.857000", "113117.860000", "113117.863000", "113117.866000", "113117.870000", "113117.873000", "113117.885000", "113117.888000", "113117.891000", "113117.894000", "113117.897000", "113117.900000", "113117.903000", "113117.906000", "113117.909000", "113117.912000", "113117.915000", "113157.826000", "113157.830000", "113157.833000", "113157.836000", "113157.839000", "113157.842000", "113157.845000", "113157.848000", "113157.851000", "113157.854000", "113157.857000", "113157.860000", "113157.863000", "113157.866000", "113157.869000", "113157.872000", "113157.875000", "113157.879000", "113157.882000", "113157.885000", "113157.888000", "113157.891000", "113157.894000", "113157.897000", "113157.900000", "113157.903000", "113157.906000", "113231.404000", "113231.408000", "113231.411000", "113231.414000", "113231.417000", "113231.420000", "113231.423000", "113231.426000", "113231.429000", "113231.432000", "113231.435000", "113231.438000", "113231.441000", "113231.445000", "113231.448000", "113231.450000", "113231.454000", "113231.457000", "113231.460000", "113231.463000", "113231.466000", "113231.469000", "113231.472000"],
