{
  "AcquisitionMatrixPE": 104,
  "AcquisitionNumber": 1,
  "AcquisitionTime": "10:57:25.192500",
  "BandwidthPerPixelPhaseEncode": 17.17,
  "BaseResolution": 104,
  "BodyPartExamined": "BRAIN",
  "CoilString": "HC1-7;NC1_2",
  "ConsistencyInfo": "N4_VE11C_LATEST_20160120",
  "ConversionSoftware": "dcm2niix",
  "ConversionSoftwareVersion": "v1.0.20190902",
  "DerivedVendorReportedEchoSpacing": 0.000560011,
  "DeviceSerialNumber": "167006",
  "DwellTime": 2.1e-06,
  "EchoTime": 0.037,
  "EchoTrainLength": 104,
  "EffectiveEchoSpacing": 0.000560011,
  "FlipAngle": 52,
  "ImageComments": "Unaliased_MB4_PE3_LB",
  "ImageOrientationPatientDICOM": [0.998864, -0.0476522, 0.000854969, 0.0451834, 0.941103, -0.335087],
  "ImageType": [
    "ORIGINAL",
    "PRIMARY",
    "M",
    "MB",
    "ND",
    "MOSAIC"
],
  "ImagingFrequency": 123.259,
  "InPlanePhaseEncodingDirectionDICOM": "COL",
  "InstitutionAddress": "Chemin_Queen-Mary_4565_Montreal_District_CA_H3W_1W5",
  "InstitutionName": "IUGM",
  "InstitutionalDepartmentName": "Department",
  "MRAcquisitionType": "2D",
  "MagneticFieldStrength": 3,
  "Manufacturer": "Siemens",
  "ManufacturersModelName": "Prisma_fit",
  "Modality": "MR",
  "MultibandAccelerationFactor": 4,
  "PartialFourier": 1,
  "PatientPosition": "HFS",
  "PercentPhaseFOV": 100,
  "PhaseEncodingDirection": "j",
  "PhaseEncodingSteps": 104,
  "PhaseResolution": 1,
  "PixelBandwidth": 2290,
  "ProcedureStepDescription": "video_friends",
  "ProtocolName": "func_task-friends-s03e14a",
  "PulseSequenceDetails": "%CustomerSeq%_cmrr_mbep2d_bold",
  "ReceiveCoilActiveElements": "HC1-7;NC1,2",
  "ReceiveCoilName": "HeadNeck_64",
  "ReconMatrixPE": 104,
  "RepetitionTime": 1.49,
  "SAR": 0.0304203,
  "ScanOptions": "FS",
  "ScanningSequence": "EP",
  "SequenceName": "epfid2d1_104",
  "SequenceVariant": "SK_SS",
  "SeriesDescription": "func_task-friends-s03e14a",
  "SeriesNumber": 9,
  "ShimSetting": [636, -7268, -8830, 604, 12, -219, -70, 0],
  "SliceThickness": 2,
  "SliceTiming": [0, 0.785, 0.0975, 0.8825, 0.1975, 0.98, 0.295, 1.0775, 0.3925, 1.1775, 0.49, 1.275, 0.5875, 1.3725, 0.6875, 0, 0.785, 0.0975, 0.8825, 0.1975, 0.98, 0.295, 1.0775, 0.3925, 1.1775, 0.49, 1.275, 0.5875, 1.3725, 0.6875, 0, 0.785, 0.0975, 0.8825, 0.1975, 0.98, 0.295, 1.0775, 0.3925, 1.1775, 0.49, 1.275, 0.5875, 1.3725, 0.6875, 0, 0.785, 0.0975, 0.8825, 0.1975, 0.98, 0.295, 1.0775, 0.3925, 1.1775, 0.49, 1.275, 0.5875, 1.3725, 0.6875],
  "SoftwareVersions": "syngo_MR_E11",
  "SpacingBetweenSlices": 2,
  "StationName": "MRC35049",
  "TaskName": "s03e14a",
  "TotalReadoutTime": 0.0576811,
  "TxRefAmp": 218.806,
  "WipMemBlock": "7a7a2e52-85c4-4440-b721-3661248e0291||Sequence: R016 ve11c/master r/e634e98; Dec 19 2017 11:00:25 by eja",
  "dcmmeta_affine": [
    [-1.9977272748947144, 0.09036686271429062, -0.030326036736369133, 97.9367904663086],
    [0.09530432522296906, 1.8822062015533447, -0.6694902181625366, -78.76932525634766],
    [0.001709937583655119, 0.6701744794845581, 1.884373426437378, -65.31027221679688],
    [0.0, 0.0, 0.0, 1.0]
],
  "dcmmeta_reorient_transform": [
    [0.0, -1.0, 0.0, 103.0],
    [1.0, 0.0, 0.0, 0.0],
    [0.0, 0.0, 1.0, 0.0],
    [0.0, 0.0, 0.0, 1.0]
],
  "dcmmeta_shape": [104, 104, 60, 458],
  "dcmmeta_slice_dim": 2,
  "dcmmeta_version": 0.6,
  "global": {
    "const": {
      "AcquisitionMatrix": [104, 0, 0, 104],
      "AngioFlag": "N",
      "BitsAllocated": 16,
      "BitsStored": 16,
      "BodyPartExamined": "BRAIN",
      "Columns": 832,
      "EchoNumbers": 1,
      "EchoTime": 37.0,
      "EchoTrainLength": 104,
      "FlipAngle": 52.0,
      "HighBit": 15,
      "ImageOrientationPatient": [0.99886362452959, -0.0476521628052, 0.00085496877279, 0.04518343128101, 0.94110307198472, -0.3350872504865],
      "ImagePositionPatient": [-867.31083122627, -765.53017064328, 247.03879889787],
      "ImageType": [
        "ORIGINAL",
        "PRIMARY",
        "M",
        "MB",
        "ND",
        "MOSAIC"
],
      "ImagedNucleus": "1H",
      "ImagingFrequency": 123.259221,
      "InPlanePhaseEncodingDirection": "COL",
      "MRAcquisitionType": "2D",
      "MagneticFieldStrength": 3.0,
      "Manufacturer": "SIEMENS",
      "ManufacturerModelName": "Prisma_fit",
      "Modality": "MR",
      "NumberOfAverages": 1.0,
      "NumberOfPhaseEncodingSteps": 104,
      "PercentPhaseFieldOfView": 100.0,
      "PercentSampling": 100.0,
      "PerformedProcedureStepStartTime": "103726.271000",
      "PhotometricInterpretation": "MONOCHROME2",
      "PixelBandwidth": 2290.0,
      "PixelRepresentation": 0,
      "PixelSpacing": [2.0, 2.0],
      "ProtocolName": "func_task-friends-s03e14a",
      "RepetitionTime": 1490.0,
      "Rows": 832,
      "SAR": 0.03042026068705,
      "SamplesPerPixel": 1,
      "ScanOptions": "FS",
      "ScanningSequence": "EP",
      "SequenceName": "epfid2d1_104",
      "SequenceVariant": [
        "SK",
        "SS"
],
      "SeriesDescription": "func_task-friends-s03e14a",
      "SeriesNumber": 9,
      "SeriesTime": "105849.309000",
      "SliceLocation": -36.651846498218,
      "SliceThickness": 2.0,
      "SmallestImagePixelValue": 0,
      "SoftwareVersions": "syngo MR E11",
      "SpacingBetweenSlices": 2.000000028346,
      "SpecificCharacterSet": "ISO_IR 100",
      "StudyID": "1",
      "StudyTime": "103726.180000",
      "TransmitCoilName": "Body",
      "VariableFlipAngleFlag": "N",
      "WindowCenterWidthExplanation": "Algo1",
      "dBdt": 0.0},
    "slices": {}
  },
  "time": {
    "samples": {
      "AcquisitionNumber": [1, 2, 3, 4, 5, 6, 7, 8, 9, 10, 11, 12, 13, 14, 15, 16, 17, 18, 19, 20, 21, 22, 23, 24, 25, 26, 27, 28, 29, 30, 31, 32, 33, 34, 35, 36, 37, 38, 39, 40, 41, 42, 43, 44, 45, 46, 47, 48, 49, 50, 51, 52, 53, 54, 55, 56, 57, 58, 59, 60, 61, 62, 63, 64, 65, 66, 67, 68, 69, 70, 71, 72, 73, 74, 75, 76, 77, 78, 79, 80, 81, 82, 83, 84, 85, 86, 87, 88, 89, 90, 91, 92, 93, 94, 95, 96, 97, 98, 99, 100, 101, 102, 103, 104, 105, 106, 107, 108, 109, 110, 111, 112, 113, 114, 115, 116, 117, 118, 119, 120, 121, 122, 123, 124, 125, 126, 127, 128, 129, 130, 131, 132, 133, 134, 135, 136, 137, 138, 139, 140, 141, 142, 143, 144, 145, 146, 147, 148, 149, 150, 151, 152, 153, 154, 155, 156, 157, 158, 159, 160, 161, 162, 163, 164, 165, 166, 167, 168, 169, 170, 171, 172, 173, 174, 175, 176, 177, 178, 179, 180, 181, 182, 183, 184, 185, 186, 187, 188, 189, 190, 191, 192, 193, 194, 195, 196, 197, 198, 199, 200, 201, 202, 203, 204, 205, 206, 207, 208, 209, 210, 211, 212, 213, 214, 215, 216, 217, 218, 219, 220, 221, 222, 223, 224, 225, 226, 227, 228, 229, 230, 231, 232, 233, 234, 235, 236, 237, 238, 239, 240, 241, 242, 243, 244, 245, 246, 247, 248, 249, 250, 251, 252, 253, 254, 255, 256, 257, 258, 259, 260, 261, 262, 263, 264, 265, 266, 267, 268, 269, 270, 271, 272, 273, 274, 275, 276, 277, 278, 279, 280, 281, 282, 283, 284, 285, 286, 287, 288, 289, 290, 291, 292, 293, 294, 295, 296, 297, 298, 299, 300, 301, 302, 303, 304, 305, 306, 307, 308, 309, 310, 311, 312, 313, 314, 315, 316, 317, 318, 319, 320, 321, 322, 323, 324, 325, 326, 327, 328, 329, 330, 331, 332, 333, 334, 335, 336, 337, 338, 339, 340, 341, 342, 343, 344, 345, 346, 347, 348, 349, 350, 351, 352, 353, 354, 355, 356, 357, 358, 359, 360, 361, 362, 363, 364, 365, 366, 367, 368, 369, 370, 371, 372, 373, 374, 375, 376, 377, 378, 379, 380, 381, 382, 383, 384, 385, 386, 387, 388, 389, 390, 391, 392, 393, 394, 395, 396, 397, 398, 399, 400, 401, 402, 403, 404, 405, 406, 407, 408, 409, 410, 411, 412, 413, 414, 415, 416, 417, 418, 419, 420, 421, 422, 423, 424, 425, 426, 427, 428, 429, 430, 431, 432, 433, 434, 435, 436, 437, 438, 439, 440, 441, 442, 443, 444, 445, 446, 447, 448, 449, 450, 451, 452, 453, 454, 455, 456, 457, 458],
      "AcquisitionTime": ["105725.192500", "105726.682500", "105728.172500", "105729.662500", "105731.152500", "105732.642500", "105734.132500", "105735.622500", "105737.112500", "105738.602500", "105740.092500", "105741.582500", "105743.072500", "105744.562500", "105746.052500", "105747.542500", "105749.032500", "105750.522500", "105752.012500", "105753.502500", "105754.992500", "105756.482500", "105757.972500", "105759.462500", "105800.952500", "105802.442500", "105803.932500", "105805.422500", "105806.912500", "105808.402500", "105809.892500", "105811.382500", "105812.872500", "105814.362500", "105815.852500", "105817.342500", "105818.832500", "105820.322500", "105821.812500", "105823.302500", "105824.792500", "105826.282500", "105827.772500", "105829.262500", "105830.752500", "105832.242500", "105833.732500", "105835.222500", "105836.712500", "105838.202500", "105839.692500", "105841.182500", "105842.672500", "105844.162500", "105845.652500", "105847.142500", "105848.632500", "105850.122500", "105851.612500", "105853.102500", "105854.592500", "105856.082500", "105857.572500", "105859.062500", "105900.552500", "105902.042500", "105903.532500", "105905.022500", "105906.512500", "105908.002500", "105909.492500", "105910.982500", "105912.472500", "105913.962500", "105915.452500", "105916.942500", "105918.432500", "105919.922500", "105921.412500", "105922.902500", "105924.392500", "105925.882500", "105927.372500", "105928.862500", "105930.352500", "105931.842500", "105933.332500", "105934.822500", "105936.312500", "105937.802500", "105939.292500", "105940.782500", "105942.272500", "105943.762500", "105945.252500", "105946.742500", "105948.232500", "105949.722500", "105951.212500", "105952.702500", "105954.192500", "105955.682500", "105957.172500", "105958.662500", "110000.152500", "110001.642500", "110003.132500", "110004.622500", "110006.112500", "110007.602500", "110009.092500", "110010.582500", "110012.072500", "110013.562500", "110015.052500", "110016.542500", "110018.032500", "110019.522500", "110021.012500", "110022.502500", "110023.992500", "110025.482500", "110026.972500", "110028.462500", "110029.952500", "110031.442500", "110032.932500", "110034.422500", "110035.912500", "110037.402500", "110038.892500", "110040.382500", "110041.872500", "110043.362500", "110044.852500", "110046.342500", "110047.832500", "110049.322500", "110050.812500", "110052.302500", "110053.792500", "110055.282500", "110056.772500", "110058.262500", "110059.752500", "110101.242500", "110102.732500", "110104.222500", "110105.712500", "110107.202500", "110108.692500", "110110.182500", "110111.672500", "110113.162500", "110114.652500", "110116.142500", "110117.632500", "110119.122500", "110120.612500", "110122.102500", "110123.592500", "110125.082500", "110126.572500", "110128.062500", "110129.552500", "110131.042500", "110132.532500", "110134.022500", "110135.512500", "110137.002500", "110138.492500", "110139.982500", "110141.472500", "110142.962500", "110144.452500", "110145.942500", "110147.432500", "110148.922500", "110150.412500", "110151.902500", "110153.392500", "110154.882500", "110156.372500", "110157.862500", "110159.352500", "110200.842500", "110202.332500", "110203.822500", "110205.312500", "110206.802500", "110208.292500", "110209.782500", "110211.272500", "110212.762500", "110214.252500", "110215.742500", "110217.232500", "110218.722500", "110220.212500", "110221.702500", "110223.192500", "110224.682500", "110226.172500", "110227.662500", "110229.152500", "110230.642500", "110232.132500", "110233.622500", "110235.112500", "110236.602500", "110238.092500", "110239.582500", "110241.072500", "110242.562500", "110244.052500", "110245.542500", "110247.032500", "110248.522500", "110250.012500", "110251.502500", "110252.992500", "110254.482500", "110255.972500", "110257.462500", "110258.952500", "110300.442500", "110301.932500", "110303.422500", "110304.912500", "110306.402500", "110307.892500", "110309.382500", "110310.872500", "110312.362500", "110313.852500", "110315.342500", "110316.832500", "110318.322500", "110319.812500", "110321.302500", "110322.792500", "110324.282500", "110325.772500", "110327.262500", "110328.752500", "110330.242500", "110331.732500", "110333.222500", "110334.712500", "110336.202500", "110337.692500", "110339.182500", "110340.672500", "110342.162500", "110343.652500", "110345.142500", "110346.632500", "110348.122500", "110349.612500", "110351.102500", "110352.592500", "110354.082500", "110355.572500", "110357.062500", "110358.552500", "110400.042500", "110401.532500", "110403.022500", "110404.512500", "110406.002500", "110407.492500", "110408.982500", "110410.472500", "110411.962500", "110413.452500", "110414.942500", "110416.432500", "110417.922500", "110419.412500", "110420.902500", "110422.392500", "110423.882500", "110425.372500", "110426.862500", "110428.352500", "110429.842500", "110431.332500", "110432.822500", "110434.312500", "110435.802500", "110437.292500", "110438.782500", "110440.272500", "110441.762500", "110443.252500", "110444.742500", "110446.232500", "110447.722500", "110449.212500", "110450.702500", "110452.192500", "110453.682500", "110455.172500", "110456.662500", "110458.152500", "110459.642500", "110501.132500", "110502.622500", "110504.112500", "110505.602500", "110507.092500", "110508.582500", "110510.072500", "110511.562500", "110513.052500", "110514.542500", "110516.032500", "110517.522500", "110519.012500", "110520.502500", "110521.992500", "110523.482500", "110524.972500", "110526.462500", "110527.952500", "110529.442500", "110530.932500", "110532.422500", "110533.912500", "110535.402500", "110536.892500", "110538.382500", "110539.872500", "110541.362500", "110542.852500", "110544.342500", "110545.832500", "110547.322500", "110548.812500", "110550.302500", "110551.792500", "110553.282500", "110554.772500", "110556.262500", "110557.752500", "110559.242500", "110600.732500", "110602.222500", "110603.712500", "110605.202500", "110606.692500", "110608.182500", "110609.672500", "110611.162500", "110612.652500", "110614.142500", "110615.632500", "110617.122500", "110618.612500", "110620.102500", "110621.592500", "110623.082500", "110624.572500", "110626.062500", "110627.552500", "110629.042500", "110630.532500", "110632.022500", "110633.512500", "110635.002500", "110636.492500", "110637.982500", "110639.472500", "110640.962500", "110642.452500", "110643.942500", "110645.432500", "110646.922500", "110648.412500", "110649.902500", "110651.392500", "110652.882500", "110654.372500", "110655.862500", "110657.352500", "110658.842500", "110700.332500", "110701.822500", "110703.312500", "110704.802500", "110706.292500", "110707.782500", "110709.272500", "110710.762500", "110712.252500", "110713.742500", "110715.232500", "110716.722500", "110718.212500", "110719.702500", "110721.192500", "110722.682500", "110724.172500", "110725.662500", "110727.152500", "110728.642500", "110730.132500", "110731.622500", "110733.112500", "110734.602500", "110736.092500", "110737.582500", "110739.072500", "110740.562500", "110742.052500", "110743.542500", "110745.032500", "110746.522500", "110748.012500", "110749.502500", "110750.992500", "110752.482500", "110753.972500", "110755.462500", "110756.952500", "110758.442500", "110759.932500", "110801.422500", "110802.912500", "110804.402500", "110805.892500", "110807.382500", "110808.872500", "110810.362500", "110811.852500", "110813.342500", "110814.832500", "110816.322500", "110817.812500", "110819.302500", "110820.792500", "110822.282500", "110823.772500", "110825.262500", "110826.752500", "110828.242500", "110829.732500", "110831.222500", "110832.712500", "110834.202500", "110835.692500", "110837.182500", "110838.672500", "110840.162500", "110841.652500", "110843.142500", "110844.632500", "110846.122500"],
      "ContentTime": ["105849.312000", "105849.316000", "105849.322000", "105849.325000", "105849.328000", "105849.331000", "105849.334000", "105849.337000", "105849.342000", "105849.346000", "105849.349000", "105849.352000", "105849.356000", "105849.359000", "105849.362000", "105849.368000", "105849.371000", "105849.374000", "105849.378000", "105849.380000", "105849.384000", "105849.387000", "105849.390000", "105849.393000", "105909.281000", "105909.284000", "105909.287000", "105909.290000", "105909.293000", "105909.297000", "105909.300000", "105909.303000", "105909.306000", "105909.309000", "105909.312000", "105909.315000", "105909.324000", "105909.327000", "105909.331000", "105909.334000", "105909.337000", "105909.341000", "105909.344000", "105909.347000", "105909.350000", "105929.281000", "105929.284000", "105929.287000", "105929.290000", "105929.294000", "105929.297000", "105929.300000", "105929.303000", "105929.306000", "105929.309000", "105929.312000", "105929.315000", "105929.318000", "105929.328000", "105929.331000", "105929.334000", "105929.337000", "105929.340000", "105929.343000", "105929.347000", "105949.281000", "105949.284000", "105949.287000", "105949.290000", "105949.293000", "105949.296000", "105949.299000", "105949.302000", "105949.305000", "105949.309000", "105949.312000", "105949.315000", "105949.331000", "105949.334000", "105949.337000", "105949.340000", "105949.344000", "105949.347000", "105949.349000", "105949.352000", "110009.280000", "110009.283000", "110009.286000", "110009.290000", "110009.294000", "110009.297000", "110009.300000", "110009.303000", "110009.307000", "110009.310000", "110009.313000", "110009.316000", "110009.320000", "110009.323000", "110009.326000", "110009.329000", "110009.332000", "110009.335000", "110009.338000", "110009.341000", "110049.280000", "110049.283000", "110049.290000", "110049.293000", "110049.305000", "110049.308000", "110049.312000", "110049.315000", "110049.318000", "110049.320000", "110049.324000", "110049.327000", "110049.330000", "110049.333000", "110049.336000", "110049.339000", "110049.342000", "110049.345000", "110049.348000", "110049.351000", "110049.354000", "110049.357000", "110049.360000", "110049.363000", "110049.366000", "110049.369000", "110049.372000", "110049.375000", "110049.378000", "110049.381000", "110049.385000", "110129.281000", "110129.284000", "110129.287000", "110129.290000", "110129.293000", "110129.297000", "110129.300000", "110129.303000", "110129.306000", "110129.309000", "110129.312000", "110129.315000", "110129.318000", "110129.321000", "110129.324000", "110129.327000", "110129.330000", "110129.333000", "110129.336000", "110129.339000", "110129.343000", "110129.346000", "110129.349000", "110129.352000", "110129.355000", "110129.358000", "110129.361000", "110209.281000", "110209.284000", "110209.287000", "110209.290000", "110209.294000", "110209.297000", "110209.300000", "110209.303000", "110209.306000", "110209.309000", "110209.312000", "110209.315000", "110209.318000", "110209.321000", "110209.324000", "110209.327000", "110209.330000", "110209.333000", "110209.336000", "110209.339000", "110209.342000", "110209.345000", "110209.348000", "110209.351000", "110209.354000", "110209.358000", "110209.360000", "110249.280000", "110249.283000", "110249.286000", "110249.289000", "110249.293000", "110249.296000", "110249.299000", "110249.302000", "110249.305000", "110249.308000", "110249.311000", "110249.314000", "110249.317000", "110249.324000", "110249.327000", "110249.330000", "110249.333000", "110249.336000", "110249.339000", "110249.342000", "110249.345000", "110249.348000", "110249.351000", "110249.355000", "110249.358000", "110249.361000", "110249.364000", "110329.281000", "110329.284000", "110329.288000", "110329.291000", "110329.294000", "110329.297000", "110329.300000", "110329.303000", "110329.306000", "110329.309000", "110329.312000", "110329.315000", "110329.318000", "110329.321000", "110329.324000", "110329.327000", "110329.330000", "110329.333000", "110329.336000", "110329.339000", "110329.342000", "110329.345000", "110329.349000", "110329.352000", "110329.355000", "110329.358000", "110329.361000", "110409.281000", "110409.284000", "110409.287000", "110409.291000", "110409.294000", "110409.297000", "110409.300000", "110409.303000", "110409.306000", "110409.309000", "110409.312000", "110409.315000", "110409.318000", "110409.322000", "110409.325000", "110409.328000", "110409.331000", "110409.334000", "110409.337000", "110409.340000", "110409.343000", "110409.346000", "110409.349000", "110409.352000", "110409.355000", "110409.358000", "110449.280000", "110449.283000", "110449.286000", "110449.290000", "110449.293000", "110449.296000", "110449.299000", "110449.302000", "110449.305000", "110449.308000", "110449.311000", "110449.314000", "110449.317000", "110449.320000", "110449.323000", "110449.326000", "110449.329000", "110449.332000", "110449.335000", "110449.338000", "110449.341000", "110449.344000", "110449.347000", "110449.350000", "110449.353000", "110449.357000", "110449.360000", "110529.280000", "110529.283000", "110529.287000", "110529.290000", "110529.293000", "110529.296000", "110529.299000", "110529.302000", "110529.305000", "110529.308000", "110529.311000", "110529.314000", "110529.317000", "110529.320000", "110529.323000", "110529.326000", "110529.330000", "110529.333000", "110529.336000", "110529.339000", "110529.342000", "110529.345000", "110529.348000", "110529.351000", "110529.359000", "110529.362000", "110529.365000", "110549.281000", "110549.284000", "110549.287000", "110549.291000", "110549.294000", "110549.297000", "110549.300000", "110549.303000", "110549.306000", "110549.309000", "110549.312000", "110549.315000", "110549.318000", "110549.321000", "110629.281000", "110629.285000", "110629.288000", "110629.291000", "110629.294000", "110629.297000", "110629.300000", "110629.303000", "110629.306000", "110629.309000", "110629.312000", "110629.315000", "110629.318000", "110629.322000", "110629.325000", "110629.328000", "110629.331000", "110629.334000", "110629.337000", "110629.340000", "110629.343000", "110629.346000", "110629.349000", "110629.352000", "110629.355000", "110629.358000", "110709.280000", "110709.284000", "110709.287000", "110709.290000", "110709.293000", "110709.296000", "110709.299000", "110709.302000", "110709.305000", "110709.308000", "110709.311000", "110709.314000", "110709.317000", "110709.320000", "110709.323000", "110709.326000", "110709.329000", "110709.332000", "110709.335000", "110709.338000", "110709.341000", "110709.345000", "110709.347000", "110709.350000", "110709.353000", "110709.357000", "110709.360000", "110749.280000", "110749.283000", "110749.286000", "110749.289000", "110749.293000", "110749.296000", "110749.299000", "110749.302000", "110749.305000", "110749.308000", "110749.311000", "110749.314000", "110749.317000", "110749.320000", "110749.323000", "110749.326000", "110749.329000", "110749.332000", "110749.335000", "110749.338000", "110749.342000", "110749.345000", "110749.348000", "110749.351000", "110749.354000", "110749.357000", "110749.360000", "110829.281000", "110829.285000", "110829.288000", "110829.291000", "110829.294000", "110829.297000", "110829.300000", "110829.303000", "110829.306000", "110829.309000", "110829.312000", "110829.315000", "110829.318000", "110829.333000", "110829.336000", "110829.339000", "110829.342000", "110829.345000", "110829.348000", "110829.352000", "110829.355000", "110829.358000", "110829.361000", "110829.364000", "110829.367000", "110829.370000", "110829.373000", "110847.972000", "110847.975000", "110847.986000", "110847.989000", "110847.992000", "110847.995000", "110847.998000", "110848.002000", "110848.005000", "110848.008000", "110848.012000", "110848.015000", "110848.018000"],
