{
  "AcquisitionMatrixPE": 104,
  "AcquisitionNumber": 1,
  "AcquisitionTime": "11:03:43.937500",
  "BandwidthPerPixelPhaseEncode": 17.17,
  "BaseResolution": 104,
  "BodyPartExamined": "BRAIN",
  "CoilCombinationMethod": "Sum of Squares",
  "ConsistencyInfo": "N4_VE11C_LATEST_20160120",
  "ConversionSoftware": "dcm2niix",
  "ConversionSoftwareVersion": "v1.0.20211006",
  "DerivedVendorReportedEchoSpacing": 0.000560011,
  "DeviceSerialNumber": "167006",
  "DwellTime": 2.1e-06,
  "EchoTime": 0.037,
  "EchoTrainLength": 104,
  "EffectiveEchoSpacing": 0.000560011,
  "FlipAngle": 52,
  "HeudiconvVersion": "0.5.3.post569+g418601f",
  "ImageComments": "Unaliased MB4/PE3/LB",
  "ImageOrientationPatientDICOM": [0.996623, 0.0820267, 0.00366936, -0.0758112, 0.936429, -0.342569],
  "ImageOrientationText": "Tra>Cor(-20.0)>Sag(1.8)",
  "ImageType": [
    "ORIGINAL",
    "PRIMARY",
    "M",
    "MB",
    "ND",
    "MOSAIC"
],
  "ImagingFrequency": 123.259,
  "InPlanePhaseEncodingDirectionDICOM": "COL",
  "InstitutionAddress": "Chemin Queen-Mary 4565,Montreal,District,CA,H3W 1W5",
  "InstitutionName": "IUGM",
  "InstitutionalDepartmentName": "Department",
  "MRAcquisitionType": "2D",
  "MagneticFieldStrength": 3,
  "Manufacturer": "Siemens",
  "ManufacturersModelName": "Prisma_fit",
  "MatrixCoilMode": "SENSE",
  "Modality": "MR",
  "MultibandAccelerationFactor": 4,
  "PartialFourier": 1,
  "PatientPosition": "HFS",
  "PercentPhaseFOV": 100,
  "PercentSampling": 100,
  "PhaseEncodingDirection": "j",
  "PhaseEncodingSteps": 104,
  "PhaseResolution": 1,
  "PixelBandwidth": 2290,
  "ProcedureStepDescription": "video^friends",
  "ProtocolName": "func_task-friends-s05e23a",
  "PulseSequenceDetails": "%CustomerSeq%\\cmrr_mbep2d_bold",
  "ReceiveCoilActiveElements": "HC1-7;NC1,2",
  "ReceiveCoilName": "HeadNeck_64",
  "ReconMatrixPE": 104,
  "RepetitionTime": 1.49,
  "SAR": 0.0357101,
  "ScanOptions": "FS",
  "ScanningSequence": "EP",
  "SequenceName": "epfid2d1_104",
  "SequenceVariant": "SK\\SS",
  "SeriesDescription": "func_task-friends-s05e23a",
  "SeriesNumber": 9,
  "ShimSetting": [634, -7197, -8770, 698, 78, -22, -18, -11],
  "SliceThickness": 2,
  "SliceTiming": [0, 0.785, 0.0975, 0.8825, 0.195, 0.98, 0.295, 1.0775, 0.3925, 1.175, 0.49, 1.2725, 0.5875, 1.3725, 0.685, 0, 0.785, 0.0975, 0.8825, 0.195, 0.98, 0.295, 1.0775, 0.3925, 1.175, 0.49, 1.2725, 0.5875, 1.3725, 0.685, 0, 0.785, 0.0975, 0.8825, 0.195, 0.98, 0.295, 1.0775, 0.3925, 1.175, 0.49, 1.2725, 0.5875, 1.3725, 0.685, 0, 0.785, 0.0975, 0.8825, 0.195, 0.98, 0.295, 1.0775, 0.3925, 1.175, 0.49, 1.2725, 0.5875, 1.3725, 0.685],
  "SoftwareVersions": "syngo MR E11",
  "SpacingBetweenSlices": 2,
  "StationName": "MRC35049",
  "TaskName": "s05e23a",
  "TotalReadoutTime": 0.0576811,
  "TxRefAmp": 249.957,
  "WipMemBlock": "0127f40b-74dc-4122-90ce-6f8de42e788c||Sequence: R016 ve11c/master r/e634e98; Dec 19 2017 11:00:25 by eja",
  "dcmmeta_affine": [
    [-1.9932467937469482, -0.15162236988544464, 0.06307177245616913, 108.79417419433594],
    [-0.16405345499515533, 1.8728580474853516, -0.6822676658630371, -61.335147857666016],
    [0.007338718045502901, 0.6851375102996826, 1.8789712190628052, -53.12918472290039],
    [0.0, 0.0, 0.0, 1.0]
],
  "dcmmeta_reorient_transform": [
    [0.0, -1.0, 0.0, 103.0],
    [1.0, 0.0, 0.0, 0.0],
    [0.0, 0.0, 1.0, 0.0],
    [0.0, 0.0, 0.0, 1.0]
],
  "dcmmeta_shape": [104, 104, 60, 454],
  "dcmmeta_slice_dim": 2,
  "dcmmeta_version": 0.6,
  "global": {
    "const": {
      "AcquisitionMatrix": [104, 0, 0, 104],
      "AngioFlag": "N",
      "BitsAllocated": 16,
      "BitsStored": 16,
      "BodyPartExamined": "BRAIN",
      "Columns": 832,
      "EchoNumbers": 1,
      "EchoTime": 37.0,
      "EchoTrainLength": 104,
      "FlipAngle": 52.0,
      "HighBit": 15,
      "ImageOrientationPatient": [0.99662337538981, 0.08202672387946, 0.00366935910157, -0.0758111829816, 0.93642902233538, -0.3425687531911],
      "ImagePositionPatient": [-763.5283493693, -873.00501452995, 264.15873863155],
      "ImageType": [
        "ORIGINAL",
        "PRIMARY",
        "M",
        "MB",
        "ND",
        "MOSAIC"
],
      "ImagedNucleus": "1H",
      "ImagingFrequency": 123.258803,
      "InPlanePhaseEncodingDirection": "COL",
      "MRAcquisitionType": "2D",
      "MagneticFieldStrength": 3.0,
      "Manufacturer": "SIEMENS",
      "ManufacturerModelName": "Prisma_fit",
      "Modality": "MR",
      "NumberOfAverages": 1.0,
      "NumberOfPhaseEncodingSteps": 104,
      "PercentPhaseFieldOfView": 100.0,
      "PercentSampling": 100.0,
      "PerformedProcedureStepStartTime": "101144.107000",
      "PhotometricInterpretation": "MONOCHROME2",
      "PixelBandwidth": 2290.0,
      "PixelRepresentation": 0,
      "PixelSpacing": [2.0, 2.0],
      "ProtocolName": "func_task-friends-s05e23a",
      "RepetitionTime": 1490.0,
      "Rows": 832,
      "SAR": 0.03571008541349,
      "SamplesPerPixel": 1,
      "ScanOptions": "FS",
      "ScanningSequence": "EP",
      "SequenceName": "epfid2d1_104",
      "SequenceVariant": [
        "SK",
        "SS"
],
      "SeriesDescription": "func_task-friends-s05e23a",
      "SeriesNumber": 9,
      "SeriesTime": "110441.784000",
      "SliceLocation": -25.559686833874,
      "SliceThickness": 2.0,
      "SmallestImagePixelValue": 0,
      "SoftwareVersions": "syngo MR E11",
      "SpacingBetweenSlices": 1.9999999764315,
      "SpecificCharacterSet": "ISO_IR 100",
      "StudyID": "1",
      "StudyTime": "101144.024000",
      "TransmitCoilName": "Body",
      "VariableFlipAngleFlag": "N",
      "WindowCenterWidthExplanation": "Algo1",
      "dBdt": 0.0},
    "slices": {}
  },
  "time": {
    "samples": {
      "AcquisitionNumber": [1, 2, 3, 4, 5, 6, 7, 8, 9, 10, 11, 12, 13, 14, 15, 16, 17, 18, 19, 20, 21, 22, 23, 24, 25, 26, 27, 28, 29, 30, 31, 32, 33, 34, 35, 36, 37, 38, 39, 40, 41, 42, 43, 44, 45, 46, 47, 48, 49, 50, 51, 52, 53, 54, 55, 56, 57, 58, 59, 60, 61, 62, 63, 64, 65, 66, 67, 68, 69, 70, 71, 72, 73, 74, 75, 76, 77, 78, 79, 80, 81, 82, 83, 84, 85, 86, 87, 88, 89, 90, 91, 92, 93, 94, 95, 96, 97, 98, 99, 100, 101, 102, 103, 104, 105, 106, 107, 108, 109, 110, 111, 112, 113, 114, 115, 116, 117, 118, 119, 120, 121, 122, 123, 124, 125, 126, 127, 128, 129, 130, 131, 132, 133, 134, 135, 136, 137, 138, 139, 140, 141, 142, 143, 144, 145, 146, 147, 148, 149, 150, 151, 152, 153, 154, 155, 156, 157, 158, 159, 160, 161, 162, 163, 164, 165, 166, 167, 168, 169, 170, 171, 172, 173, 174, 175, 176, 177, 178, 179, 180, 181, 182, 183, 184, 185, 186, 187, 188, 189, 190, 191, 192, 193, 194, 195, 196, 197, 198, 199, 200, 201, 202, 203, 204, 205, 206, 207, 208, 209, 210, 211, 212, 213, 214, 215, 216, 217, 218, 219, 220, 221, 222, 223, 224, 225, 226, 227, 228, 229, 230, 231, 232, 233, 234, 235, 236, 237, 238, 239, 240, 241, 242, 243, 244, 245, 246, 247, 248, 249, 250, 251, 252, 253, 254, 255, 256, 257, 258, 259, 260, 261, 262, 263, 264, 265, 266, 267, 268, 269, 270, 271, 272, 273, 274, 275, 276, 277, 278, 279, 280, 281, 282, 283, 284, 285, 286, 287, 288, 289, 290, 291, 292, 293, 294, 295, 296, 297, 298, 299, 300, 301, 302, 303, 304, 305, 306, 307, 308, 309, 310, 311, 312, 313, 314, 315, 316, 317, 318, 319, 320, 321, 322, 323, 324, 325, 326, 327, 328, 329, 330, 331, 332, 333, 334, 335, 336, 337, 338, 339, 340, 341, 342, 343, 344, 345, 346, 347, 348, 349, 350, 351, 352, 353, 354, 355, 356, 357, 358, 359, 360, 361, 362, 363, 364, 365, 366, 367, 368, 369, 370, 371, 372, 373, 374, 375, 376, 377, 378, 379, 380, 381, 382, 383, 384, 385, 386, 387, 388, 389, 390, 391, 392, 393, 394, 395, 396, 397, 398, 399, 400, 401, 402, 403, 404, 405, 406, 407, 408, 409, 410, 411, 412, 413, 414, 415, 416, 417, 418, 419, 420, 421, 422, 423, 424, 425, 426, 427, 428, 429, 430, 431, 432, 433, 434, 435, 436, 437, 438, 439, 440, 441, 442, 443, 444, 445, 446, 447, 448, 449, 450, 451, 452, 453, 454],
      "AcquisitionTime": ["110343.937500", "110345.427500", "110346.917500", "110348.407500", "110349.897500", "110351.387500", "110352.877500", "110354.367500", "110355.857500", "110357.347500", "110358.837500", "110400.327500", "110401.817500", "110403.307500", "110404.797500", "110406.287500", "110407.777500", "110409.267500", "110410.757500", "110412.247500", "110413.737500", "110415.227500", "110416.717500", "110418.207500", "110419.697500", "110421.187500", "110422.677500", "110424.167500", "110425.657500", "110427.147500", "110428.637500", "110430.127500", "110431.617500", "110433.107500", "110434.597500", "110436.087500", "110437.577500", "110439.067500", "110440.557500", "110442.047500", "110443.537500", "110445.027500", "110446.517500", "110448.007500", "110449.497500", "110450.987500", "110452.477500", "110453.967500", "110455.457500", "110456.947500", "110458.437500", "110459.927500", "110501.417500", "110502.907500", "110504.397500", "110505.887500", "110507.377500", "110508.867500", "110510.357500", "110511.847500", "110513.337500", "110514.827500", "110516.317500", "110517.807500", "110519.297500", "110520.787500", "110522.277500", "110523.767500", "110525.257500", "110526.747500", "110528.237500", "110529.727500", "110531.217500", "110532.707500", "110534.197500", "110535.687500", "110537.177500", "110538.667500", "110540.157500", "110541.647500", "110543.137500", "110544.627500", "110546.117500", "110547.607500", "110549.097500", "110550.587500", "110552.077500", "110553.567500", "110555.057500", "110556.547500", "110558.037500", "110559.527500", "110601.017500", "110602.507500", "110603.997500", "110605.487500", "110606.977500", "110608.467500", "110609.957500", "110611.447500", "110612.937500", "110614.427500", "110615.917500", "110617.407500", "110618.897500", "110620.387500", "110621.877500", "110623.367500", "110624.857500", "110626.347500", "110627.837500", "110629.327500", "110630.817500", "110632.307500", "110633.797500", "110635.287500", "110636.777500", "110638.267500", "110639.757500", "110641.247500", "110642.737500", "110644.227500", "110645.717500", "110647.207500", "110648.697500", "110650.187500", "110651.677500", "110653.167500", "110654.657500", "110656.147500", "110657.637500", "110659.127500", "110700.617500", "110702.107500", "110703.597500", "110705.087500", "110706.577500", "110708.067500", "110709.557500", "110711.047500", "110712.537500", "110714.027500", "110715.517500", "110717.007500", "110718.497500", "110719.987500", "110721.477500", "110722.967500", "110724.457500", "110725.947500", "110727.437500", "110728.927500", "110730.417500", "110731.907500", "110733.397500", "110734.887500", "110736.377500", "110737.867500", "110739.357500", "110740.847500", "110742.337500", "110743.827500", "110745.317500", "110746.807500", "110748.297500", "110749.787500", "110751.277500", "110752.767500", "110754.257500", "110755.747500", "110757.237500", "110758.727500", "110800.217500", "110801.707500", "110803.197500", "110804.687500", "110806.177500", "110807.667500", "110809.157500", "110810.647500", "110812.137500", "110813.627500", "110815.117500", "110816.607500", "110818.097500", "110819.587500", "110821.077500", "110822.567500", "110824.057500", "110825.547500", "110827.037500", "110828.527500", "110830.017500", "110831.507500", "110832.997500", "110834.487500", "110835.977500", "110837.467500", "110838.957500", "110840.447500", "110841.937500", "110843.427500", "110844.917500", "110846.407500", "110847.897500", "110849.387500", "110850.877500", "110852.367500", "110853.857500", "110855.347500", "110856.837500", "110858.327500", "110859.817500", "110901.307500", "110902.797500", "110904.287500", "110905.777500", "110907.267500", "110908.757500", "110910.247500", "110911.737500", "110913.227500", "110914.717500", "110916.207500", "110917.697500", "110919.187500", "110920.677500", "110922.167500", "110923.657500", "110925.147500", "110926.637500", "110928.127500", "110929.617500", "110931.107500", "110932.597500", "110934.087500", "110935.577500", "110937.067500", "110938.557500", "110940.047500", "110941.537500", "110943.027500", "110944.517500", "110946.007500", "110947.497500", "110948.987500", "110950.477500", "110951.967500", "110953.457500", "110954.947500", "110956.437500", "110957.927500", "110959.417500", "111000.907500", "111002.397500", "111003.887500", "111005.377500", "111006.867500", "111008.357500", "111009.847500", "111011.337500", "111012.827500", "111014.317500", "111015.807500", "111017.297500", "111018.787500", "111020.277500", "111021.767500", "111023.257500", "111024.747500", "111026.237500", "111027.727500", "111029.217500", "111030.707500", "111032.197500", "111033.687500", "111035.177500", "111036.667500", "111038.157500", "111039.647500", "111041.137500", "111042.627500", "111044.117500", "111045.607500", "111047.097500", "111048.587500", "111050.077500", "111051.567500", "111053.057500", "111054.547500", "111056.037500", "111057.527500", "111059.017500", "111100.507500", "111101.997500", "111103.487500", "111104.977500", "111106.467500", "111107.957500", "111109.447500", "111110.937500", "111112.427500", "111113.917500", "111115.407500", "111116.897500", "111118.387500", "111119.877500", "111121.367500", "111122.857500", "111124.347500", "111125.837500", "111127.327500", "111128.817500", "111130.307500", "111131.797500", "111133.287500", "111134.777500", "111136.267500", "111137.757500", "111139.247500", "111140.737500", "111142.227500", "111143.717500", "111145.207500", "111146.697500", "111148.187500", "111149.677500", "111151.167500", "111152.657500", "111154.147500", "111155.637500", "111157.127500", "111158.617500", "111200.107500", "111201.597500", "111203.087500", "111204.577500", "111206.067500", "111207.557500", "111209.047500", "111210.537500", "111212.027500", "111213.517500", "111215.007500", "111216.497500", "111217.987500", "111219.477500", "111220.967500", "111222.457500", "111223.947500", "111225.437500", "111226.927500", "111228.417500", "111229.907500", "111231.397500", "111232.887500", "111234.377500", "111235.867500", "111237.357500", "111238.847500", "111240.337500", "111241.827500", "111243.317500", "111244.807500", "111246.297500", "111247.787500", "111249.277500", "111250.767500", "111252.257500", "111253.747500", "111255.237500", "111256.727500", "111258.217500", "111259.707500", "111301.197500", "111302.687500", "111304.177500", "111305.667500", "111307.157500", "111308.647500", "111310.137500", "111311.627500", "111313.117500", "111314.607500", "111316.097500", "111317.587500", "111319.077500", "111320.567500", "111322.057500", "111323.547500", "111325.037500", "111326.527500", "111328.017500", "111329.507500", "111330.997500", "111332.487500", "111333.977500", "111335.467500", "111336.957500", "111338.447500", "111339.937500", "111341.427500", "111342.917500", "111344.407500", "111345.897500", "111347.387500", "111348.877500", "111350.367500", "111351.857500", "111353.347500", "111354.837500", "111356.327500", "111357.817500", "111359.307500", "111400.797500", "111402.287500", "111403.777500", "111405.267500", "111406.757500", "111408.247500", "111409.737500", "111411.227500", "111412.717500", "111414.207500", "111415.697500", "111417.187500", "111418.677500", "111420.167500", "111421.657500", "111423.147500", "111424.637500", "111426.127500", "111427.617500", "111429.107500", "111430.597500", "111432.087500", "111433.577500", "111435.067500", "111436.557500", "111438.047500", "111439.537500", "111441.027500", "111442.517500", "111444.007500", "111445.497500", "111446.987500", "111448.477500", "111449.967500", "111451.457500", "111452.947500", "111454.437500", "111455.927500", "111457.417500", "111458.907500"],
      "ContentTime": ["110441.787000", "110441.790000", "110441.793000", "110501.750000", "110501.753000", "110501.755000", "110501.758000", "110501.761000", "110501.764000", "110501.767000", "110501.775000", "110501.778000", "110501.781000", "110501.784000", "110501.787000", "110501.789000", "110501.792000", "110501.795000", "110501.798000", "110501.801000", "110501.803000", "110501.806000", "110501.809000", "110541.750000", "110541.753000", "110541.756000", "110541.758000", "110541.761000", "110541.764000", "110541.767000", "110541.770000", "110541.773000", "110541.776000", "110541.778000", "110541.781000", "110541.792000", "110541.794000", "110541.797000", "110541.800000", "110541.803000", "110541.806000", "110541.809000", "110541.811000", "110541.814000", "110541.817000", "110541.820000", "110541.823000", "110541.825000", "110541.828000", "110541.831000", "110541.843000", "110541.846000", "110541.849000", "110541.852000", "110541.855000", "110541.857000", "110541.860000", "110541.863000", "110541.866000", "110541.868000", "110541.871000", "110541.874000", "110601.751000", "110601.761000", "110601.764000", "110601.767000", "110601.770000", "110601.773000", "110601.775000", "110601.778000", "110601.781000", "110601.784000", "110601.787000", "110601.790000", "110601.793000", "110601.796000", "110601.798000", "110601.801000", "110601.804000", "110601.807000", "110601.810000", "110601.813000", "110601.816000", "110621.751000", "110621.754000", "110621.757000", "110621.760000", "110621.762000", "110621.765000", "110621.768000", "110621.771000", "110621.774000", "110621.777000", "110621.779000", "110621.782000", "110621.785000", "110621.788000", "110621.791000", "110621.794000", "110621.797000", "110621.799000", "110621.802000", "110621.805000", "110701.751000", "110701.754000", "110701.757000", "110701.760000", "110701.763000", "110701.766000", "110701.768000", "110701.771000", "110701.774000", "110701.777000", "110701.780000", "110701.782000", "110701.785000", "110701.788000", "110701.791000", "110701.794000", "110701.797000", "110701.800000", "110701.802000", "110701.805000", "110701.808000", "110701.818000", "110701.821000", "110701.824000", "110701.827000", "110701.830000", "110701.833000", "110701.844000", "110741.750000", "110741.753000", "110741.756000", "110741.759000", "110741.762000", "110741.764000", "110741.767000", "110741.770000", "110741.773000", "110741.776000", "110741.778000", "110741.781000", "110741.784000", "110741.787000", "110741.790000", "110741.793000", "110741.795000", "110741.798000", "110741.801000", "110741.804000", "110741.807000", "110741.810000", "110741.812000", "110741.815000", "110741.818000", "110741.821000", "110741.824000", "110821.751000", "110821.754000", "110821.757000", "110821.759000", "110821.762000", "110821.765000", "110821.768000", "110821.771000", "110821.792000", "110821.795000", "110821.805000", "110821.808000", "110821.811000", "110821.814000", "110821.816000", "110821.819000", "110821.822000", "110821.825000", "110821.828000", "110821.830000", "110821.833000", "110821.836000", "110821.839000", "110821.842000", "110821.845000", "110821.847000", "110821.850000", "110901.751000", "110901.754000", "110901.757000", "110901.760000", "110901.762000", "110901.765000", "110901.768000", "110901.794000", "110901.801000", "110901.803000", "110901.806000", "110901.809000", "110901.812000", "110901.815000", "110901.824000", "110901.827000", "110901.830000", "110901.833000", "110901.836000", "110901.838000", "110901.841000", "110901.844000", "110901.847000", "110901.867000", "110901.870000", "110901.873000", "110901.881000", "110941.750000", "110941.753000", "110941.756000", "110941.759000", "110941.761000", "110941.764000", "110941.767000", "110941.770000", "110941.773000", "110941.781000", "110941.784000", "110941.787000", "110941.789000", "110941.792000", "110941.795000", "110941.798000", "110941.801000", "110941.803000", "110941.815000", "110941.818000", "110941.821000", "110941.824000", "110941.827000", "110941.830000", "110941.832000", "110941.835000", "110941.838000", "111021.750000", "111021.753000", "111021.756000", "111021.759000", "111021.761000", "111021.764000", "111021.767000", "111021.928000", "111021.931000", "111021.934000", "111021.936000", "111021.939000", "111021.942000", "111021.945000", "111021.954000", "111021.957000", "111021.960000", "111021.963000", "111021.966000", "111021.968000", "111021.971000", "111021.974000", "111021.977000", "111021.980000", "111021.983000", "111021.985000", "111021.988000", "111101.751000", "111101.754000", "111101.757000", "111101.760000", "111101.762000", "111101.765000", "111101.768000", "111101.771000", "111101.774000", "111101.795000", "111101.798000", "111101.801000", "111101.804000", "111101.807000", "111101.809000", "111101.812000", "111101.815000", "111101.818000", "111101.821000", "111101.824000", "111101.827000", "111101.829000", "111101.832000", "111101.835000", "111101.838000", "111101.841000", "111101.843000", "111141.751000", "111141.754000", "111141.757000", "111141.760000", "111141.763000", "111141.766000", "111141.769000", "111141.772000", "111141.774000", "111141.777000", "111141.780000", "111141.783000", "111141.786000", "111141.789000", "111141.792000", "111141.795000", "111141.797000", "111141.800000", "111141.803000", "111141.806000", "111141.809000", "111141.812000", "111141.815000", "111141.818000", "111141.820000", "111141.823000", "111221.750000", "111221.753000", "111221.756000", "111221.759000", "111221.761000", "111221.764000", "111221.767000", "111221.770000", "111221.773000", "111221.776000", "111221.779000", "111221.781000", "111221.784000", "111221.787000", "111221.790000", "111221.793000", "111221.796000", "111221.798000", "111221.801000", "111221.804000", "111221.807000", "111221.810000", "111221.813000", "111221.816000", "111221.818000", "111221.821000", "111221.824000", "111301.751000", "111301.754000", "111301.757000", "111301.760000", "111301.762000", "111301.765000", "111301.768000", "111301.803000", "111301.805000", "111301.808000", "111301.811000", "111301.814000", "111301.817000", "111301.819000", "111301.822000", "111301.825000", "111301.828000", "111301.831000", "111301.834000", "111301.836000", "111301.839000", "111301.842000", "111301.845000", "111301.848000", "111301.851000", "111301.854000", "111301.856000", "111341.751000", "111341.754000", "111341.757000", "111341.760000", "111341.762000", "111341.765000", "111341.768000", "111341.953000", "111341.955000", "111341.958000", "111341.961000", "111341.971000", "111341.974000", "111341.976000", "111341.987000", "111341.990000", "111341.992000", "111341.995000", "111341.998000", "111342.013000", "111342.016000", "111342.019000", "111342.022000", "111342.025000", "111342.027000", "111342.030000", "111342.033000", "111421.750000", "111421.753000", "111421.756000", "111421.759000", "111421.762000", "111421.764000", "111421.767000", "111421.770000", "111421.773000", "111421.776000", "111421.779000", "111421.782000", "111421.784000", "111421.787000", "111421.790000", "111421.793000", "111421.796000", "111421.799000", "111421.801000", "111421.804000", "111421.807000", "111421.816000", "111421.819000", "111421.822000", "111421.825000", "111421.828000", "111421.830000", "111441.750000", "111441.753000", "111441.756000", "111441.759000", "111441.762000", "111441.764000", "111441.767000", "111441.770000", "111441.773000", "111441.776000", "111441.778000", "111441.781000", "111441.784000", "111501.616000", "111501.619000", "111501.631000", "111501.633000", "111501.636000", "111501.639000", "111501.642000", "111501.645000", "111501.648000", "111501.651000", "111501.654000", "111501.656000", "111501.659000", "111501.662000"],
