{
  "AcquisitionMatrixPE": 104,
  "AcquisitionNumber": 1,
  "AcquisitionTime": "14:05:10.235000",
  "BandwidthPerPixelPhaseEncode": 17.17,
  "BaseResolution": 104,
  "BodyPartExamined": "BRAIN",
  "CoilString": "HC1-7;NC1_2",
  "ConsistencyInfo": "N4_VE11C_LATEST_20160120",
  "ConversionSoftware": "dcm2niix",
  "ConversionSoftwareVersion": "v1.0.20190720  (JP2:OpenJPEG) GCC7.3.0",
  "DerivedVendorReportedEchoSpacing": 0.000560011,
  "DeviceSerialNumber": "167006",
  "DwellTime": 2.1e-06,
  "EchoTime": 0.037,
  "EchoTrainLength": 104,
  "EffectiveEchoSpacing": 0.000560011,
  "FlipAngle": 52,
  "ImageComments": "Unaliased_MB4_PE3_LB",
  "ImageOrientationPatientDICOM": [0.999884, -0.0011959, 0.0151733, 0.00890039, 0.854633, -0.519157],
  "ImageType": [
    "ORIGINAL",
    "PRIMARY",
    "M",
    "MB",
    "ND",
    "MOSAIC"
],
  "ImagingFrequency": 123.259,
  "InPlanePhaseEncodingDirectionDICOM": "COL",
  "InstitutionAddress": "Chemin_Queen-Mary_4565_Montreal_District_CA_H3W_1W5",
  "InstitutionName": "IUGM",
  "InstitutionalDepartmentName": "Department",
  "MRAcquisitionType": "2D",
  "MagneticFieldStrength": 3,
  "Manufacturer": "Siemens",
  "ManufacturersModelName": "Prisma_fit",
  "Modality": "MR",
  "MultibandAccelerationFactor": 4,
  "PartialFourier": 1,
  "PatientPosition": "HFS",
  "PercentPhaseFOV": 100,
  "PhaseEncodingDirection": "j",
  "PhaseEncodingSteps": 104,
  "PhaseResolution": 1,
  "PixelBandwidth": 2290,
  "ProcedureStepDescription": "video_friends",
  "ProtocolName": "func_task-s01e18b",
  "PulseSequenceDetails": "%CustomerSeq%_cmrr_mbep2d_bold",
  "ReceiveCoilActiveElements": "HC1-7;NC1,2",
  "ReceiveCoilName": "HeadNeck_64",
  "ReconMatrixPE": 104,
  "RepetitionTime": 1.49,
  "SAR": 0.0343031,
  "ScanOptions": "FS",
  "ScanningSequence": "EP",
  "SequenceName": "epfid2d1_104",
  "SequenceVariant": "SK_SS",
  "SeriesDescription": "func_task-s01e18b",
  "SeriesNumber": 17,
  "ShimSetting": [630, -7184, -8899, 406, -17, -197, 25, -13],
  "SliceThickness": 2,
  "SliceTiming": [0, 0.785, 0.0975, 0.8825, 0.195, 0.98, 0.295, 1.0775, 0.3925, 1.175, 0.49, 1.275, 0.5875, 1.3725, 0.685, 0, 0.785, 0.0975, 0.8825, 0.195, 0.98, 0.295, 1.0775, 0.3925, 1.175, 0.49, 1.275, 0.5875, 1.3725, 0.685, 0, 0.785, 0.0975, 0.8825, 0.195, 0.98, 0.295, 1.0775, 0.3925, 1.175, 0.49, 1.275, 0.5875, 1.3725, 0.685, 0, 0.785, 0.0975, 0.8825, 0.195, 0.98, 0.295, 1.0775, 0.3925, 1.175, 0.49, 1.275, 0.5875, 1.3725, 0.685],
  "SoftwareVersions": "syngo_MR_E11",
  "SpacingBetweenSlices": 2,
  "StationName": "MRC35049",
  "TaskName": "friends",
  "TotalReadoutTime": 0.0576811,
  "TxRefAmp": 248.05,
  "WipMemBlock": "ac90075d-e378-4011-9e3e-066bb7e08d6d||Sequence: R016 ve11c/master r/e634e98; Dec 19 2017 11:00:25 by eja",
  "dcmmeta_affine": [
    [-1.9997683763504028, 0.017800772562623024, 0.024693423882126808, 101.57267761230469],
    [0.002391799120232463, 1.7092655897140503, -1.0384629964828491, -57.658905029296875],
    [0.03034653142094612, 1.0383131504058838, 1.709088921546936, -114.56035614013672],
    [0.0, 0.0, 0.0, 1.0]
],
  "dcmmeta_reorient_transform": [
    [0.0, -1.0, 0.0, 103.0],
    [1.0, 0.0, 0.0, 0.0],
    [0.0, 0.0, 1.0, 0.0],
    [0.0, 0.0, 0.0, 1.0]
],
  "dcmmeta_shape": [104, 104, 60, 497],
  "dcmmeta_slice_dim": 2,
  "dcmmeta_version": 0.6,
  "global": {
    "const": {
      "AcquisitionMatrix": [104, 0, 0, 104],
      "AngioFlag": "N",
      "BitsAllocated": 16,
      "BitsStored": 16,
      "BodyPartExamined": "BRAIN",
      "Columns": 832,
      "EchoNumbers": 1,
      "EchoTime": 37.0,
      "EchoTrainLength": 104,
      "FlipAngle": 52.0,
      "HighBit": 15,
      "ImageOrientationPatient": [0.99988416420741, -0.0011958995305, 0.01517326568529, 0.0089003865914, 0.85463280674669, -0.5191565744078],
      "ImagePositionPatient": [-837.80130915467, -739.69752255096, 359.28574676823],
      "ImageType": [
        "ORIGINAL",
        "PRIMARY",
        "M",
        "MB",
        "ND",
        "MOSAIC"
],
      "ImagedNucleus": "1H",
      "ImagingFrequency": 123.259462,
      "InPlanePhaseEncodingDirection": "COL",
      "MRAcquisitionType": "2D",
      "MagneticFieldStrength": 3.0,
      "Manufacturer": "SIEMENS",
      "ManufacturerModelName": "Prisma_fit",
      "Modality": "MR",
      "NumberOfAverages": 1.0,
      "NumberOfPhaseEncodingSteps": 104,
      "PercentPhaseFieldOfView": 100.0,
      "PercentSampling": 100.0,
      "PerformedProcedureStepStartTime": "130615.875000",
      "PhotometricInterpretation": "MONOCHROME2",
      "PixelBandwidth": 2290.0,
      "PixelRepresentation": 0,
      "PixelSpacing": [2.0, 2.0],
      "ProtocolName": "func_task-s01e18b",
      "RepetitionTime": 1490.0,
      "Rows": 832,
      "SAR": 0.03430306768427,
      "SamplesPerPixel": 1,
      "ScanOptions": "FS",
      "ScanningSequence": "EP",
      "SequenceName": "epfid2d1_104",
      "SequenceVariant": [
        "SK",
        "SS"
],
      "SeriesDescription": "func_task-s01e18b",
      "SeriesNumber": 17,
      "SeriesTime": "140627.906000",
      "SliceLocation": -66.704510135246,
      "SliceThickness": 2.0,
      "SmallestImagePixelValue": 0,
      "SoftwareVersions": "syngo MR E11",
      "SpacingBetweenSlices": 2.0000000008197,
      "SpecificCharacterSet": "ISO_IR 100",
      "StudyID": "1",
      "StudyTime": "130615.734000",
      "TransmitCoilName": "Body",
      "VariableFlipAngleFlag": "N",
      "WindowCenterWidthExplanation": "Algo1",
      "dBdt": 0.0},
    "slices": {}
  },
  "time": {
    "samples": {
      "AcquisitionNumber": [1, 2, 3, 4, 5, 6, 7, 8, 9, 10, 11, 12, 13, 14, 15, 16, 17, 18, 19, 20, 21, 22, 23, 24, 25, 26, 27, 28, 29, 30, 31, 32, 33, 34, 35, 36, 37, 38, 39, 40, 41, 42, 43, 44, 45, 46, 47, 48, 49, 50, 51, 52, 53, 54, 55, 56, 57, 58, 59, 60, 61, 62, 63, 64, 65, 66, 67, 68, 69, 70, 71, 72, 73, 74, 75, 76, 77, 78, 79, 80, 81, 82, 83, 84, 85, 86, 87, 88, 89, 90, 91, 92, 93, 94, 95, 96, 97, 98, 99, 100, 101, 102, 103, 104, 105, 106, 107, 108, 109, 110, 111, 112, 113, 114, 115, 116, 117, 118, 119, 120, 121, 122, 123, 124, 125, 126, 127, 128, 129, 130, 131, 132, 133, 134, 135, 136, 137, 138, 139, 140, 141, 142, 143, 144, 145, 146, 147, 148, 149, 150, 151, 152, 153, 154, 155, 156, 157, 158, 159, 160, 161, 162, 163, 164, 165, 166, 167, 168, 169, 170, 171, 172, 173, 174, 175, 176, 177, 178, 179, 180, 181, 182, 183, 184, 185, 186, 187, 188, 189, 190, 191, 192, 193, 194, 195, 196, 197, 198, 199, 200, 201, 202, 203, 204, 205, 206, 207, 208, 209, 210, 211, 212, 213, 214, 215, 216, 217, 218, 219, 220, 221, 222, 223, 224, 225, 226, 227, 228, 229, 230, 231, 232, 233, 234, 235, 236, 237, 238, 239, 240, 241, 242, 243, 244, 245, 246, 247, 248, 249, 250, 251, 252, 253, 254, 255, 256, 257, 258, 259, 260, 261, 262, 263, 264, 265, 266, 267, 268, 269, 270, 271, 272, 273, 274, 275, 276, 277, 278, 279, 280, 281, 282, 283, 284, 285, 286, 287, 288, 289, 290, 291, 292, 293, 294, 295, 296, 297, 298, 299, 300, 301, 302, 303, 304, 305, 306, 307, 308, 309, 310, 311, 312, 313, 314, 315, 316, 317, 318, 319, 320, 321, 322, 323, 324, 325, 326, 327, 328, 329, 330, 331, 332, 333, 334, 335, 336, 337, 338, 339, 340, 341, 342, 343, 344, 345, 346, 347, 348, 349, 350, 351, 352, 353, 354, 355, 356, 357, 358, 359, 360, 361, 362, 363, 364, 365, 366, 367, 368, 369, 370, 371, 372, 373, 374, 375, 376, 377, 378, 379, 380, 381, 382, 383, 384, 385, 386, 387, 388, 389, 390, 391, 392, 393, 394, 395, 396, 397, 398, 399, 400, 401, 402, 403, 404, 405, 406, 407, 408, 409, 410, 411, 412, 413, 414, 415, 416, 417, 418, 419, 420, 421, 422, 423, 424, 425, 426, 427, 428, 429, 430, 431, 432, 433, 434, 435, 436, 437, 438, 439, 440, 441, 442, 443, 444, 445, 446, 447, 448, 449, 450, 451, 452, 453, 454, 455, 456, 457, 458, 459, 460, 461, 462, 463, 464, 465, 466, 467, 468, 469, 470, 471, 472, 473, 474, 475, 476, 477, 478, 479, 480, 481, 482, 483, 484, 485, 486, 487, 488, 489, 490, 491, 492, 493, 494, 495, 496, 497],
      "AcquisitionTime": ["140510.235000", "140511.725000", "140513.215000", "140514.705000", "140516.195000", "140517.685000", "140519.175000", "140520.665000", "140522.155000", "140523.645000", "140525.135000", "140526.625000", "140528.115000", "140529.605000", "140531.095000", "140532.585000", "140534.075000", "140535.565000", "140537.055000", "140538.545000", "140540.035000", "140541.525000", "140543.015000", "140544.505000", "140545.995000", "140547.485000", "140548.975000", "140550.465000", "140551.955000", "140553.445000", "140554.935000", "140556.425000", "140557.915000", "140559.405000", "140600.895000", "140602.385000", "140603.875000", "140605.365000", "140606.855000", "140608.345000", "140609.835000", "140611.325000", "140612.815000", "140614.305000", "140615.795000", "140617.285000", "140618.775000", "140620.265000", "140621.755000", "140623.245000", "140624.735000", "140626.225000", "140627.715000", "140629.205000", "140630.695000", "140632.185000", "140633.675000", "140635.165000", "140636.655000", "140638.145000", "140639.635000", "140641.125000", "140642.615000", "140644.105000", "140645.595000", "140647.085000", "140648.575000", "140650.065000", "140651.555000", "140653.045000", "140654.535000", "140656.025000", "140657.515000", "140659.005000", "140700.495000", "140701.985000", "140703.475000", "140704.965000", "140706.455000", "140707.945000", "140709.435000", "140710.925000", "140712.415000", "140713.905000", "140715.395000", "140716.885000", "140718.375000", "140719.865000", "140721.355000", "140722.845000", "140724.335000", "140725.825000", "140727.315000", "140728.805000", "140730.295000", "140731.785000", "140733.275000", "140734.765000", "140736.255000", "140737.745000", "140739.235000", "140740.725000", "140742.215000", "140743.705000", "140745.195000", "140746.685000", "140748.175000", "140749.665000", "140751.155000", "140752.645000", "140754.135000", "140755.625000", "140757.115000", "140758.605000", "140800.095000", "140801.585000", "140803.075000", "140804.565000", "140806.055000", "140807.545000", "140809.035000", "140810.525000", "140812.015000", "140813.505000", "140814.995000", "140816.485000", "140817.975000", "140819.465000", "140820.955000", "140822.445000", "140823.935000", "140825.425000", "140826.915000", "140828.405000", "140829.895000", "140831.385000", "140832.875000", "140834.365000", "140835.855000", "140837.345000", "140838.835000", "140840.325000", "140841.815000", "140843.305000", "140844.795000", "140846.285000", "140847.775000", "140849.265000", "140850.755000", "140852.245000", "140853.735000", "140855.225000", "140856.715000", "140858.205000", "140859.695000", "140901.185000", "140902.675000", "140904.165000", "140905.655000", "140907.145000", "140908.635000", "140910.125000", "140911.615000", "140913.105000", "140914.595000", "140916.085000", "140917.575000", "140919.065000", "140920.555000", "140922.045000", "140923.535000", "140925.025000", "140926.515000", "140928.005000", "140929.495000", "140930.985000", "140932.475000", "140933.965000", "140935.455000", "140936.945000", "140938.435000", "140939.925000", "140941.415000", "140942.905000", "140944.395000", "140945.885000", "140947.375000", "140948.865000", "140950.355000", "140951.845000", "140953.335000", "140954.825000", "140956.315000", "140957.805000", "140959.295000", "141000.785000", "141002.275000", "141003.765000", "141005.255000", "141006.745000", "141008.235000", "141009.725000", "141011.215000", "141012.705000", "141014.195000", "141015.685000", "141017.175000", "141018.665000", "141020.155000", "141021.645000", "141023.135000", "141024.625000", "141026.115000", "141027.605000", "141029.095000", "141030.585000", "141032.075000", "141033.565000", "141035.055000", "141036.545000", "141038.035000", "141039.525000", "141041.015000", "141042.505000", "141043.995000", "141045.485000", "141046.975000", "141048.465000", "141049.955000", "141051.445000", "141052.935000", "141054.425000", "141055.915000", "141057.405000", "141058.895000", "141100.385000", "141101.875000", "141103.365000", "141104.855000", "141106.345000", "141107.835000", "141109.325000", "141110.815000", "141112.305000", "141113.795000", "141115.285000", "141116.775000", "141118.265000", "141119.755000", "141121.245000", "141122.735000", "141124.225000", "141125.715000", "141127.205000", "141128.695000", "141130.185000", "141131.675000", "141133.165000", "141134.655000", "141136.145000", "141137.635000", "141139.125000", "141140.615000", "141142.105000", "141143.595000", "141145.085000", "141146.575000", "141148.065000", "141149.555000", "141151.045000", "141152.535000", "141154.025000", "141155.515000", "141157.005000", "141158.495000", "141159.985000", "141201.475000", "141202.965000", "141204.455000", "141205.945000", "141207.435000", "141208.925000", "141210.415000", "141211.905000", "141213.395000", "141214.885000", "141216.375000", "141217.865000", "141219.355000", "141220.845000", "141222.335000", "141223.825000", "141225.315000", "141226.805000", "141228.295000", "141229.785000", "141231.275000", "141232.765000", "141234.255000", "141235.745000", "141237.235000", "141238.725000", "141240.215000", "141241.705000", "141243.195000", "141244.685000", "141246.175000", "141247.665000", "141249.155000", "141250.645000", "141252.135000", "141253.625000", "141255.115000", "141256.605000", "141258.095000", "141259.585000", "141301.075000", "141302.565000", "141304.055000", "141305.545000", "141307.035000", "141308.525000", "141310.015000", "141311.505000", "141312.995000", "141314.485000", "141315.975000", "141317.465000", "141318.955000", "141320.445000", "141321.935000", "141323.425000", "141324.915000", "141326.405000", "141327.895000", "141329.385000", "141330.875000", "141332.365000", "141333.855000", "141335.345000", "141336.835000", "141338.325000", "141339.815000", "141341.305000", "141342.795000", "141344.285000", "141345.775000", "141347.265000", "141348.755000", "141350.245000", "141351.735000", "141353.225000", "141354.715000", "141356.205000", "141357.695000", "141359.185000", "141400.675000", "141402.165000", "141403.655000", "141405.145000", "141406.635000", "141408.125000", "141409.615000", "141411.105000", "141412.595000", "141414.085000", "141415.575000", "141417.065000", "141418.555000", "141420.045000", "141421.535000", "141423.025000", "141424.515000", "141426.005000", "141427.495000", "141428.985000", "141430.475000", "141431.965000", "141433.455000", "141434.945000", "141436.435000", "141437.925000", "141439.415000", "141440.905000", "141442.395000", "141443.885000", "141445.375000", "141446.865000", "141448.355000", "141449.845000", "141451.335000", "141452.825000", "141454.315000", "141455.805000", "141457.295000", "141458.785000", "141500.275000", "141501.765000", "141503.255000", "141504.745000", "141506.235000", "141507.725000", "141509.215000", "141510.705000", "141512.195000", "141513.685000", "141515.175000", "141516.665000", "141518.155000", "141519.645000", "141521.135000", "141522.625000", "141524.115000", "141525.605000", "141527.095000", "141528.585000", "141530.075000", "141531.565000", "141533.055000", "141534.545000", "141536.035000", "141537.525000", "141539.015000", "141540.505000", "141541.995000", "141543.485000", "141544.975000", "141546.465000", "141547.955000", "141549.445000", "141550.935000", "141552.425000", "141553.915000", "141555.405000", "141556.895000", "141558.385000", "141559.875000", "141601.365000", "141602.855000", "141604.345000", "141605.835000", "141607.325000", "141608.815000", "141610.305000", "141611.795000", "141613.285000", "141614.775000", "141616.265000", "141617.755000", "141619.245000", "141620.735000", "141622.225000", "141623.715000", "141625.205000", "141626.695000", "141628.185000", "141629.675000", "141631.165000", "141632.655000", "141634.145000", "141635.635000", "141637.125000", "141638.615000", "141640.105000", "141641.595000", "141643.085000", "141644.575000", "141646.065000", "141647.555000", "141649.045000", "141650.535000", "141652.025000", "141653.515000", "141655.005000", "141656.495000", "141657.985000", "141659.475000", "141700.965000", "141702.455000", "141703.945000", "141705.435000", "141706.925000", "141708.415000", "141709.905000", "141711.395000", "141712.885000", "141714.375000", "141715.865000", "141717.355000", "141718.845000", "141720.335000", "141721.825000", "141723.315000", "141724.805000", "141726.295000", "141727.785000", "141729.275000"],
      "ContentTime": ["140627.909000", "140627.913000", "140627.916000", "140627.918000", "140627.921000", "140627.924000", "140627.927000", "140627.930000", "140627.933000", "140627.939000", "140627.942000", "140627.945000", "140627.947000", "140627.950000", "140627.953000", "140627.956000", "140627.959000", "140627.961000", "140627.964000", "140627.967000", "140627.970000", "140647.877000", "140647.880000", "140647.883000", "140647.885000", "140647.900000", "140647.903000", "140647.906000", "140647.908000", "140647.911000", "140647.914000", "140647.917000", "140647.920000", "140647.922000", "140647.925000", "140647.928000", "140647.931000", "140647.933000", "140647.936000", "140647.939000", "140647.942000", "140707.876000", "140707.879000", "140707.882000", "140707.884000", "140707.887000", "140707.890000", "140707.893000", "140707.896000", "140707.898000", "140707.901000", "140707.904000", "140707.907000", "140707.910000", "140707.913000", "140707.915000", "140707.918000", "140707.921000", "140707.924000", "140707.927000", "140707.929000", "140707.940000", "140727.876000", "140727.879000", "140727.882000", "140727.884000", "140727.887000", "140727.890000", "140727.893000", "140727.895000", "140727.898000", "140727.901000", "140727.904000", "140727.907000", "140727.909000", "140727.912000", "140727.915000", "140727.918000", "140727.921000", "140727.924000", "140727.926000", "140727.929000", "140747.876000", "140747.879000", "140747.882000", "140747.884000", "140747.887000", "140747.890000", "140747.893000", "140747.896000", "140747.898000", "140747.901000", "140747.904000", "140747.907000", "140747.910000", "140747.912000", "140747.915000", "140747.918000", "140747.921000", "140747.924000", "140747.927000", "140747.930000", "140827.877000", "140827.880000", "140827.883000", "140827.885000", "140827.888000", "140827.891000", "140827.894000", "140827.897000", "140827.900000", "140827.902000", "140827.905000", "140827.908000", "140827.911000", "140827.914000", "140827.916000", "140827.919000", "140827.922000", "140827.925000", "140827.928000", "140827.931000", "140827.933000", "140827.936000", "140827.939000", "140827.942000", "140827.945000", "140827.947000", "140827.950000", "140827.953000", "140827.956000", "140827.959000", "140907.877000", "140907.880000", "140907.883000", "140907.886000", "140907.888000", "140907.891000", "140907.894000", "140907.897000", "140907.900000", "140907.903000", "140907.906000", "140907.909000", "140907.912000", "140907.915000", "140907.918000", "140907.920000", "140907.923000", "140907.926000", "140907.929000", "140907.932000", "140907.935000", "140907.937000", "140907.940000", "140907.943000", "140907.946000", "140907.949000", "140947.876000", "140947.879000", "140947.882000", "140947.884000", "140947.887000", "140947.890000", "140947.893000", "140947.896000", "140947.898000", "140947.901000", "140947.904000", "140947.907000", "140947.910000", "140947.912000", "140947.915000", "140947.918000", "140947.921000", "140947.924000", "140947.927000", "140947.930000", "140947.932000", "140947.935000", "140947.938000", "140947.941000", "140947.944000", "140947.946000", "140947.949000", "141027.877000", "141027.880000", "141027.883000", "141027.885000", "141027.888000", "141027.891000", "141027.894000", "141027.897000", "141027.900000", "141027.902000", "141027.905000", "141027.908000", "141027.911000", "141027.914000", "141027.916000", "141027.919000", "141027.922000", "141027.925000", "141027.928000", "141027.931000", "141027.933000", "141027.936000", "141027.939000", "141027.942000", "141027.944000", "141027.947000", "141027.950000", "141107.877000", "141107.880000", "141107.883000", "141107.886000", "141107.888000", "141107.891000", "141107.894000", "141107.897000", "141107.907000", "141107.910000", "141107.913000", "141107.916000", "141107.919000", "141107.922000", "141107.925000", "141107.943000", "141107.946000", "141107.948000", "141107.951000", "141107.954000", "141107.957000", "141107.960000", "141107.963000", "141107.966000", "141107.968000", "141107.971000", "141107.974000", "141147.876000", "141147.879000", "141147.882000", "141147.885000", "141147.887000", "141147.890000", "141147.893000", "141147.896000", "141147.899000", "141147.901000", "141147.904000", "141147.907000", "141147.910000", "141147.913000", "141147.916000", "141147.919000", "141147.921000", "141147.924000", "141147.927000", "141147.930000", "141147.933000", "141147.935000", "141147.938000", "141147.941000", "141147.944000", "141147.947000", "141147.949000", "141207.876000", "141207.879000", "141207.882000", "141207.885000", "141207.887000", "141207.890000", "141207.893000", "141207.896000", "141207.899000", "141207.901000", "141207.904000", "141207.907000", "141207.910000", "141247.877000", "141247.880000", "141247.883000", "141247.886000", "141247.888000", "141247.891000", "141247.894000", "141247.897000", "141247.900000", "141247.902000", "141247.905000", "141247.908000", "141247.911000", "141247.914000", "141247.916000", "141247.919000", "141247.922000", "141247.925000", "141247.928000", "141247.931000", "141247.933000", "141247.936000", "141247.939000", "141247.942000", "141247.945000", "141247.947000", "141247.950000", "141327.877000", "141327.880000", "141327.883000", "141327.886000", "141327.888000", "141327.891000", "141327.894000", "141327.897000", "141327.900000", "141327.902000", "141327.905000", "141327.908000", "141327.911000", "141327.914000", "141327.916000", "141327.919000", "141327.922000", "141327.925000", "141327.928000", "141327.931000", "141327.933000", "141327.936000", "141327.939000", "141327.942000", "141327.945000", "141327.947000", "141327.950000", "141407.876000", "141407.879000", "141407.882000", "141407.885000", "141407.888000", "141407.890000", "141407.893000", "141407.896000", "141407.899000", "141407.902000", "141407.904000", "141407.907000", "141407.910000", "141407.913000", "141407.916000", "141407.919000", "141407.921000", "141407.924000", "141407.927000", "141407.930000", "141407.933000", "141407.936000", "141407.938000", "141407.941000", "141407.944000", "141407.947000", "141407.950000", "141447.876000", "141447.879000", "141447.882000", "141447.885000", "141447.887000", "141447.890000", "141447.893000", "141447.896000", "141447.899000", "141447.901000", "141447.904000", "141447.907000", "141447.910000", "141447.912000", "141447.915000", "141447.918000", "141447.921000", "141447.924000", "141447.926000", "141447.929000", "141447.932000", "141447.935000", "141447.938000", "141447.940000", "141447.943000", "141447.946000", "141447.949000", "141527.877000", "141527.880000", "141527.883000", "141527.886000", "141527.889000", "141527.891000", "141527.894000", "141527.897000", "141527.900000", "141527.903000", "141527.906000", "141527.908000", "141527.911000", "141527.914000", "141527.917000", "141527.934000", "141527.937000", "141527.940000", "141527.943000", "141527.946000", "141527.949000", "141527.951000", "141527.954000", "141527.957000", "141527.960000", "141527.962000", "141527.965000", "141607.876000", "141607.879000", "141607.882000", "141607.885000", "141607.887000", "141607.890000", "141607.893000", "141607.896000", "141607.899000", "141607.901000", "141607.904000", "141607.907000", "141607.910000", "141607.913000", "141607.915000", "141607.918000", "141607.921000", "141607.924000", "141607.927000", "141607.930000", "141607.932000", "141607.935000", "141607.938000", "141607.941000", "141607.944000", "141607.947000", "141647.876000", "141647.879000", "141647.882000", "141647.885000", "141647.887000", "141647.890000", "141647.898000", "141647.901000", "141647.904000", "141647.907000", "141647.909000", "141647.912000", "141647.915000", "141647.918000", "141647.921000", "141647.923000", "141647.926000", "141647.929000", "141647.932000", "141647.935000", "141647.937000", "141647.940000", "141647.943000", "141647.946000", "141647.949000", "141647.952000", "141647.954000", "141727.877000", "141727.880000", "141727.883000", "141727.886000", "141727.889000", "141727.892000", "141727.894000", "141727.897000", "141727.900000", "141727.903000", "141727.906000", "141727.908000", "141727.911000", "141727.914000", "141727.917000", "141727.920000", "141727.922000", "141727.925000", "141727.928000", "141727.931000", "141727.934000", "141727.936000", "141727.939000", "141727.942000", "141727.945000", "141727.948000", "141727.950000", "141731.573000", "141731.576000", "141731.579000"],
