{
  "AcquisitionMatrixPE": 104,
  "AcquisitionNumber": 1,
  "AcquisitionTime": "09:19:40.090000",
  "BandwidthPerPixelPhaseEncode": 17.17,
  "BaseResolution": 104,
  "BodyPartExamined": "BRAIN",
  "CoilString": "HC1-7;NC1_2",
  "ConsistencyInfo": "N4_VE11C_LATEST_20160120",
  "ConversionSoftware": "dcm2niix",
  "ConversionSoftwareVersion": "v1.0.20200427",
  "DerivedVendorReportedEchoSpacing": 0.000560011,
  "DeviceSerialNumber": "167006",
  "DwellTime": 2.1e-06,
  "EchoTime": 0.037,
  "EchoTrainLength": 104,
  "EffectiveEchoSpacing": 0.000560011,
  "FlipAngle": 52,
  "ImageComments": "Unaliased_MB4_PE3_LB",
  "ImageOrientationPatientDICOM": [0.999987, 0.00300061, 0.00419941, -0.000523605, 0.86842, -0.49583],
  "ImageType": [
    "ORIGINAL",
    "PRIMARY",
    "M",
    "MB",
    "ND",
    "MOSAIC"
],
  "ImagingFrequency": 123.259,
  "InPlanePhaseEncodingDirectionDICOM": "COL",
  "InstitutionAddress": "Chemin_Queen-Mary_4565_Montreal_District_CA_H3W_1W5",
  "InstitutionName": "IUGM",
  "InstitutionalDepartmentName": "Department",
  "MRAcquisitionType": "2D",
  "MagneticFieldStrength": 3,
  "Manufacturer": "Siemens",
  "ManufacturersModelName": "Prisma_fit",
  "Modality": "MR",
  "MultibandAccelerationFactor": 4,
  "PartialFourier": 1,
  "PatientPosition": "HFS",
  "PercentPhaseFOV": 100,
  "PercentSampling": 100,
  "PhaseEncodingDirection": "j",
  "PhaseEncodingSteps": 104,
  "PhaseResolution": 1,
  "PixelBandwidth": 2290,
  "ProcedureStepDescription": "video_friends",
  "ProtocolName": "func_task-friends-s03e05a",
  "PulseSequenceDetails": "%CustomerSeq%_cmrr_mbep2d_bold",
  "ReceiveCoilActiveElements": "HC1-7;NC1,2",
  "ReceiveCoilName": "HeadNeck_64",
  "ReconMatrixPE": 104,
  "RepetitionTime": 1.49,
  "SAR": 0.0350719,
  "ScanOptions": "FS",
  "ScanningSequence": "EP",
  "SequenceName": "epfid2d1_104",
  "SequenceVariant": "SK_SS",
  "SeriesDescription": "func_task-friends-s03e05a",
  "SeriesNumber": 9,
  "ShimSetting": [621, -7216, -8857, 430, -17, -208, 24, -6],
  "SliceThickness": 2,
  "SliceTiming": [0, 0.7825, 0.0975, 0.88, 0.195, 0.98, 0.2925, 1.0775, 0.39, 1.175, 0.49, 1.2725, 0.5875, 1.37, 0.685, 0, 0.7825, 0.0975, 0.88, 0.195, 0.98, 0.2925, 1.0775, 0.39, 1.175, 0.49, 1.2725, 0.5875, 1.37, 0.685, 0, 0.7825, 0.0975, 0.88, 0.195, 0.98, 0.2925, 1.0775, 0.39, 1.175, 0.49, 1.2725, 0.5875, 1.37, 0.685, 0, 0.7825, 0.0975, 0.88, 0.195, 0.98, 0.2925, 1.0775, 0.39, 1.175, 0.49, 1.2725, 0.5875, 1.37, 0.685],
  "SoftwareVersions": "syngo_MR_E11",
  "SpacingBetweenSlices": 2,
  "StationName": "MRC35049",
  "TaskName": "s03e05a",
  "TotalReadoutTime": 0.0576811,
  "TxRefAmp": 247.279,
  "WipMemBlock": "c008c4bb-26ce-4834-b668-eeb296e108a4||Sequence: R016 ve11c/master r/e634e98; Dec 19 2017 11:00:25 by eja",
  "dcmmeta_affine": [
    [-1.9999734163284302, -0.0010472108842805028, 0.010269274935126305, 102.25348663330078],
    [-0.006001218222081661, 1.7368394136428833, -0.9916414618492126, -59.30030059814453],
    [0.008398812264204025, 0.9916590452194214, 1.7368193864822388, -93.80950164794922],
    [0.0, 0.0, 0.0, 1.0]
],
  "dcmmeta_reorient_transform": [
    [0.0, -1.0, 0.0, 103.0],
    [1.0, 0.0, 0.0, 0.0],
    [0.0, 0.0, 1.0, 0.0],
    [0.0, 0.0, 0.0, 1.0]
],
  "dcmmeta_shape": [104, 104, 60, 484],
  "dcmmeta_slice_dim": 2,
  "dcmmeta_version": 0.6,
  "global": {
    "const": {
      "AcquisitionMatrix": [104, 0, 0, 104],
      "AngioFlag": "N",
      "BitsAllocated": 16,
      "BitsStored": 16,
      "BodyPartExamined": "BRAIN",
      "Columns": 832,
      "EchoNumbers": 1,
      "EchoTime": 37.0,
      "EchoTrainLength": 104,
      "FlipAngle": 52.0,
      "HighBit": 15,
      "ImageOrientationPatient": [0.99998668057833, 0.00300060900743, 0.00419940609004, -0.0005236054695, 0.86841971800335, -0.49582952637],
      "ImagePositionPatient": [-829.75474588535, -753.98815799582, 366.23811096405],
      "ImageType": [
        "ORIGINAL",
        "PRIMARY",
        "M",
        "MB",
        "ND",
        "MOSAIC"
],
      "ImagedNucleus": "1H",
      "ImagingFrequency": 123.259054,
      "InPlanePhaseEncodingDirection": "COL",
      "MRAcquisitionType": "2D",
      "MagneticFieldStrength": 3.0,
      "Manufacturer": "SIEMENS",
      "ManufacturerModelName": "Prisma_fit",
      "Modality": "MR",
      "NumberOfAverages": 1.0,
      "NumberOfPhaseEncodingSteps": 104,
      "PercentPhaseFieldOfView": 100.0,
      "PercentSampling": 100.0,
      "PerformedProcedureStepStartTime": "090713.045000",
      "PhotometricInterpretation": "MONOCHROME2",
      "PixelBandwidth": 2290.0,
      "PixelRepresentation": 0,
      "PixelSpacing": [2.0, 2.0],
      "ProtocolName": "func_task-friends-s03e05a",
      "RepetitionTime": 1490.0,
      "Rows": 832,
      "SAR": 0.0350719326319,
      "SamplesPerPixel": 1,
      "ScanOptions": "FS",
      "ScanningSequence": "EP",
      "SequenceName": "epfid2d1_104",
      "SequenceVariant": [
        "SK",
        "SS"
],
      "SeriesDescription": "func_task-friends-s03e05a",
      "SeriesNumber": 9,
      "SeriesTime": "092110.944000",
      "SliceLocation": -51.5377277664,
      "SliceThickness": 2.0,
      "SmallestImagePixelValue": 0,
      "SoftwareVersions": "syngo MR E11",
      "SpacingBetweenSlices": 1.9999999852672,
      "SpecificCharacterSet": "ISO_IR 100",
      "StudyID": "1",
      "StudyTime": "090712.908000",
      "TransmitCoilName": "Body",
      "VariableFlipAngleFlag": "N",
      "WindowCenterWidthExplanation": "Algo1",
      "dBdt": 0.0},
    "slices": {}
  },
  "time": {
    "samples": {
      "AcquisitionNumber": [1, 2, 3, 4, 5, 6, 7, 8, 9, 10, 11, 12, 13, 14, 15, 16, 17, 18, 19, 20, 21, 22, 23, 24, 25, 26, 27, 28, 29, 30, 31, 32, 33, 34, 35, 36, 37, 38, 39, 40, 41, 42, 43, 44, 45, 46, 47, 48, 49, 50, 51, 52, 53, 54, 55, 56, 57, 58, 59, 60, 61, 62, 63, 64, 65, 66, 67, 68, 69, 70, 71, 72, 73, 74, 75, 76, 77, 78, 79, 80, 81, 82, 83, 84, 85, 86, 87, 88, 89, 90, 91, 92, 93, 94, 95, 96, 97, 98, 99, 100, 101, 102, 103, 104, 105, 106, 107, 108, 109, 110, 111, 112, 113, 114, 115, 116, 117, 118, 119, 120, 121, 122, 123, 124, 125, 126, 127, 128, 129, 130, 131, 132, 133, 134, 135, 136, 137, 138, 139, 140, 141, 142, 143, 144, 145, 146, 147, 148, 149, 150, 151, 152, 153, 154, 155, 156, 157, 158, 159, 160, 161, 162, 163, 164, 165, 166, 167, 168, 169, 170, 171, 172, 173, 174, 175, 176, 177, 178, 179, 180, 181, 182, 183, 184, 185, 186, 187, 188, 189, 190, 191, 192, 193, 194, 195, 196, 197, 198, 199, 200, 201, 202, 203, 204, 205, 206, 207, 208, 209, 210, 211, 212, 213, 214, 215, 216, 217, 218, 219, 220, 221, 222, 223, 224, 225, 226, 227, 228, 229, 230, 231, 232, 233, 234, 235, 236, 237, 238, 239, 240, 241, 242, 243, 244, 245, 246, 247, 248, 249, 250, 251, 252, 253, 254, 255, 256, 257, 258, 259, 260, 261, 262, 263, 264, 265, 266, 267, 268, 269, 270, 271, 272, 273, 274, 275, 276, 277, 278, 279, 280, 281, 282, 283, 284, 285, 286, 287, 288, 289, 290, 291, 292, 293, 294, 295, 296, 297, 298, 299, 300, 301, 302, 303, 304, 305, 306, 307, 308, 309, 310, 311, 312, 313, 314, 315, 316, 317, 318, 319, 320, 321, 322, 323, 324, 325, 326, 327, 328, 329, 330, 331, 332, 333, 334, 335, 336, 337, 338, 339, 340, 341, 342, 343, 344, 345, 346, 347, 348, 349, 350, 351, 352, 353, 354, 355, 356, 357, 358, 359, 360, 361, 362, 363, 364, 365, 366, 367, 368, 369, 370, 371, 372, 373, 374, 375, 376, 377, 378, 379, 380, 381, 382, 383, 384, 385, 386, 387, 388, 389, 390, 391, 392, 393, 394, 395, 396, 397, 398, 399, 400, 401, 402, 403, 404, 405, 406, 407, 408, 409, 410, 411, 412, 413, 414, 415, 416, 417, 418, 419, 420, 421, 422, 423, 424, 425, 426, 427, 428, 429, 430, 431, 432, 433, 434, 435, 436, 437, 438, 439, 440, 441, 442, 443, 444, 445, 446, 447, 448, 449, 450, 451, 452, 453, 454, 455, 456, 457, 458, 459, 460, 461, 462, 463, 464, 465, 466, 467, 468, 469, 470, 471, 472, 473, 474, 475, 476, 477, 478, 479, 480, 481, 482, 483, 484],
      "AcquisitionTime": ["091940.090000", "091941.580000", "091943.070000", "091944.560000", "091946.050000", "091947.540000", "091949.030000", "091950.520000", "091952.010000", "091953.500000", "091954.990000", "091956.480000", "091957.970000", "091959.460000", "092000.950000", "092002.440000", "092003.930000", "092005.420000", "092006.910000", "092008.400000", "092009.890000", "092011.380000", "092012.870000", "092014.360000", "092015.850000", "092017.340000", "092018.830000", "092020.320000", "092021.810000", "092023.300000", "092024.790000", "092026.280000", "092027.770000", "092029.260000", "092030.750000", "092032.240000", "092033.730000", "092035.220000", "092036.710000", "092038.200000", "092039.690000", "092041.180000", "092042.670000", "092044.160000", "092045.650000", "092047.140000", "092048.630000", "092050.120000", "092051.610000", "092053.100000", "092054.590000", "092056.080000", "092057.570000", "092059.060000", "092100.550000", "092102.040000", "092103.530000", "092105.020000", "092106.510000", "092108.000000", "092109.490000", "092110.980000", "092112.470000", "092113.960000", "092115.450000", "092116.940000", "092118.430000", "092119.920000", "092121.410000", "092122.900000", "092124.390000", "092125.880000", "092127.370000", "092128.860000", "092130.350000", "092131.840000", "092133.330000", "092134.820000", "092136.310000", "092137.800000", "092139.290000", "092140.780000", "092142.270000", "092143.760000", "092145.250000", "092146.740000", "092148.230000", "092149.720000", "092151.210000", "092152.700000", "092154.190000", "092155.680000", "092157.170000", "092158.660000", "092200.150000", "092201.640000", "092203.130000", "092204.620000", "092206.110000", "092207.600000", "092209.090000", "092210.580000", "092212.070000", "092213.560000", "092215.050000", "092216.540000", "092218.030000", "092219.520000", "092221.010000", "092222.500000", "092223.990000", "092225.480000", "092226.970000", "092228.460000", "092229.950000", "092231.440000", "092232.930000", "092234.420000", "092235.910000", "092237.400000", "092238.890000", "092240.380000", "092241.870000", "092243.360000", "092244.850000", "092246.340000", "092247.830000", "092249.320000", "092250.810000", "092252.300000", "092253.790000", "092255.280000", "092256.770000", "092258.260000", "092259.750000", "092301.240000", "092302.730000", "092304.220000", "092305.710000", "092307.200000", "092308.690000", "092310.180000", "092311.670000", "092313.160000", "092314.650000", "092316.140000", "092317.630000", "092319.120000", "092320.610000", "092322.100000", "092323.590000", "092325.080000", "092326.570000", "092328.060000", "092329.550000", "092331.040000", "092332.530000", "092334.020000", "092335.510000", "092337.000000", "092338.490000", "092339.980000", "092341.470000", "092342.960000", "092344.450000", "092345.940000", "092347.430000", "092348.920000", "092350.410000", "092351.900000", "092353.390000", "092354.880000", "092356.370000", "092357.860000", "092359.350000", "092400.840000", "092402.330000", "092403.820000", "092405.310000", "092406.800000", "092408.290000", "092409.780000", "092411.270000", "092412.760000", "092414.250000", "092415.740000", "092417.230000", "092418.720000", "092420.210000", "092421.700000", "092423.190000", "092424.680000", "092426.170000", "092427.660000", "092429.150000", "092430.640000", "092432.130000", "092433.620000", "092435.110000", "092436.600000", "092438.090000", "092439.580000", "092441.070000", "092442.560000", "092444.050000", "092445.540000", "092447.030000", "092448.520000", "092450.010000", "092451.500000", "092452.990000", "092454.480000", "092455.970000", "092457.460000", "092458.950000", "092500.440000", "092501.930000", "092503.420000", "092504.910000", "092506.400000", "092507.890000", "092509.380000", "092510.870000", "092512.360000", "092513.850000", "092515.340000", "092516.830000", "092518.320000", "092519.810000", "092521.300000", "092522.790000", "092524.280000", "092525.770000", "092527.260000", "092528.750000", "092530.240000", "092531.730000", "092533.220000", "092534.710000", "092536.200000", "092537.690000", "092539.180000", "092540.670000", "092542.160000", "092543.650000", "092545.140000", "092546.630000", "092548.120000", "092549.610000", "092551.100000", "092552.590000", "092554.080000", "092555.570000", "092557.060000", "092558.550000", "092600.040000", "092601.530000", "092603.020000", "092604.510000", "092606.000000", "092607.490000", "092608.980000", "092610.470000", "092611.960000", "092613.450000", "092614.940000", "092616.430000", "092617.920000", "092619.410000", "092620.900000", "092622.390000", "092623.880000", "092625.370000", "092626.860000", "092628.350000", "092629.840000", "092631.330000", "092632.820000", "092634.310000", "092635.800000", "092637.290000", "092638.780000", "092640.270000", "092641.760000", "092643.250000", "092644.740000", "092646.230000", "092647.720000", "092649.210000", "092650.700000", "092652.190000", "092653.680000", "092655.170000", "092656.660000", "092658.150000", "092659.640000", "092701.130000", "092702.620000", "092704.110000", "092705.600000", "092707.090000", "092708.580000", "092710.070000", "092711.560000", "092713.050000", "092714.540000", "092716.030000", "092717.520000", "092719.010000", "092720.500000", "092721.990000", "092723.480000", "092724.970000", "092726.460000", "092727.950000", "092729.440000", "092730.930000", "092732.420000", "092733.910000", "092735.400000", "092736.890000", "092738.380000", "092739.870000", "092741.360000", "092742.850000", "092744.340000", "092745.830000", "092747.320000", "092748.810000", "092750.300000", "092751.790000", "092753.280000", "092754.770000", "092756.260000", "092757.750000", "092759.240000", "092800.730000", "092802.220000", "092803.710000", "092805.200000", "092806.690000", "092808.180000", "092809.670000", "092811.160000", "092812.650000", "092814.140000", "092815.630000", "092817.120000", "092818.610000", "092820.100000", "092821.590000", "092823.080000", "092824.570000", "092826.060000", "092827.550000", "092829.040000", "092830.530000", "092832.020000", "092833.510000", "092835.000000", "092836.490000", "092837.980000", "092839.470000", "092840.960000", "092842.450000", "092843.940000", "092845.430000", "092846.920000", "092848.410000", "092849.900000", "092851.390000", "092852.880000", "092854.370000", "092855.860000", "092857.350000", "092858.840000", "092900.330000", "092901.820000", "092903.310000", "092904.800000", "092906.290000", "092907.780000", "092909.270000", "092910.760000", "092912.250000", "092913.740000", "092915.230000", "092916.720000", "092918.210000", "092919.700000", "092921.190000", "092922.680000", "092924.170000", "092925.660000", "092927.150000", "092928.640000", "092930.130000", "092931.620000", "092933.110000", "092934.600000", "092936.090000", "092937.580000", "092939.070000", "092940.560000", "092942.050000", "092943.540000", "092945.030000", "092946.520000", "092948.010000", "092949.500000", "092950.990000", "092952.480000", "092953.970000", "092955.460000", "092956.950000", "092958.440000", "092959.930000", "093001.420000", "093002.910000", "093004.400000", "093005.890000", "093007.380000", "093008.870000", "093010.360000", "093011.850000", "093013.340000", "093014.830000", "093016.320000", "093017.810000", "093019.300000", "093020.790000", "093022.280000", "093023.770000", "093025.260000", "093026.750000", "093028.240000", "093029.730000", "093031.220000", "093032.710000", "093034.200000", "093035.690000", "093037.180000", "093038.670000", "093040.160000", "093041.650000", "093043.140000", "093044.630000", "093046.120000", "093047.610000", "093049.100000", "093050.590000", "093052.080000", "093053.570000", "093055.060000", "093056.550000", "093058.040000", "093059.530000", "093101.020000", "093102.510000", "093104.000000", "093105.490000", "093106.980000", "093108.470000", "093109.960000", "093111.450000", "093112.940000", "093114.430000", "093115.920000", "093117.410000", "093118.900000", "093120.390000", "093121.880000", "093123.370000", "093124.860000", "093126.350000", "093127.840000", "093129.330000", "093130.820000", "093132.310000", "093133.800000", "093135.290000", "093136.780000", "093138.270000", "093139.760000"],
      "ContentTime": ["092110.947000", "092110.950000", "092110.953000", "092110.956000", "092110.959000", "092110.962000", "092110.965000", "092110.968000", "092110.971000", "092110.976000", "092110.979000", "092110.982000", "092110.985000", "092110.988000", "092110.990000", "092110.994000", "092110.996000", "092111.000000", "092111.003000", "092150.905000", "092150.908000", "092150.911000", "092150.914000", "092150.917000", "092150.920000", "092150.923000", "092150.926000", "092150.929000", "092150.933000", "092150.935000", "092150.938000", "092150.941000", "092150.944000", "092150.947000", "092150.950000", "092150.953000", "092150.956000", "092150.959000", "092150.962000", "092150.965000", "092150.968000", "092150.971000", "092150.974000", "092150.976000", "092150.979000", "092150.982000", "092150.985000", "092150.991000", "092150.994000", "092150.997000", "092151.001000", "092151.004000", "092151.008000", "092151.010000", "092151.013000", "092151.016000", "092151.019000", "092151.022000", "092210.905000", "092210.908000", "092210.911000", "092210.914000", "092210.917000", "092210.920000", "092210.923000", "092210.926000", "092210.929000", "092210.932000", "092210.935000", "092210.938000", "092210.941000", "092210.944000", "092210.947000", "092210.950000", "092210.953000", "092210.956000", "092210.960000", "092210.963000", "092230.904000", "092230.907000", "092230.910000", "092230.913000", "092230.916000", "092230.919000", "092230.922000", "092230.925000", "092230.928000", "092230.931000", "092230.934000", "092230.937000", "092230.939000", "092230.942000", "092230.945000", "092230.948000", "092230.951000", "092230.954000", "092230.957000", "092230.960000", "092250.904000", "092250.907000", "092250.910000", "092250.913000", "092250.916000", "092250.919000", "092250.922000", "092250.925000", "092250.928000", "092250.931000", "092250.934000", "092250.937000", "092250.940000", "092250.943000", "092250.945000", "092250.948000", "092250.951000", "092250.954000", "092250.957000", "092250.960000", "092250.963000", "092310.905000", "092310.908000", "092310.911000", "092310.914000", "092310.917000", "092310.920000", "092310.923000", "092310.926000", "092310.929000", "092310.932000", "092310.935000", "092310.938000", "092310.941000", "092310.943000", "092310.955000", "092310.958000", "092310.961000", "092310.963000", "092310.967000", "092310.970000", "092350.905000", "092350.908000", "092350.911000", "092350.914000", "092350.917000", "092350.920000", "092350.923000", "092350.926000", "092350.929000", "092350.932000", "092350.935000", "092350.938000", "092350.940000", "092350.943000", "092350.946000", "092350.949000", "092350.952000", "092350.955000", "092350.958000", "092350.961000", "092350.964000", "092350.967000", "092350.970000", "092350.973000", "092350.976000", "092350.979000", "092350.982000", "092350.985000", "092430.905000", "092430.908000", "092430.911000", "092430.914000", "092430.917000", "092430.920000", "092430.923000", "092430.926000", "092430.929000", "092430.932000", "092430.935000", "092430.938000", "092430.941000", "092430.944000", "092430.947000", "092430.950000", "092430.952000", "092430.955000", "092430.958000", "092430.961000", "092430.964000", "092430.967000", "092430.970000", "092430.973000", "092430.976000", "092430.979000", "092430.982000", "092510.904000", "092510.907000", "092510.910000", "092510.913000", "092510.922000", "092510.925000", "092510.928000", "092510.930000", "092510.933000", "092510.936000", "092510.939000", "092510.942000", "092510.945000", "092510.948000", "092510.951000", "092510.954000", "092510.957000", "092510.960000", "092510.963000", "092510.966000", "092510.969000", "092510.972000", "092510.975000", "092510.978000", "092510.981000", "092510.984000", "092510.987000", "092550.905000", "092550.908000", "092550.911000", "092550.914000", "092550.917000", "092550.920000", "092550.923000", "092550.926000", "092550.929000", "092550.932000", "092550.935000", "092550.938000", "092550.941000", "092550.944000", "092550.947000", "092550.950000", "092550.953000", "092550.956000", "092550.959000", "092550.962000", "092550.965000", "092550.968000", "092550.971000", "092550.974000", "092550.976000", "092550.979000", "092550.982000", "092630.905000", "092630.908000", "092630.911000", "092630.914000", "092630.917000", "092630.920000", "092630.923000", "092630.926000", "092630.929000", "092630.932000", "092630.935000", "092630.938000", "092630.941000", "092630.944000", "092630.947000", "092630.950000", "092630.953000", "092630.956000", "092630.959000", "092630.962000", "092630.965000", "092630.968000", "092630.971000", "092630.974000", "092630.977000", "092630.979000", "092630.982000", "092710.904000", "092710.907000", "092710.910000", "092710.914000", "092710.916000", "092710.919000", "092710.922000", "092710.925000", "092710.928000", "092710.931000", "092710.934000", "092710.937000", "092710.940000", "092710.943000", "092710.946000", "092710.949000", "092710.952000", "092710.955000", "092710.958000", "092710.961000", "092710.964000", "092710.967000", "092710.970000", "092710.973000", "092710.976000", "092710.979000", "092750.905000", "092750.908000", "092750.911000", "092750.914000", "092750.917000", "092750.920000", "092750.923000", "092750.926000", "092750.929000", "092750.932000", "092750.935000", "092750.938000", "092750.941000", "092750.944000", "092750.946000", "092750.950000", "092750.953000", "092750.955000", "092750.958000", "092750.961000", "092750.976000", "092750.979000", "092750.982000", "092750.985000", "092750.988000", "092751.006000", "092751.009000", "092830.905000", "092830.908000", "092830.911000", "092830.914000", "092830.917000", "092830.920000", "092830.923000", "092830.926000", "092830.929000", "092830.932000", "092830.935000", "092830.938000", "092830.941000", "092830.944000", "092830.947000", "092830.950000", "092830.953000", "092830.956000", "092830.959000", "092830.962000", "092830.965000", "092830.967000", "092830.970000", "092830.973000", "092830.976000", "092830.979000", "092830.982000", "092910.905000", "092910.908000", "092910.911000", "092910.914000", "092910.917000", "092910.920000", "092910.923000", "092910.926000", "092910.929000", "092910.932000", "092910.935000", "092910.938000", "092910.941000", "092910.944000", "092910.947000", "092910.950000", "092910.952000", "092910.956000", "092910.958000", "092910.961000", "092910.964000", "092910.967000", "092910.970000", "092910.973000", "092910.976000", "092910.979000", "092910.982000", "092950.904000", "092950.907000", "092950.910000", "092950.913000", "092950.916000", "092950.919000", "092950.922000", "092950.925000", "092950.928000", "092950.931000", "092950.934000", "092950.937000", "092950.940000", "092950.943000", "092950.946000", "092950.948000", "092950.952000", "092950.954000", "092950.957000", "092950.960000", "092950.963000", "092950.966000", "092950.969000", "092950.972000", "092950.975000", "092950.978000", "092950.981000", "093030.905000", "093030.908000", "093030.911000", "093030.914000", "093030.917000", "093030.920000", "093030.923000", "093030.926000", "093030.929000", "093030.932000", "093030.935000", "093030.938000", "093030.941000", "093030.944000", "093030.947000", "093030.950000", "093030.953000", "093030.955000", "093030.958000", "093030.961000", "093030.964000", "093030.967000", "093030.970000", "093030.973000", "093030.976000", "093030.979000", "093030.982000", "093110.905000", "093110.908000", "093110.911000", "093110.914000", "093110.917000", "093110.920000", "093110.923000", "093110.926000", "093110.929000", "093110.932000", "093110.935000", "093110.938000", "093110.941000", "093110.944000", "093110.947000", "093110.950000", "093110.953000", "093110.956000", "093110.959000", "093110.962000", "093110.965000", "093110.968000", "093110.971000", "093110.974000", "093110.977000", "093110.980000", "093110.983000", "093142.225000", "093142.228000", "093142.232000", "093142.235000", "093142.238000", "093142.241000", "093142.244000", "093142.247000", "093142.250000", "093142.253000", "093142.256000", "093142.259000", "093142.262000", "093142.265000", "093142.268000", "093142.271000", "093142.274000", "093142.277000", "093142.280000", "093142.283000", "093142.286000"],
