{
  "AcquisitionMatrixPE": 104,
  "AcquisitionNumber": 1,
  "AcquisitionTime": "10:09:14.387500",
  "BandwidthPerPixelPhaseEncode": 17.17,
  "BaseResolution": 104,
  "BodyPartExamined": "BRAIN",
  "CoilString": "HC1-7;NC1_2",
  "ConsistencyInfo": "N4_VE11C_LATEST_20160120",
  "ConversionSoftware": "dcm2niix",
  "ConversionSoftwareVersion": "v1.0.20200427",
  "DerivedVendorReportedEchoSpacing": 0.000560011,
  "DeviceSerialNumber": "167006",
  "DwellTime": 2.1e-06,
  "EchoTime": 0.037,
  "EchoTrainLength": 104,
  "EffectiveEchoSpacing": 0.000560011,
  "FlipAngle": 52,
  "ImageComments": "Unaliased_MB4_PE3_LB",
  "ImageOrientationPatientDICOM": [0.999987, 0.00300061, 0.00419941, -0.000523605, 0.86842, -0.49583],
  "ImageType": [
    "ORIGINAL",
    "PRIMARY",
    "M",
    "MB",
    "ND",
    "MOSAIC"
],
  "ImagingFrequency": 123.259,
  "InPlanePhaseEncodingDirectionDICOM": "COL",
  "InstitutionAddress": "Chemin_Queen-Mary_4565_Montreal_District_CA_H3W_1W5",
  "InstitutionName": "IUGM",
  "InstitutionalDepartmentName": "Department",
  "MRAcquisitionType": "2D",
  "MagneticFieldStrength": 3,
  "Manufacturer": "Siemens",
  "ManufacturersModelName": "Prisma_fit",
  "Modality": "MR",
  "MultibandAccelerationFactor": 4,
  "PartialFourier": 1,
  "PatientPosition": "HFS",
  "PercentPhaseFOV": 100,
  "PercentSampling": 100,
  "PhaseEncodingDirection": "j",
  "PhaseEncodingSteps": 104,
  "PhaseResolution": 1,
  "PixelBandwidth": 2290,
  "ProcedureStepDescription": "video_friends",
  "ProtocolName": "func_task-friends-s03e07a",
  "PulseSequenceDetails": "%CustomerSeq%_cmrr_mbep2d_bold",
  "ReceiveCoilActiveElements": "HC1-7;NC1,2",
  "ReceiveCoilName": "HeadNeck_64",
  "ReconMatrixPE": 104,
  "RepetitionTime": 1.49,
  "SAR": 0.0350667,
  "ScanOptions": "FS",
  "ScanningSequence": "EP",
  "SequenceName": "epfid2d1_104",
  "SequenceVariant": "SK_SS",
  "SeriesDescription": "func_task-friends-s03e07a",
  "SeriesNumber": 17,
  "ShimSetting": [621, -7216, -8857, 430, -17, -208, 24, -6],
  "SliceThickness": 2,
  "SliceTiming": [0, 0.785, 0.0975, 0.8825, 0.1975, 0.98, 0.295, 1.0775, 0.3925, 1.1775, 0.49, 1.275, 0.5875, 1.3725, 0.6875, 0, 0.785, 0.0975, 0.8825, 0.1975, 0.98, 0.295, 1.0775, 0.3925, 1.1775, 0.49, 1.275, 0.5875, 1.3725, 0.6875, 0, 0.785, 0.0975, 0.8825, 0.1975, 0.98, 0.295, 1.0775, 0.3925, 1.1775, 0.49, 1.275, 0.5875, 1.3725, 0.6875, 0, 0.785, 0.0975, 0.8825, 0.1975, 0.98, 0.295, 1.0775, 0.3925, 1.1775, 0.49, 1.275, 0.5875, 1.3725, 0.6875],
  "SoftwareVersions": "syngo_MR_E11",
  "SpacingBetweenSlices": 2,
  "StationName": "MRC35049",
  "TaskName": "s03e07a",
  "TotalReadoutTime": 0.0576811,
  "TxRefAmp": 247.279,
  "WipMemBlock": "54726bb9-374a-480e-a567-0ed3ff318769||Sequence: R016 ve11c/master r/e634e98; Dec 19 2017 11:00:25 by eja",
  "dcmmeta_affine": [
    [-1.9999734163284302, -0.0010472108842805028, 0.010269274935126305, 102.25348663330078],
    [-0.006001218222081661, 1.7368394136428833, -0.9916414618492126, -59.30030059814453],
    [0.008398812264204025, 0.9916590452194214, 1.7368193864822388, -93.80950164794922],
    [0.0, 0.0, 0.0, 1.0]
],
  "dcmmeta_reorient_transform": [
    [0.0, -1.0, 0.0, 103.0],
    [1.0, 0.0, 0.0, 0.0],
    [0.0, 0.0, 1.0, 0.0],
    [0.0, 0.0, 0.0, 1.0]
],
  "dcmmeta_shape": [104, 104, 60, 467],
  "dcmmeta_slice_dim": 2,
  "dcmmeta_version": 0.6,
  "global": {
    "const": {
      "AcquisitionMatrix": [104, 0, 0, 104],
      "AngioFlag": "N",
      "BitsAllocated": 16,
      "BitsStored": 16,
      "BodyPartExamined": "BRAIN",
      "Columns": 832,
      "EchoNumbers": 1,
      "EchoTime": 37.0,
      "EchoTrainLength": 104,
      "FlipAngle": 52.0,
      "HighBit": 15,
      "ImageOrientationPatient": [0.99998668057833, 0.00300060900743, 0.00419940609004, -0.0005236054695, 0.86841971800335, -0.49582952637],
      "ImagePositionPatient": [-829.75474588535, -753.98815799582, 366.23811096405],
      "ImageType": [
        "ORIGINAL",
        "PRIMARY",
        "M",
        "MB",
        "ND",
        "MOSAIC"
],
      "ImagedNucleus": "1H",
      "ImagingFrequency": 123.259066,
      "InPlanePhaseEncodingDirection": "COL",
      "MRAcquisitionType": "2D",
      "MagneticFieldStrength": 3.0,
      "Manufacturer": "SIEMENS",
      "ManufacturerModelName": "Prisma_fit",
      "Modality": "MR",
      "NumberOfAverages": 1.0,
      "NumberOfPhaseEncodingSteps": 104,
      "PercentPhaseFieldOfView": 100.0,
      "PercentSampling": 100.0,
      "PerformedProcedureStepStartTime": "090713.045000",
      "PhotometricInterpretation": "MONOCHROME2",
      "PixelBandwidth": 2290.0,
      "PixelRepresentation": 0,
      "PixelSpacing": [2.0, 2.0],
      "ProtocolName": "func_task-friends-s03e07a",
      "RepetitionTime": 1490.0,
      "Rows": 832,
      "SAR": 0.03506672087002,
      "SamplesPerPixel": 1,
      "ScanOptions": "FS",
      "ScanningSequence": "EP",
      "SequenceName": "epfid2d1_104",
      "SequenceVariant": [
        "SK",
        "SS"
],
      "SeriesDescription": "func_task-friends-s03e07a",
      "SeriesNumber": 17,
      "SeriesTime": "101020.662000",
      "SliceLocation": -51.5377277664,
      "SliceThickness": 2.0,
      "SmallestImagePixelValue": 0,
      "SoftwareVersions": "syngo MR E11",
      "SpacingBetweenSlices": 1.9999999852672,
      "SpecificCharacterSet": "ISO_IR 100",
      "StudyID": "1",
      "StudyTime": "090712.908000",
      "TransmitCoilName": "Body",
      "VariableFlipAngleFlag": "N",
      "WindowCenterWidthExplanation": "Algo1",
      "dBdt": 0.0},
    "slices": {}
  },
  "time": {
    "samples": {
      "AcquisitionNumber": [1, 2, 3, 4, 5, 6, 7, 8, 9, 10, 11, 12, 13, 14, 15, 16, 17, 18, 19, 20, 21, 22, 23, 24, 25, 26, 27, 28, 29, 30, 31, 32, 33, 34, 35, 36, 37, 38, 39, 40, 41, 42, 43, 44, 45, 46, 47, 48, 49, 50, 51, 52, 53, 54, 55, 56, 57, 58, 59, 60, 61, 62, 63, 64, 65, 66, 67, 68, 69, 70, 71, 72, 73, 74, 75, 76, 77, 78, 79, 80, 81, 82, 83, 84, 85, 86, 87, 88, 89, 90, 91, 92, 93, 94, 95, 96, 97, 98, 99, 100, 101, 102, 103, 104, 105, 106, 107, 108, 109, 110, 111, 112, 113, 114, 115, 116, 117, 118, 119, 120, 121, 122, 123, 124, 125, 126, 127, 128, 129, 130, 131, 132, 133, 134, 135, 136, 137, 138, 139, 140, 141, 142, 143, 144, 145, 146, 147, 148, 149, 150, 151, 152, 153, 154, 155, 156, 157, 158, 159, 160, 161, 162, 163, 164, 165, 166, 167, 168, 169, 170, 171, 172, 173, 174, 175, 176, 177, 178, 179, 180, 181, 182, 183, 184, 185, 186, 187, 188, 189, 190, 191, 192, 193, 194, 195, 196, 197, 198, 199, 200, 201, 202, 203, 204, 205, 206, 207, 208, 209, 210, 211, 212, 213, 214, 215, 216, 217, 218, 219, 220, 221, 222, 223, 224, 225, 226, 227, 228, 229, 230, 231, 232, 233, 234, 235, 236, 237, 238, 239, 240, 241, 242, 243, 244, 245, 246, 247, 248, 249, 250, 251, 252, 253, 254, 255, 256, 257, 258, 259, 260, 261, 262, 263, 264, 265, 266, 267, 268, 269, 270, 271, 272, 273, 274, 275, 276, 277, 278, 279, 280, 281, 282, 283, 284, 285, 286, 287, 288, 289, 290, 291, 292, 293, 294, 295, 296, 297, 298, 299, 300, 301, 302, 303, 304, 305, 306, 307, 308, 309, 310, 311, 312, 313, 314, 315, 316, 317, 318, 319, 320, 321, 322, 323, 324, 325, 326, 327, 328, 329, 330, 331, 332, 333, 334, 335, 336, 337, 338, 339, 340, 341, 342, 343, 344, 345, 346, 347, 348, 349, 350, 351, 352, 353, 354, 355, 356, 357, 358, 359, 360, 361, 362, 363, 364, 365, 366, 367, 368, 369, 370, 371, 372, 373, 374, 375, 376, 377, 378, 379, 380, 381, 382, 383, 384, 385, 386, 387, 388, 389, 390, 391, 392, 393, 394, 395, 396, 397, 398, 399, 400, 401, 402, 403, 404, 405, 406, 407, 408, 409, 410, 411, 412, 413, 414, 415, 416, 417, 418, 419, 420, 421, 422, 423, 424, 425, 426, 427, 428, 429, 430, 431, 432, 433, 434, 435, 436, 437, 438, 439, 440, 441, 442, 443, 444, 445, 446, 447, 448, 449, 450, 451, 452, 453, 454, 455, 456, 457, 458, 459, 460, 461, 462, 463, 464, 465, 466, 467],
      "AcquisitionTime": ["100914.387500", "100915.877500", "100917.367500", "100918.857500", "100920.347500", "100921.837500", "100923.327500", "100924.817500", "100926.307500", "100927.797500", "100929.287500", "100930.777500", "100932.267500", "100933.757500", "100935.247500", "100936.737500", "100938.227500", "100939.717500", "100941.207500", "100942.697500", "100944.187500", "100945.677500", "100947.167500", "100948.657500", "100950.147500", "100951.637500", "100953.127500", "100954.617500", "100956.107500", "100957.597500", "100959.087500", "101000.577500", "101002.067500", "101003.557500", "101005.047500", "101006.537500", "101008.027500", "101009.517500", "101011.007500", "101012.497500", "101013.987500", "101015.477500", "101016.967500", "101018.457500", "101019.947500", "101021.437500", "101022.927500", "101024.417500", "101025.907500", "101027.397500", "101028.887500", "101030.377500", "101031.867500", "101033.357500", "101034.847500", "101036.337500", "101037.827500", "101039.317500", "101040.807500", "101042.297500", "101043.787500", "101045.277500", "101046.767500", "101048.257500", "101049.747500", "101051.237500", "101052.727500", "101054.217500", "101055.707500", "101057.197500", "101058.687500", "101100.177500", "101101.667500", "101103.157500", "101104.647500", "101106.137500", "101107.627500", "101109.117500", "101110.607500", "101112.097500", "101113.587500", "101115.077500", "101116.567500", "101118.057500", "101119.547500", "101121.037500", "101122.527500", "101124.017500", "101125.507500", "101126.997500", "101128.487500", "101129.977500", "101131.467500", "101132.957500", "101134.447500", "101135.937500", "101137.427500", "101138.917500", "101140.407500", "101141.897500", "101143.387500", "101144.877500", "101146.367500", "101147.857500", "101149.347500", "101150.837500", "101152.327500", "101153.817500", "101155.307500", "101156.797500", "101158.287500", "101159.777500", "101201.267500", "101202.757500", "101204.247500", "101205.737500", "101207.227500", "101208.717500", "101210.207500", "101211.697500", "101213.187500", "101214.677500", "101216.167500", "101217.657500", "101219.147500", "101220.637500", "101222.127500", "101223.617500", "101225.107500", "101226.597500", "101228.087500", "101229.577500", "101231.067500", "101232.557500", "101234.047500", "101235.537500", "101237.027500", "101238.517500", "101240.007500", "101241.497500", "101242.987500", "101244.477500", "101245.967500", "101247.457500", "101248.947500", "101250.437500", "101251.927500", "101253.417500", "101254.907500", "101256.397500", "101257.887500", "101259.377500", "101300.867500", "101302.357500", "101303.847500", "101305.337500", "101306.827500", "101308.317500", "101309.807500", "101311.297500", "101312.787500", "101314.277500", "101315.767500", "101317.257500", "101318.747500", "101320.237500", "101321.727500", "101323.217500", "101324.707500", "101326.197500", "101327.687500", "101329.177500", "101330.667500", "101332.157500", "101333.647500", "101335.137500", "101336.627500", "101338.117500", "101339.607500", "101341.097500", "101342.587500", "101344.077500", "101345.567500", "101347.057500", "101348.547500", "101350.037500", "101351.527500", "101353.017500", "101354.507500", "101355.997500", "101357.487500", "101358.977500", "101400.467500", "101401.957500", "101403.447500", "101404.937500", "101406.427500", "101407.917500", "101409.407500", "101410.897500", "101412.387500", "101413.877500", "101415.367500", "101416.857500", "101418.347500", "101419.837500", "101421.327500", "101422.817500", "101424.307500", "101425.797500", "101427.287500", "101428.777500", "101430.267500", "101431.757500", "101433.247500", "101434.737500", "101436.227500", "101437.717500", "101439.207500", "101440.697500", "101442.187500", "101443.677500", "101445.167500", "101446.657500", "101448.147500", "101449.637500", "101451.127500", "101452.617500", "101454.107500", "101455.597500", "101457.087500", "101458.577500", "101500.067500", "101501.557500", "101503.047500", "101504.537500", "101506.027500", "101507.517500", "101509.007500", "101510.497500", "101511.987500", "101513.477500", "101514.967500", "101516.457500", "101517.947500", "101519.437500", "101520.927500", "101522.417500", "101523.907500", "101525.397500", "101526.887500", "101528.377500", "101529.867500", "101531.357500", "101532.847500", "101534.337500", "101535.827500", "101537.317500", "101538.807500", "101540.297500", "101541.787500", "101543.277500", "101544.767500", "101546.257500", "101547.747500", "101549.237500", "101550.727500", "101552.217500", "101553.707500", "101555.197500", "101556.687500", "101558.177500", "101559.667500", "101601.157500", "101602.647500", "101604.137500", "101605.627500", "101607.117500", "101608.607500", "101610.097500", "101611.587500", "101613.077500", "101614.567500", "101616.057500", "101617.547500", "101619.037500", "101620.527500", "101622.017500", "101623.507500", "101624.997500", "101626.487500", "101627.977500", "101629.467500", "101630.957500", "101632.447500", "101633.937500", "101635.427500", "101636.917500", "101638.407500", "101639.897500", "101641.387500", "101642.877500", "101644.367500", "101645.857500", "101647.347500", "101648.837500", "101650.327500", "101651.817500", "101653.307500", "101654.797500", "101656.287500", "101657.777500", "101659.267500", "101700.757500", "101702.247500", "101703.737500", "101705.227500", "101706.717500", "101708.207500", "101709.697500", "101711.187500", "101712.677500", "101714.167500", "101715.657500", "101717.147500", "101718.637500", "101720.127500", "101721.617500", "101723.107500", "101724.597500", "101726.087500", "101727.577500", "101729.067500", "101730.557500", "101732.047500", "101733.537500", "101735.027500", "101736.517500", "101738.007500", "101739.497500", "101740.987500", "101742.477500", "101743.967500", "101745.457500", "101746.947500", "101748.437500", "101749.927500", "101751.417500", "101752.907500", "101754.397500", "101755.887500", "101757.377500", "101758.867500", "101800.357500", "101801.847500", "101803.337500", "101804.827500", "101806.317500", "101807.807500", "101809.297500", "101810.787500", "101812.277500", "101813.767500", "101815.257500", "101816.747500", "101818.237500", "101819.727500", "101821.217500", "101822.707500", "101824.197500", "101825.687500", "101827.177500", "101828.667500", "101830.157500", "101831.647500", "101833.137500", "101834.627500", "101836.117500", "101837.607500", "101839.097500", "101840.587500", "101842.077500", "101843.567500", "101845.057500", "101846.547500", "101848.037500", "101849.527500", "101851.017500", "101852.507500", "101853.997500", "101855.487500", "101856.977500", "101858.467500", "101859.957500", "101901.447500", "101902.937500", "101904.427500", "101905.917500", "101907.407500", "101908.897500", "101910.387500", "101911.877500", "101913.367500", "101914.857500", "101916.347500", "101917.837500", "101919.327500", "101920.817500", "101922.307500", "101923.797500", "101925.287500", "101926.777500", "101928.267500", "101929.757500", "101931.247500", "101932.737500", "101934.227500", "101935.717500", "101937.207500", "101938.697500", "101940.187500", "101941.677500", "101943.167500", "101944.657500", "101946.147500", "101947.637500", "101949.127500", "101950.617500", "101952.107500", "101953.597500", "101955.087500", "101956.577500", "101958.067500", "101959.557500", "102001.047500", "102002.537500", "102004.027500", "102005.517500", "102007.007500", "102008.497500", "102009.987500", "102011.477500", "102012.967500", "102014.457500", "102015.947500", "102017.437500", "102018.927500", "102020.417500", "102021.907500", "102023.397500", "102024.887500", "102026.377500", "102027.867500", "102029.357500", "102030.847500", "102032.337500", "102033.827500", "102035.317500", "102036.807500", "102038.297500", "102039.787500", "102041.277500", "102042.767500", "102044.257500", "102045.747500", "102047.237500", "102048.727500"],
      "ContentTime": ["101020.664000", "101020.675000", "101020.677000", "101020.681000", "101020.684000", "101020.686000", "101020.692000", "101020.695000", "101020.698000", "101020.701000", "101020.703000", "101020.707000", "101020.709000", "101040.636000", "101040.639000", "101040.642000", "101040.645000", "101040.648000", "101040.651000", "101040.654000", "101040.657000", "101040.661000", "101040.664000", "101040.667000", "101040.670000", "101040.673000", "101040.676000", "101040.679000", "101040.682000", "101040.685000", "101040.697000", "101040.700000", "101040.703000", "101100.636000", "101100.639000", "101100.642000", "101100.645000", "101100.648000", "101100.673000", "101100.676000", "101100.679000", "101100.682000", "101100.685000", "101100.688000", "101100.691000", "101100.694000", "101100.703000", "101100.706000", "101100.709000", "101100.711000", "101100.715000", "101100.718000", "101100.720000", "101120.636000", "101120.639000", "101120.642000", "101120.645000", "101120.648000", "101120.651000", "101120.654000", "101120.657000", "101120.660000", "101120.663000", "101120.666000", "101120.669000", "101120.672000", "101120.675000", "101120.678000", "101120.680000", "101120.683000", "101120.687000", "101120.689000", "101120.692000", "101140.636000", "101140.639000", "101140.642000", "101140.645000", "101140.648000", "101140.651000", "101140.654000", "101140.657000", "101140.660000", "101140.663000", "101140.666000", "101140.669000", "101140.672000", "101140.675000", "101140.677000", "101140.681000", "101140.683000", "101140.686000", "101140.689000", "101140.692000", "101140.695000", "101220.636000", "101220.639000", "101220.642000", "101220.645000", "101220.648000", "101220.651000", "101220.654000", "101220.657000", "101220.660000", "101220.663000", "101220.666000", "101220.669000", "101220.672000", "101220.675000", "101220.678000", "101220.681000", "101220.684000", "101220.687000", "101220.690000", "101220.693000", "101220.696000", "101220.699000", "101220.702000", "101220.705000", "101220.708000", "101220.710000", "101220.714000", "101220.716000", "101220.719000", "101220.722000", "101300.637000", "101300.640000", "101300.643000", "101300.646000", "101300.649000", "101300.652000", "101300.655000", "101300.658000", "101300.661000", "101300.664000", "101300.667000", "101300.670000", "101300.673000", "101300.676000", "101300.679000", "101300.682000", "101300.685000", "101300.688000", "101300.691000", "101300.694000", "101300.697000", "101300.700000", "101300.703000", "101300.706000", "101300.709000", "101300.711000", "101300.715000", "101340.636000", "101340.639000", "101340.642000", "101340.645000", "101340.648000", "101340.651000", "101340.654000", "101340.657000", "101340.660000", "101340.663000", "101340.666000", "101340.669000", "101340.672000", "101340.675000", "101340.678000", "101340.681000", "101340.684000", "101340.687000", "101340.690000", "101340.693000", "101340.696000", "101340.699000", "101340.709000", "101340.712000", "101340.715000", "101340.718000", "101340.721000", "101420.636000", "101420.639000", "101420.642000", "101420.645000", "101420.648000", "101420.651000", "101420.654000", "101420.657000", "101420.660000", "101420.663000", "101420.666000", "101420.669000", "101420.672000", "101420.675000", "101420.678000", "101420.681000", "101420.684000", "101420.687000", "101420.690000", "101420.693000", "101420.696000", "101420.699000", "101420.702000", "101420.705000", "101420.708000", "101420.711000", "101420.714000", "101500.636000", "101500.639000", "101500.642000", "101500.646000", "101500.648000", "101500.651000", "101500.654000", "101500.657000", "101500.660000", "101500.663000", "101500.666000", "101500.669000", "101500.672000", "101500.675000", "101500.678000", "101500.681000", "101500.684000", "101500.687000", "101500.690000", "101500.693000", "101500.696000", "101500.699000", "101500.702000", "101500.705000", "101500.708000", "101500.711000", "101500.714000", "101540.636000", "101540.639000", "101540.653000", "101540.657000", "101540.660000", "101540.663000", "101540.666000", "101540.669000", "101540.672000", "101540.675000", "101540.678000", "101540.681000", "101540.684000", "101540.687000", "101540.690000", "101540.693000", "101540.696000", "101540.699000", "101540.702000", "101540.704000", "101540.708000", "101540.710000", "101540.713000", "101540.716000", "101540.720000", "101540.723000", "101620.636000", "101620.639000", "101620.642000", "101620.645000", "101620.648000", "101620.651000", "101620.654000", "101620.657000", "101620.660000", "101620.663000", "101620.666000", "101620.669000", "101620.672000", "101620.675000", "101620.678000", "101620.681000", "101620.684000", "101620.687000", "101620.690000", "101620.693000", "101620.696000", "101620.699000", "101620.702000", "101620.705000", "101620.708000", "101620.711000", "101620.713000", "101700.636000", "101700.639000", "101700.642000", "101700.645000", "101700.648000", "101700.651000", "101700.654000", "101700.658000", "101700.661000", "101700.664000", "101700.666000", "101700.670000", "101700.673000", "101700.675000", "101700.678000", "101700.682000", "101700.685000", "101700.687000", "101700.690000", "101700.693000", "101700.696000", "101700.699000", "101700.702000", "101700.705000", "101700.708000", "101700.711000", "101700.714000", "101740.637000", "101740.640000", "101740.643000", "101740.646000", "101740.649000", "101740.652000", "101740.655000", "101740.658000", "101740.661000", "101740.664000", "101740.667000", "101740.670000", "101740.673000", "101740.676000", "101740.679000", "101740.682000", "101740.685000", "101740.688000", "101740.691000", "101740.694000", "101740.697000", "101740.700000", "101740.703000", "101740.706000", "101740.709000", "101740.712000", "101740.715000", "101820.636000", "101820.639000", "101820.642000", "101820.645000", "101820.648000", "101820.651000", "101820.654000", "101820.657000", "101820.660000", "101820.663000", "101820.666000", "101820.669000", "101820.672000", "101820.675000", "101820.678000", "101820.681000", "101820.684000", "101820.687000", "101820.690000", "101820.693000", "101820.696000", "101820.699000", "101820.702000", "101820.705000", "101820.708000", "101820.711000", "101820.714000", "101900.636000", "101900.639000", "101900.642000", "101900.645000", "101900.648000", "101900.651000", "101900.654000", "101900.657000", "101900.660000", "101900.663000", "101900.666000", "101900.669000", "101900.672000", "101900.675000", "101900.678000", "101900.681000", "101900.684000", "101900.687000", "101900.690000", "101900.693000", "101900.696000", "101900.699000", "101900.702000", "101900.705000", "101900.708000", "101900.711000", "101900.714000", "101940.636000", "101940.639000", "101940.642000", "101940.645000", "101940.648000", "101940.651000", "101940.654000", "101940.657000", "101940.660000", "101940.663000", "101940.666000", "101940.669000", "101940.683000", "101940.686000", "101940.689000", "101940.692000", "101940.695000", "101940.698000", "101940.701000", "101940.704000", "101940.707000", "101940.710000", "101940.713000", "101940.716000", "101940.719000", "101940.722000", "101940.725000", "102000.637000", "102000.640000", "102000.643000", "102000.646000", "102000.649000", "102000.652000", "102000.655000", "102000.658000", "102000.661000", "102000.664000", "102000.667000", "102000.670000", "102000.673000", "102040.636000", "102040.639000", "102040.642000", "102040.645000", "102040.648000", "102040.651000", "102040.654000", "102040.657000", "102040.660000", "102040.663000", "102040.666000", "102040.669000", "102040.672000", "102040.675000", "102040.678000", "102040.681000", "102040.684000", "102040.687000", "102040.690000", "102040.693000", "102040.696000", "102040.699000", "102040.702000", "102040.705000", "102040.708000", "102040.711000", "102040.714000", "102050.700000", "102050.703000", "102050.706000", "102050.709000", "102050.712000", "102050.715000", "102050.719000"],
