{
  "AcquisitionMatrixPE": 104,
  "AcquisitionNumber": 1,
  "AcquisitionTime": "09:56:57.282500",
  "BandwidthPerPixelPhaseEncode": 17.17,
  "BaseResolution": 104,
  "BodyPartExamined": "BRAIN",
  "CoilString": "HC1-7;NC1_2",
  "ConsistencyInfo": "N4_VE11C_LATEST_20160120",
  "ConversionSoftware": "dcm2niix",
  "ConversionSoftwareVersion": "v1.0.20200427",
  "DerivedVendorReportedEchoSpacing": 0.000560011,
  "DeviceSerialNumber": "167006",
  "DwellTime": 2.1e-06,
  "EchoTime": 0.037,
  "EchoTrainLength": 104,
  "EffectiveEchoSpacing": 0.000560011,
  "FlipAngle": 52,
  "ImageComments": "Unaliased_MB4_PE3_LB",
  "ImageOrientationPatientDICOM": [0.999987, 0.00300061, 0.00419941, -0.000523605, 0.86842, -0.49583],
  "ImageType": [
    "ORIGINAL",
    "PRIMARY",
    "M",
    "MB",
    "ND",
    "MOSAIC"
],
  "ImagingFrequency": 123.259,
  "InPlanePhaseEncodingDirectionDICOM": "COL",
  "InstitutionAddress": "Chemin_Queen-Mary_4565_Montreal_District_CA_H3W_1W5",
  "InstitutionName": "IUGM",
  "InstitutionalDepartmentName": "Department",
  "MRAcquisitionType": "2D",
  "MagneticFieldStrength": 3,
  "Manufacturer": "Siemens",
  "ManufacturersModelName": "Prisma_fit",
  "Modality": "MR",
  "MultibandAccelerationFactor": 4,
  "PartialFourier": 1,
  "PatientPosition": "HFS",
  "PercentPhaseFOV": 100,
  "PercentSampling": 100,
  "PhaseEncodingDirection": "j",
  "PhaseEncodingSteps": 104,
  "PhaseResolution": 1,
  "PixelBandwidth": 2290,
  "ProcedureStepDescription": "video_friends",
  "ProtocolName": "func_task-friends-s03e06b",
  "PulseSequenceDetails": "%CustomerSeq%_cmrr_mbep2d_bold",
  "ReceiveCoilActiveElements": "HC1-7;NC1,2",
  "ReceiveCoilName": "HeadNeck_64",
  "ReconMatrixPE": 104,
  "RepetitionTime": 1.49,
  "SAR": 0.0350677,
  "ScanOptions": "FS",
  "ScanningSequence": "EP",
  "SequenceName": "epfid2d1_104",
  "SequenceVariant": "SK_SS",
  "SeriesDescription": "func_task-friends-s03e06b",
  "SeriesNumber": 15,
  "ShimSetting": [621, -7216, -8857, 430, -17, -208, 24, -6],
  "SliceThickness": 2,
  "SliceTiming": [0, 0.7825, 0.0975, 0.8825, 0.195, 0.98, 0.2925, 1.0775, 0.3925, 1.175, 0.49, 1.2725, 0.5875, 1.3725, 0.685, 0, 0.7825, 0.0975, 0.8825, 0.195, 0.98, 0.2925, 1.0775, 0.3925, 1.175, 0.49, 1.2725, 0.5875, 1.3725, 0.685, 0, 0.7825, 0.0975, 0.8825, 0.195, 0.98, 0.2925, 1.0775, 0.3925, 1.175, 0.49, 1.2725, 0.5875, 1.3725, 0.685, 0, 0.7825, 0.0975, 0.8825, 0.195, 0.98, 0.2925, 1.0775, 0.3925, 1.175, 0.49, 1.2725, 0.5875, 1.3725, 0.685],
  "SoftwareVersions": "syngo_MR_E11",
  "SpacingBetweenSlices": 2,
  "StationName": "MRC35049",
  "TaskName": "s03e06b",
  "TotalReadoutTime": 0.0576811,
  "TxRefAmp": 247.279,
  "WipMemBlock": "5baebed1-6e2f-4205-959d-18cf861bf7bd||Sequence: R016 ve11c/master r/e634e98; Dec 19 2017 11:00:25 by eja",
  "dcmmeta_affine": [
    [-1.9999734163284302, -0.0010472108842805028, 0.010269274935126305, 102.25348663330078],
    [-0.006001218222081661, 1.7368394136428833, -0.9916414618492126, -59.30030059814453],
    [0.008398812264204025, 0.9916590452194214, 1.7368193864822388, -93.80950164794922],
    [0.0, 0.0, 0.0, 1.0]
],
  "dcmmeta_reorient_transform": [
    [0.0, -1.0, 0.0, 103.0],
    [1.0, 0.0, 0.0, 0.0],
    [0.0, 0.0, 1.0, 0.0],
    [0.0, 0.0, 0.0, 1.0]
],
  "dcmmeta_shape": [104, 104, 60, 470],
  "dcmmeta_slice_dim": 2,
  "dcmmeta_version": 0.6,
  "global": {
    "const": {
      "AcquisitionMatrix": [104, 0, 0, 104],
      "AngioFlag": "N",
      "BitsAllocated": 16,
      "BitsStored": 16,
      "BodyPartExamined": "BRAIN",
      "Columns": 832,
      "EchoNumbers": 1,
      "EchoTime": 37.0,
      "EchoTrainLength": 104,
      "FlipAngle": 52.0,
      "HighBit": 15,
      "ImageOrientationPatient": [0.99998668057833, 0.00300060900743, 0.00419940609004, -0.0005236054695, 0.86841971800335, -0.49582952637],
      "ImagePositionPatient": [-829.75474588535, -753.98815799582, 366.23811096405],
      "ImageType": [
        "ORIGINAL",
        "PRIMARY",
        "M",
        "MB",
        "ND",
        "MOSAIC"
],
      "ImagedNucleus": "1H",
      "ImagingFrequency": 123.259063,
      "InPlanePhaseEncodingDirection": "COL",
      "MRAcquisitionType": "2D",
      "MagneticFieldStrength": 3.0,
      "Manufacturer": "SIEMENS",
      "ManufacturerModelName": "Prisma_fit",
      "Modality": "MR",
      "NumberOfAverages": 1.0,
      "NumberOfPhaseEncodingSteps": 104,
      "PercentPhaseFieldOfView": 100.0,
      "PercentSampling": 100.0,
      "PerformedProcedureStepStartTime": "090713.045000",
      "PhotometricInterpretation": "MONOCHROME2",
      "PixelBandwidth": 2290.0,
      "PixelRepresentation": 0,
      "PixelSpacing": [2.0, 2.0],
      "ProtocolName": "func_task-friends-s03e06b",
      "RepetitionTime": 1490.0,
      "Rows": 832,
      "SAR": 0.03506766679024,
      "SamplesPerPixel": 1,
      "ScanOptions": "FS",
      "ScanningSequence": "EP",
      "SequenceName": "epfid2d1_104",
      "SequenceVariant": [
        "SK",
        "SS"
],
      "SeriesDescription": "func_task-friends-s03e06b",
      "SeriesNumber": 15,
      "SeriesTime": "095830.970000",
      "SliceLocation": -51.5377277664,
      "SliceThickness": 2.0,
      "SmallestImagePixelValue": 0,
      "SoftwareVersions": "syngo MR E11",
      "SpacingBetweenSlices": 1.9999999852672,
      "SpecificCharacterSet": "ISO_IR 100",
      "StudyID": "1",
      "StudyTime": "090712.908000",
      "TransmitCoilName": "Body",
      "VariableFlipAngleFlag": "N",
      "WindowCenterWidthExplanation": "Algo1",
      "dBdt": 0.0},
    "slices": {}
  },
  "time": {
    "samples": {
      "AcquisitionNumber": [1, 2, 3, 4, 5, 6, 7, 8, 9, 10, 11, 12, 13, 14, 15, 16, 17, 18, 19, 20, 21, 22, 23, 24, 25, 26, 27, 28, 29, 30, 31, 32, 33, 34, 35, 36, 37, 38, 39, 40, 41, 42, 43, 44, 45, 46, 47, 48, 49, 50, 51, 52, 53, 54, 55, 56, 57, 58, 59, 60, 61, 62, 63, 64, 65, 66, 67, 68, 69, 70, 71, 72, 73, 74, 75, 76, 77, 78, 79, 80, 81, 82, 83, 84, 85, 86, 87, 88, 89, 90, 91, 92, 93, 94, 95, 96, 97, 98, 99, 100, 101, 102, 103, 104, 105, 106, 107, 108, 109, 110, 111, 112, 113, 114, 115, 116, 117, 118, 119, 120, 121, 122, 123, 124, 125, 126, 127, 128, 129, 130, 131, 132, 133, 134, 135, 136, 137, 138, 139, 140, 141, 142, 143, 144, 145, 146, 147, 148, 149, 150, 151, 152, 153, 154, 155, 156, 157, 158, 159, 160, 161, 162, 163, 164, 165, 166, 167, 168, 169, 170, 171, 172, 173, 174, 175, 176, 177, 178, 179, 180, 181, 182, 183, 184, 185, 186, 187, 188, 189, 190, 191, 192, 193, 194, 195, 196, 197, 198, 199, 200, 201, 202, 203, 204, 205, 206, 207, 208, 209, 210, 211, 212, 213, 214, 215, 216, 217, 218, 219, 220, 221, 222, 223, 224, 225, 226, 227, 228, 229, 230, 231, 232, 233, 234, 235, 236, 237, 238, 239, 240, 241, 242, 243, 244, 245, 246, 247, 248, 249, 250, 251, 252, 253, 254, 255, 256, 257, 258, 259, 260, 261, 262, 263, 264, 265, 266, 267, 268, 269, 270, 271, 272, 273, 274, 275, 276, 277, 278, 279, 280, 281, 282, 283, 284, 285, 286, 287, 288, 289, 290, 291, 292, 293, 294, 295, 296, 297, 298, 299, 300, 301, 302, 303, 304, 305, 306, 307, 308, 309, 310, 311, 312, 313, 314, 315, 316, 317, 318, 319, 320, 321, 322, 323, 324, 325, 326, 327, 328, 329, 330, 331, 332, 333, 334, 335, 336, 337, 338, 339, 340, 341, 342, 343, 344, 345, 346, 347, 348, 349, 350, 351, 352, 353, 354, 355, 356, 357, 358, 359, 360, 361, 362, 363, 364, 365, 366, 367, 368, 369, 370, 371, 372, 373, 374, 375, 376, 377, 378, 379, 380, 381, 382, 383, 384, 385, 386, 387, 388, 389, 390, 391, 392, 393, 394, 395, 396, 397, 398, 399, 400, 401, 402, 403, 404, 405, 406, 407, 408, 409, 410, 411, 412, 413, 414, 415, 416, 417, 418, 419, 420, 421, 422, 423, 424, 425, 426, 427, 428, 429, 430, 431, 432, 433, 434, 435, 436, 437, 438, 439, 440, 441, 442, 443, 444, 445, 446, 447, 448, 449, 450, 451, 452, 453, 454, 455, 456, 457, 458, 459, 460, 461, 462, 463, 464, 465, 466, 467, 468, 469, 470],
      "AcquisitionTime": ["095657.282500", "095658.772500", "095700.262500", "095701.752500", "095703.242500", "095704.732500", "095706.222500", "095707.712500", "095709.202500", "095710.692500", "095712.182500", "095713.672500", "095715.162500", "095716.652500", "095718.142500", "095719.632500", "095721.122500", "095722.612500", "095724.102500", "095725.592500", "095727.082500", "095728.572500", "095730.062500", "095731.552500", "095733.042500", "095734.532500", "095736.022500", "095737.512500", "095739.002500", "095740.492500", "095741.982500", "095743.472500", "095744.962500", "095746.452500", "095747.942500", "095749.432500", "095750.922500", "095752.412500", "095753.902500", "095755.392500", "095756.882500", "095758.372500", "095759.862500", "095801.352500", "095802.842500", "095804.332500", "095805.822500", "095807.312500", "095808.802500", "095810.292500", "095811.782500", "095813.272500", "095814.762500", "095816.252500", "095817.742500", "095819.232500", "095820.722500", "095822.212500", "095823.702500", "095825.192500", "095826.682500", "095828.172500", "095829.662500", "095831.152500", "095832.642500", "095834.132500", "095835.622500", "095837.112500", "095838.602500", "095840.092500", "095841.582500", "095843.072500", "095844.562500", "095846.052500", "095847.542500", "095849.032500", "095850.522500", "095852.012500", "095853.502500", "095854.992500", "095856.482500", "095857.972500", "095859.462500", "095900.952500", "095902.442500", "095903.932500", "095905.422500", "095906.912500", "095908.402500", "095909.892500", "095911.382500", "095912.872500", "095914.362500", "095915.852500", "095917.342500", "095918.832500", "095920.322500", "095921.812500", "095923.302500", "095924.792500", "095926.282500", "095927.772500", "095929.262500", "095930.752500", "095932.242500", "095933.732500", "095935.222500", "095936.712500", "095938.202500", "095939.692500", "095941.182500", "095942.672500", "095944.162500", "095945.652500", "095947.142500", "095948.632500", "095950.122500", "095951.612500", "095953.102500", "095954.592500", "095956.082500", "095957.572500", "095959.062500", "100000.552500", "100002.042500", "100003.532500", "100005.022500", "100006.512500", "100008.002500", "100009.492500", "100010.982500", "100012.472500", "100013.962500", "100015.452500", "100016.942500", "100018.432500", "100019.922500", "100021.412500", "100022.902500", "100024.392500", "100025.882500", "100027.372500", "100028.862500", "100030.352500", "100031.842500", "100033.332500", "100034.822500", "100036.312500", "100037.802500", "100039.292500", "100040.782500", "100042.272500", "100043.762500", "100045.252500", "100046.742500", "100048.232500", "100049.722500", "100051.212500", "100052.702500", "100054.192500", "100055.682500", "100057.172500", "100058.662500", "100100.152500", "100101.642500", "100103.132500", "100104.622500", "100106.112500", "100107.602500", "100109.092500", "100110.582500", "100112.072500", "100113.562500", "100115.052500", "100116.542500", "100118.032500", "100119.522500", "100121.012500", "100122.502500", "100123.992500", "100125.482500", "100126.972500", "100128.462500", "100129.952500", "100131.442500", "100132.932500", "100134.422500", "100135.912500", "100137.402500", "100138.892500", "100140.382500", "100141.872500", "100143.362500", "100144.852500", "100146.342500", "100147.832500", "100149.322500", "100150.812500", "100152.302500", "100153.792500", "100155.282500", "100156.772500", "100158.262500", "100159.752500", "100201.242500", "100202.732500", "100204.222500", "100205.712500", "100207.202500", "100208.692500", "100210.182500", "100211.672500", "100213.162500", "100214.652500", "100216.142500", "100217.632500", "100219.122500", "100220.612500", "100222.102500", "100223.592500", "100225.082500", "100226.572500", "100228.062500", "100229.552500", "100231.042500", "100232.532500", "100234.022500", "100235.512500", "100237.002500", "100238.492500", "100239.982500", "100241.472500", "100242.962500", "100244.452500", "100245.942500", "100247.432500", "100248.922500", "100250.412500", "100251.902500", "100253.392500", "100254.882500", "100256.372500", "100257.862500", "100259.352500", "100300.842500", "100302.332500", "100303.822500", "100305.312500", "100306.802500", "100308.292500", "100309.782500", "100311.272500", "100312.762500", "100314.252500", "100315.742500", "100317.232500", "100318.722500", "100320.212500", "100321.702500", "100323.192500", "100324.682500", "100326.172500", "100327.662500", "100329.152500", "100330.642500", "100332.132500", "100333.622500", "100335.112500", "100336.602500", "100338.092500", "100339.582500", "100341.072500", "100342.562500", "100344.052500", "100345.542500", "100347.032500", "100348.522500", "100350.012500", "100351.502500", "100352.992500", "100354.482500", "100355.972500", "100357.462500", "100358.952500", "100400.442500", "100401.932500", "100403.422500", "100404.912500", "100406.402500", "100407.892500", "100409.382500", "100410.872500", "100412.362500", "100413.852500", "100415.342500", "100416.832500", "100418.322500", "100419.812500", "100421.302500", "100422.792500", "100424.282500", "100425.772500", "100427.262500", "100428.752500", "100430.242500", "100431.732500", "100433.222500", "100434.712500", "100436.202500", "100437.692500", "100439.182500", "100440.672500", "100442.162500", "100443.652500", "100445.142500", "100446.632500", "100448.122500", "100449.612500", "100451.102500", "100452.592500", "100454.082500", "100455.572500", "100457.062500", "100458.552500", "100500.042500", "100501.532500", "100503.022500", "100504.512500", "100506.002500", "100507.492500", "100508.982500", "100510.472500", "100511.962500", "100513.452500", "100514.942500", "100516.432500", "100517.922500", "100519.412500", "100520.902500", "100522.392500", "100523.882500", "100525.372500", "100526.862500", "100528.352500", "100529.842500", "100531.332500", "100532.822500", "100534.312500", "100535.802500", "100537.292500", "100538.782500", "100540.272500", "100541.762500", "100543.252500", "100544.742500", "100546.232500", "100547.722500", "100549.212500", "100550.702500", "100552.192500", "100553.682500", "100555.172500", "100556.662500", "100558.152500", "100559.642500", "100601.132500", "100602.622500", "100604.112500", "100605.602500", "100607.092500", "100608.582500", "100610.072500", "100611.562500", "100613.052500", "100614.542500", "100616.032500", "100617.522500", "100619.012500", "100620.502500", "100621.992500", "100623.482500", "100624.972500", "100626.462500", "100627.952500", "100629.442500", "100630.932500", "100632.422500", "100633.912500", "100635.402500", "100636.892500", "100638.382500", "100639.872500", "100641.362500", "100642.852500", "100644.342500", "100645.832500", "100647.322500", "100648.812500", "100650.302500", "100651.792500", "100653.282500", "100654.772500", "100656.262500", "100657.752500", "100659.242500", "100700.732500", "100702.222500", "100703.712500", "100705.202500", "100706.692500", "100708.182500", "100709.672500", "100711.162500", "100712.652500", "100714.142500", "100715.632500", "100717.122500", "100718.612500", "100720.102500", "100721.592500", "100723.082500", "100724.572500", "100726.062500", "100727.552500", "100729.042500", "100730.532500", "100732.022500", "100733.512500", "100735.002500", "100736.492500", "100737.982500", "100739.472500", "100740.962500", "100742.452500", "100743.942500", "100745.432500", "100746.922500", "100748.412500", "100749.902500", "100751.392500", "100752.882500", "100754.372500", "100755.862500", "100757.352500", "100758.842500", "100800.332500", "100801.822500", "100803.312500", "100804.802500", "100806.292500", "100807.782500", "100809.272500", "100810.762500", "100812.252500", "100813.742500", "100815.232500", "100816.722500", "100818.212500", "100819.702500", "100821.192500", "100822.682500", "100824.172500", "100825.662500", "100827.152500", "100828.642500", "100830.132500", "100831.622500", "100833.112500", "100834.602500", "100836.092500"],
      "ContentTime": ["095830.973000", "095830.977000", "095830.979000", "095830.992000", "095830.995000", "095831.005000", "095831.008000", "095831.015000", "095831.018000", "095831.021000", "095831.024000", "095831.027000", "095831.030000", "095831.033000", "095831.036000", "095831.039000", "095831.042000", "095831.045000", "095831.048000", "095831.058000", "095831.061000", "095831.064000", "095831.067000", "095831.071000", "095831.074000", "095831.078000", "095831.081000", "095831.084000", "095831.087000", "095831.090000", "095831.093000", "095831.096000", "095831.099000", "095831.102000", "095831.105000", "095831.108000", "095831.111000", "095831.114000", "095831.117000", "095850.905000", "095850.908000", "095850.911000", "095850.914000", "095850.917000", "095850.920000", "095850.923000", "095850.926000", "095850.929000", "095850.932000", "095850.935000", "095850.938000", "095850.941000", "095850.944000", "095850.947000", "095850.950000", "095850.964000", "095850.967000", "095850.970000", "095850.973000", "095910.905000", "095910.908000", "095910.911000", "095910.914000", "095910.917000", "095910.920000", "095910.923000", "095910.926000", "095910.929000", "095910.932000", "095910.935000", "095910.938000", "095910.941000", "095910.944000", "095910.947000", "095910.950000", "095910.953000", "095910.956000", "095910.959000", "095910.962000", "095930.905000", "095930.908000", "095930.911000", "095930.914000", "095930.917000", "095930.920000", "095930.923000", "095930.926000", "095930.929000", "095930.932000", "095930.935000", "095930.938000", "095930.940000", "095930.944000", "095930.947000", "095930.949000", "095930.952000", "095930.955000", "095930.958000", "095930.961000", "095930.964000", "095950.904000", "095950.907000", "095950.910000", "095950.914000", "095950.916000", "095950.919000", "095950.923000", "095950.926000", "095950.928000", "095950.931000", "095950.935000", "095950.938000", "095950.941000", "095950.944000", "095950.947000", "100030.905000", "100030.908000", "100030.911000", "100030.914000", "100030.917000", "100030.920000", "100030.923000", "100030.926000", "100030.929000", "100030.932000", "100030.935000", "100030.943000", "100030.946000", "100030.949000", "100030.952000", "100030.955000", "100030.957000", "100030.961000", "100030.963000", "100030.966000", "100030.969000", "100030.972000", "100030.975000", "100030.978000", "100030.981000", "100030.984000", "100030.987000", "100110.918000", "100110.921000", "100110.924000", "100110.927000", "100110.937000", "100110.940000", "100110.943000", "100110.946000", "100110.949000", "100110.952000", "100110.955000", "100110.958000", "100110.961000", "100110.964000", "100110.967000", "100110.970000", "100110.973000", "100110.976000", "100110.979000", "100110.982000", "100110.985000", "100110.988000", "100110.991000", "100110.993000", "100110.997000", "100111.001000", "100111.004000", "100150.905000", "100150.908000", "100150.911000", "100150.914000", "100150.917000", "100150.920000", "100150.923000", "100150.926000", "100150.929000", "100150.932000", "100150.935000", "100150.938000", "100150.941000", "100150.944000", "100150.947000", "100150.950000", "100150.953000", "100150.956000", "100150.958000", "100150.962000", "100150.965000", "100150.967000", "100150.970000", "100150.974000", "100150.976000", "100150.979000", "100150.982000", "100230.904000", "100230.907000", "100230.910000", "100230.913000", "100230.916000", "100230.919000", "100230.922000", "100230.925000", "100230.928000", "100230.931000", "100230.934000", "100230.937000", "100230.940000", "100230.943000", "100230.946000", "100230.949000", "100230.952000", "100230.955000", "100230.958000", "100230.961000", "100230.964000", "100230.967000", "100230.970000", "100230.973000", "100230.980000", "100230.983000", "100230.986000", "100310.905000", "100310.908000", "100310.911000", "100310.914000", "100310.917000", "100310.920000", "100310.923000", "100310.926000", "100310.929000", "100310.932000", "100310.935000", "100310.938000", "100310.941000", "100310.944000", "100310.947000", "100310.950000", "100310.953000", "100310.956000", "100310.959000", "100310.963000", "100310.966000", "100310.969000", "100310.972000", "100310.975000", "100310.978000", "100310.981000", "100310.984000", "100350.905000", "100350.908000", "100350.911000", "100350.914000", "100350.917000", "100350.920000", "100350.923000", "100350.926000", "100350.929000", "100350.932000", "100350.935000", "100350.938000", "100350.941000", "100350.944000", "100350.947000", "100350.950000", "100350.953000", "100350.956000", "100350.959000", "100350.962000", "100350.965000", "100350.968000", "100350.971000", "100350.974000", "100350.977000", "100350.980000", "100430.904000", "100430.907000", "100430.910000", "100430.913000", "100430.916000", "100430.919000", "100430.922000", "100430.925000", "100430.928000", "100430.931000", "100430.934000", "100430.937000", "100430.940000", "100430.943000", "100430.946000", "100430.949000", "100430.952000", "100430.955000", "100430.958000", "100430.961000", "100430.964000", "100430.967000", "100430.970000", "100430.973000", "100430.976000", "100430.979000", "100430.982000", "100510.905000", "100510.909000", "100510.911000", "100510.914000", "100510.917000", "100510.920000", "100510.923000", "100510.926000", "100510.929000", "100510.932000", "100510.935000", "100510.938000", "100510.941000", "100510.944000", "100510.947000", "100510.950000", "100510.953000", "100510.956000", "100510.959000", "100510.962000", "100510.965000", "100510.968000", "100510.971000", "100510.991000", "100510.994000", "100510.997000", "100511.001000", "100550.905000", "100550.908000", "100550.911000", "100550.914000", "100550.917000", "100550.920000", "100550.923000", "100550.926000", "100550.929000", "100550.932000", "100550.935000", "100550.938000", "100550.941000", "100550.944000", "100550.947000", "100550.950000", "100550.953000", "100550.956000", "100550.959000", "100550.962000", "100550.965000", "100550.968000", "100550.971000", "100550.974000", "100550.977000", "100550.980000", "100550.983000", "100630.904000", "100630.907000", "100630.910000", "100630.913000", "100630.916000", "100630.919000", "100630.922000", "100630.933000", "100630.936000", "100630.939000", "100630.941000", "100630.945000", "100630.947000", "100630.950000", "100630.953000", "100630.956000", "100630.959000", "100630.962000", "100630.965000", "100630.968000", "100630.971000", "100630.974000", "100630.977000", "100630.980000", "100630.983000", "100630.986000", "100630.989000", "100710.905000", "100710.908000", "100710.911000", "100710.914000", "100710.917000", "100710.920000", "100710.923000", "100710.926000", "100710.929000", "100710.932000", "100710.935000", "100710.938000", "100710.941000", "100710.944000", "100710.947000", "100710.950000", "100710.957000", "100710.960000", "100710.963000", "100710.966000", "100710.969000", "100710.972000", "100710.975000", "100710.978000", "100710.981000", "100710.984000", "100710.987000", "100750.905000", "100750.908000", "100750.911000", "100750.914000", "100750.917000", "100750.920000", "100750.923000", "100750.926000", "100750.929000", "100750.932000", "100750.935000", "100750.938000", "100750.941000", "100750.944000", "100750.947000", "100750.950000", "100750.953000", "100750.956000", "100750.959000", "100750.962000", "100750.965000", "100750.968000", "100750.971000", "100750.974000", "100750.977000", "100750.980000", "100750.983000", "100830.905000", "100830.908000", "100830.911000", "100830.914000", "100830.917000", "100830.920000", "100830.923000", "100830.926000", "100830.929000", "100830.932000", "100830.936000", "100830.939000", "100830.942000", "100830.945000", "100830.948000", "100830.951000", "100830.953000", "100830.956000", "100830.960000", "100830.963000", "100830.966000", "100830.968000", "100830.972000", "100830.974000", "100830.977000", "100830.980000", "100838.514000", "100838.517000", "100838.520000", "100838.523000", "100838.536000", "100838.539000"],
