{
  "AcquisitionMatrixPE": 104,
  "AcquisitionNumber": 1,
  "AcquisitionTime": "10:21:17.975000",
  "BandwidthPerPixelPhaseEncode": 17.17,
  "BaseResolution": 104,
  "BodyPartExamined": "BRAIN",
  "CoilString": "HC1-7;NC1_2",
  "ConsistencyInfo": "N4_VE11C_LATEST_20160120",
  "ConversionSoftware": "dcm2niix",
  "ConversionSoftwareVersion": "v1.0.20200427",
  "DerivedVendorReportedEchoSpacing": 0.000560011,
  "DeviceSerialNumber": "167006",
  "DwellTime": 2.1e-06,
  "EchoTime": 0.037,
  "EchoTrainLength": 104,
  "EffectiveEchoSpacing": 0.000560011,
  "FlipAngle": 52,
  "ImageComments": "Unaliased_MB4_PE3_LB",
  "ImageOrientationPatientDICOM": [0.999987, 0.00300061, 0.00419941, -0.000523605, 0.86842, -0.49583],
  "ImageType": [
    "ORIGINAL",
    "PRIMARY",
    "M",
    "MB",
    "ND",
    "MOSAIC"
],
  "ImagingFrequency": 123.259,
  "InPlanePhaseEncodingDirectionDICOM": "COL",
  "InstitutionAddress": "Chemin_Queen-Mary_4565_Montreal_District_CA_H3W_1W5",
  "InstitutionName": "IUGM",
  "InstitutionalDepartmentName": "Department",
  "MRAcquisitionType": "2D",
  "MagneticFieldStrength": 3,
  "Manufacturer": "Siemens",
  "ManufacturersModelName": "Prisma_fit",
  "Modality": "MR",
  "MultibandAccelerationFactor": 4,
  "PartialFourier": 1,
  "PatientPosition": "HFS",
  "PercentPhaseFOV": 100,
  "PercentSampling": 100,
  "PhaseEncodingDirection": "j",
  "PhaseEncodingSteps": 104,
  "PhaseResolution": 1,
  "PixelBandwidth": 2290,
  "ProcedureStepDescription": "video_friends",
  "ProtocolName": "func_task-friends-s03e07b",
  "PulseSequenceDetails": "%CustomerSeq%_cmrr_mbep2d_bold",
  "ReceiveCoilActiveElements": "HC1-7;NC1,2",
  "ReceiveCoilName": "HeadNeck_64",
  "ReconMatrixPE": 104,
  "RepetitionTime": 1.49,
  "SAR": 0.0350667,
  "ScanOptions": "FS",
  "ScanningSequence": "EP",
  "SequenceName": "epfid2d1_104",
  "SequenceVariant": "SK_SS",
  "SeriesDescription": "func_task-friends-s03e07b",
  "SeriesNumber": 19,
  "ShimSetting": [621, -7216, -8857, 430, -17, -208, 24, -6],
  "SliceThickness": 2,
  "SliceTiming": [0, 0.785, 0.0975, 0.8825, 0.1975, 0.98, 0.295, 1.0775, 0.3925, 1.175, 0.49, 1.275, 0.5875, 1.3725, 0.6875, 0, 0.785, 0.0975, 0.8825, 0.1975, 0.98, 0.295, 1.0775, 0.3925, 1.175, 0.49, 1.275, 0.5875, 1.3725, 0.6875, 0, 0.785, 0.0975, 0.8825, 0.1975, 0.98, 0.295, 1.0775, 0.3925, 1.175, 0.49, 1.275, 0.5875, 1.3725, 0.6875, 0, 0.785, 0.0975, 0.8825, 0.1975, 0.98, 0.295, 1.0775, 0.3925, 1.175, 0.49, 1.275, 0.5875, 1.3725, 0.6875],
  "SoftwareVersions": "syngo_MR_E11",
  "SpacingBetweenSlices": 2,
  "StationName": "MRC35049",
  "TaskName": "s03e07b",
  "TotalReadoutTime": 0.0576811,
  "TxRefAmp": 247.279,
  "WipMemBlock": "92b30511-2380-4936-813c-1c7cfd408ae2||Sequence: R016 ve11c/master r/e634e98; Dec 19 2017 11:00:25 by eja",
  "dcmmeta_affine": [
    [-1.9999734163284302, -0.0010472108842805028, 0.010269274935126305, 102.25348663330078],
    [-0.006001218222081661, 1.7368394136428833, -0.9916414618492126, -59.30030059814453],
    [0.008398812264204025, 0.9916590452194214, 1.7368193864822388, -93.80950164794922],
    [0.0, 0.0, 0.0, 1.0]
],
  "dcmmeta_reorient_transform": [
    [0.0, -1.0, 0.0, 103.0],
    [1.0, 0.0, 0.0, 0.0],
    [0.0, 0.0, 1.0, 0.0],
    [0.0, 0.0, 0.0, 1.0]
],
  "dcmmeta_shape": [104, 104, 60, 467],
  "dcmmeta_slice_dim": 2,
  "dcmmeta_version": 0.6,
  "global": {
    "const": {
      "AcquisitionMatrix": [104, 0, 0, 104],
      "AngioFlag": "N",
      "BitsAllocated": 16,
      "BitsStored": 16,
      "BodyPartExamined": "BRAIN",
      "Columns": 832,
      "EchoNumbers": 1,
      "EchoTime": 37.0,
      "EchoTrainLength": 104,
      "FlipAngle": 52.0,
      "HighBit": 15,
      "ImageOrientationPatient": [0.99998668057833, 0.00300060900743, 0.00419940609004, -0.0005236054695, 0.86841971800335, -0.49582952637],
      "ImagePositionPatient": [-829.75474588535, -753.98815799582, 366.23811096405],
      "ImageType": [
        "ORIGINAL",
        "PRIMARY",
        "M",
        "MB",
        "ND",
        "MOSAIC"
],
      "ImagedNucleus": "1H",
      "ImagingFrequency": 123.259068,
      "InPlanePhaseEncodingDirection": "COL",
      "MRAcquisitionType": "2D",
      "MagneticFieldStrength": 3.0,
      "Manufacturer": "SIEMENS",
      "ManufacturerModelName": "Prisma_fit",
      "Modality": "MR",
      "NumberOfAverages": 1.0,
      "NumberOfPhaseEncodingSteps": 104,
      "PercentPhaseFieldOfView": 100.0,
      "PercentSampling": 100.0,
      "PerformedProcedureStepStartTime": "090713.045000",
      "PhotometricInterpretation": "MONOCHROME2",
      "PixelBandwidth": 2290.0,
      "PixelRepresentation": 0,
      "PixelSpacing": [2.0, 2.0],
      "ProtocolName": "func_task-friends-s03e07b",
      "RepetitionTime": 1490.0,
      "Rows": 832,
      "SAR": 0.03506672087002,
      "SamplesPerPixel": 1,
      "ScanOptions": "FS",
      "ScanningSequence": "EP",
      "SequenceName": "epfid2d1_104",
      "SequenceVariant": [
        "SK",
        "SS"
],
      "SeriesDescription": "func_task-friends-s03e07b",
      "SeriesNumber": 19,
      "SeriesTime": "102240.532000",
      "SliceLocation": -51.5377277664,
      "SliceThickness": 2.0,
      "SmallestImagePixelValue": 0,
      "SoftwareVersions": "syngo MR E11",
      "SpacingBetweenSlices": 1.9999999852672,
      "SpecificCharacterSet": "ISO_IR 100",
      "StudyID": "1",
      "StudyTime": "090712.908000",
      "TransmitCoilName": "Body",
      "VariableFlipAngleFlag": "N",
      "WindowCenterWidthExplanation": "Algo1",
      "dBdt": 0.0},
    "slices": {}
  },
  "time": {
    "samples": {
      "AcquisitionNumber": [1, 2, 3, 4, 5, 6, 7, 8, 9, 10, 11, 12, 13, 14, 15, 16, 17, 18, 19, 20, 21, 22, 23, 24, 25, 26, 27, 28, 29, 30, 31, 32, 33, 34, 35, 36, 37, 38, 39, 40, 41, 42, 43, 44, 45, 46, 47, 48, 49, 50, 51, 52, 53, 54, 55, 56, 57, 58, 59, 60, 61, 62, 63, 64, 65, 66, 67, 68, 69, 70, 71, 72, 73, 74, 75, 76, 77, 78, 79, 80, 81, 82, 83, 84, 85, 86, 87, 88, 89, 90, 91, 92, 93, 94, 95, 96, 97, 98, 99, 100, 101, 102, 103, 104, 105, 106, 107, 108, 109, 110, 111, 112, 113, 114, 115, 116, 117, 118, 119, 120, 121, 122, 123, 124, 125, 126, 127, 128, 129, 130, 131, 132, 133, 134, 135, 136, 137, 138, 139, 140, 141, 142, 143, 144, 145, 146, 147, 148, 149, 150, 151, 152, 153, 154, 155, 156, 157, 158, 159, 160, 161, 162, 163, 164, 165, 166, 167, 168, 169, 170, 171, 172, 173, 174, 175, 176, 177, 178, 179, 180, 181, 182, 183, 184, 185, 186, 187, 188, 189, 190, 191, 192, 193, 194, 195, 196, 197, 198, 199, 200, 201, 202, 203, 204, 205, 206, 207, 208, 209, 210, 211, 212, 213, 214, 215, 216, 217, 218, 219, 220, 221, 222, 223, 224, 225, 226, 227, 228, 229, 230, 231, 232, 233, 234, 235, 236, 237, 238, 239, 240, 241, 242, 243, 244, 245, 246, 247, 248, 249, 250, 251, 252, 253, 254, 255, 256, 257, 258, 259, 260, 261, 262, 263, 264, 265, 266, 267, 268, 269, 270, 271, 272, 273, 274, 275, 276, 277, 278, 279, 280, 281, 282, 283, 284, 285, 286, 287, 288, 289, 290, 291, 292, 293, 294, 295, 296, 297, 298, 299, 300, 301, 302, 303, 304, 305, 306, 307, 308, 309, 310, 311, 312, 313, 314, 315, 316, 317, 318, 319, 320, 321, 322, 323, 324, 325, 326, 327, 328, 329, 330, 331, 332, 333, 334, 335, 336, 337, 338, 339, 340, 341, 342, 343, 344, 345, 346, 347, 348, 349, 350, 351, 352, 353, 354, 355, 356, 357, 358, 359, 360, 361, 362, 363, 364, 365, 366, 367, 368, 369, 370, 371, 372, 373, 374, 375, 376, 377, 378, 379, 380, 381, 382, 383, 384, 385, 386, 387, 388, 389, 390, 391, 392, 393, 394, 395, 396, 397, 398, 399, 400, 401, 402, 403, 404, 405, 406, 407, 408, 409, 410, 411, 412, 413, 414, 415, 416, 417, 418, 419, 420, 421, 422, 423, 424, 425, 426, 427, 428, 429, 430, 431, 432, 433, 434, 435, 436, 437, 438, 439, 440, 441, 442, 443, 444, 445, 446, 447, 448, 449, 450, 451, 452, 453, 454, 455, 456, 457, 458, 459, 460, 461, 462, 463, 464, 465, 466, 467],
      "AcquisitionTime": ["102117.975000", "102119.465000", "102120.955000", "102122.445000", "102123.935000", "102125.425000", "102126.915000", "102128.405000", "102129.895000", "102131.385000", "102132.875000", "102134.365000", "102135.855000", "102137.345000", "102138.835000", "102140.325000", "102141.815000", "102143.305000", "102144.795000", "102146.285000", "102147.775000", "102149.265000", "102150.755000", "102152.245000", "102153.735000", "102155.225000", "102156.715000", "102158.205000", "102159.695000", "102201.185000", "102202.675000", "102204.165000", "102205.655000", "102207.145000", "102208.635000", "102210.125000", "102211.615000", "102213.105000", "102214.595000", "102216.085000", "102217.575000", "102219.065000", "102220.555000", "102222.045000", "102223.535000", "102225.025000", "102226.515000", "102228.005000", "102229.495000", "102230.985000", "102232.475000", "102233.965000", "102235.455000", "102236.945000", "102238.435000", "102239.925000", "102241.415000", "102242.905000", "102244.395000", "102245.885000", "102247.375000", "102248.865000", "102250.355000", "102251.845000", "102253.335000", "102254.825000", "102256.315000", "102257.805000", "102259.295000", "102300.785000", "102302.275000", "102303.765000", "102305.255000", "102306.745000", "102308.235000", "102309.725000", "102311.215000", "102312.705000", "102314.195000", "102315.685000", "102317.175000", "102318.665000", "102320.155000", "102321.645000", "102323.135000", "102324.625000", "102326.115000", "102327.605000", "102329.095000", "102330.585000", "102332.075000", "102333.565000", "102335.055000", "102336.545000", "102338.035000", "102339.525000", "102341.015000", "102342.505000", "102343.995000", "102345.485000", "102346.975000", "102348.465000", "102349.955000", "102351.445000", "102352.935000", "102354.425000", "102355.915000", "102357.405000", "102358.895000", "102400.385000", "102401.875000", "102403.365000", "102404.855000", "102406.345000", "102407.835000", "102409.325000", "102410.815000", "102412.305000", "102413.795000", "102415.285000", "102416.775000", "102418.265000", "102419.755000", "102421.245000", "102422.735000", "102424.225000", "102425.715000", "102427.205000", "102428.695000", "102430.185000", "102431.675000", "102433.165000", "102434.655000", "102436.145000", "102437.635000", "102439.125000", "102440.615000", "102442.105000", "102443.595000", "102445.085000", "102446.575000", "102448.065000", "102449.555000", "102451.045000", "102452.535000", "102454.025000", "102455.515000", "102457.005000", "102458.495000", "102459.985000", "102501.475000", "102502.965000", "102504.455000", "102505.945000", "102507.435000", "102508.925000", "102510.415000", "102511.905000", "102513.395000", "102514.885000", "102516.375000", "102517.865000", "102519.355000", "102520.845000", "102522.335000", "102523.825000", "102525.315000", "102526.805000", "102528.295000", "102529.785000", "102531.275000", "102532.765000", "102534.255000", "102535.745000", "102537.235000", "102538.725000", "102540.215000", "102541.705000", "102543.195000", "102544.685000", "102546.175000", "102547.665000", "102549.155000", "102550.645000", "102552.135000", "102553.625000", "102555.115000", "102556.605000", "102558.095000", "102559.585000", "102601.075000", "102602.565000", "102604.055000", "102605.545000", "102607.035000", "102608.525000", "102610.015000", "102611.505000", "102612.995000", "102614.485000", "102615.975000", "102617.465000", "102618.955000", "102620.445000", "102621.935000", "102623.425000", "102624.915000", "102626.405000", "102627.895000", "102629.385000", "102630.875000", "102632.365000", "102633.855000", "102635.345000", "102636.835000", "102638.325000", "102639.815000", "102641.305000", "102642.795000", "102644.285000", "102645.775000", "102647.265000", "102648.755000", "102650.245000", "102651.735000", "102653.225000", "102654.715000", "102656.205000", "102657.695000", "102659.185000", "102700.675000", "102702.165000", "102703.655000", "102705.145000", "102706.635000", "102708.125000", "102709.615000", "102711.105000", "102712.595000", "102714.085000", "102715.575000", "102717.065000", "102718.555000", "102720.045000", "102721.535000", "102723.025000", "102724.515000", "102726.005000", "102727.495000", "102728.985000", "102730.475000", "102731.965000", "102733.455000", "102734.945000", "102736.435000", "102737.925000", "102739.415000", "102740.905000", "102742.395000", "102743.885000", "102745.375000", "102746.865000", "102748.355000", "102749.845000", "102751.335000", "102752.825000", "102754.315000", "102755.805000", "102757.295000", "102758.785000", "102800.275000", "102801.765000", "102803.255000", "102804.745000", "102806.235000", "102807.725000", "102809.215000", "102810.705000", "102812.195000", "102813.685000", "102815.175000", "102816.665000", "102818.155000", "102819.645000", "102821.135000", "102822.625000", "102824.115000", "102825.605000", "102827.095000", "102828.585000", "102830.075000", "102831.565000", "102833.055000", "102834.545000", "102836.035000", "102837.525000", "102839.015000", "102840.505000", "102841.995000", "102843.485000", "102844.975000", "102846.465000", "102847.955000", "102849.445000", "102850.935000", "102852.425000", "102853.915000", "102855.405000", "102856.895000", "102858.385000", "102859.875000", "102901.365000", "102902.855000", "102904.345000", "102905.835000", "102907.325000", "102908.815000", "102910.305000", "102911.795000", "102913.285000", "102914.775000", "102916.265000", "102917.755000", "102919.245000", "102920.735000", "102922.225000", "102923.715000", "102925.205000", "102926.695000", "102928.185000", "102929.675000", "102931.165000", "102932.655000", "102934.145000", "102935.635000", "102937.125000", "102938.615000", "102940.105000", "102941.595000", "102943.085000", "102944.575000", "102946.065000", "102947.555000", "102949.045000", "102950.535000", "102952.025000", "102953.515000", "102955.005000", "102956.495000", "102957.985000", "102959.475000", "103000.965000", "103002.455000", "103003.945000", "103005.435000", "103006.925000", "103008.415000", "103009.905000", "103011.395000", "103012.885000", "103014.375000", "103015.865000", "103017.355000", "103018.845000", "103020.335000", "103021.825000", "103023.315000", "103024.805000", "103026.295000", "103027.785000", "103029.275000", "103030.765000", "103032.255000", "103033.745000", "103035.235000", "103036.725000", "103038.215000", "103039.705000", "103041.195000", "103042.685000", "103044.175000", "103045.665000", "103047.155000", "103048.645000", "103050.135000", "103051.625000", "103053.115000", "103054.605000", "103056.095000", "103057.585000", "103059.075000", "103100.565000", "103102.055000", "103103.545000", "103105.035000", "103106.525000", "103108.015000", "103109.505000", "103110.995000", "103112.485000", "103113.975000", "103115.465000", "103116.955000", "103118.445000", "103119.935000", "103121.425000", "103122.915000", "103124.405000", "103125.895000", "103127.385000", "103128.875000", "103130.365000", "103131.855000", "103133.345000", "103134.835000", "103136.325000", "103137.815000", "103139.305000", "103140.795000", "103142.285000", "103143.775000", "103145.265000", "103146.755000", "103148.245000", "103149.735000", "103151.225000", "103152.715000", "103154.205000", "103155.695000", "103157.185000", "103158.675000", "103200.165000", "103201.655000", "103203.145000", "103204.635000", "103206.125000", "103207.615000", "103209.105000", "103210.595000", "103212.085000", "103213.575000", "103215.065000", "103216.555000", "103218.045000", "103219.535000", "103221.025000", "103222.515000", "103224.005000", "103225.495000", "103226.985000", "103228.475000", "103229.965000", "103231.455000", "103232.945000", "103234.435000", "103235.925000", "103237.415000", "103238.905000", "103240.395000", "103241.885000", "103243.375000", "103244.865000", "103246.355000", "103247.845000", "103249.335000", "103250.825000", "103252.315000"],
      "ContentTime": ["102240.535000", "102240.538000", "102240.541000", "102240.544000", "102240.547000", "102240.550000", "102240.553000", "102240.556000", "102240.559000", "102240.562000", "102240.565000", "102240.568000", "102240.571000", "102240.574000", "102240.577000", "102240.580000", "102240.583000", "102240.586000", "102240.597000", "102240.600000", "102240.603000", "102240.606000", "102240.609000", "102240.612000", "102240.615000", "102240.618000", "102300.496000", "102300.499000", "102300.502000", "102300.505000", "102300.508000", "102300.511000", "102300.514000", "102300.517000", "102300.520000", "102300.530000", "102300.533000", "102300.536000", "102300.539000", "102300.542000", "102300.545000", "102300.556000", "102300.559000", "102300.562000", "102300.565000", "102300.568000", "102320.496000", "102320.499000", "102320.502000", "102320.505000", "102320.517000", "102320.520000", "102320.523000", "102320.526000", "102320.529000", "102320.532000", "102320.535000", "102320.538000", "102320.541000", "102320.544000", "102320.546000", "102320.550000", "102320.553000", "102320.557000", "102320.561000", "102320.564000", "102340.496000", "102340.499000", "102340.502000", "102340.505000", "102340.508000", "102340.511000", "102340.514000", "102340.517000", "102340.520000", "102340.523000", "102340.526000", "102340.529000", "102340.532000", "102340.535000", "102340.538000", "102340.541000", "102340.544000", "102340.547000", "102340.549000", "102340.552000", "102340.555000", "102400.496000", "102400.499000", "102400.502000", "102400.505000", "102400.508000", "102400.511000", "102400.514000", "102400.517000", "102400.520000", "102400.523000", "102400.526000", "102400.529000", "102400.532000", "102400.535000", "102400.537000", "102400.540000", "102400.544000", "102400.547000", "102400.549000", "102400.552000", "102440.496000", "102440.499000", "102440.502000", "102440.505000", "102440.508000", "102440.511000", "102440.514000", "102440.517000", "102440.520000", "102440.530000", "102440.533000", "102440.536000", "102440.539000", "102440.542000", "102440.544000", "102440.547000", "102440.550000", "102440.553000", "102440.556000", "102440.559000", "102440.562000", "102440.565000", "102440.568000", "102440.571000", "102440.574000", "102440.577000", "102440.580000", "102440.583000", "102520.496000", "102520.499000", "102520.502000", "102520.505000", "102520.508000", "102520.511000", "102520.514000", "102520.517000", "102520.520000", "102520.523000", "102520.526000", "102520.529000", "102520.532000", "102520.535000", "102520.538000", "102520.541000", "102520.544000", "102520.547000", "102520.550000", "102520.553000", "102520.556000", "102520.559000", "102520.562000", "102520.565000", "102520.568000", "102520.571000", "102520.574000", "102600.496000", "102600.499000", "102600.502000", "102600.505000", "102600.508000", "102600.511000", "102600.514000", "102600.517000", "102600.520000", "102600.523000", "102600.526000", "102600.529000", "102600.532000", "102600.535000", "102600.538000", "102600.541000", "102600.544000", "102600.547000", "102600.550000", "102600.553000", "102600.556000", "102600.559000", "102600.562000", "102600.565000", "102600.568000", "102600.571000", "102600.574000", "102640.496000", "102640.499000", "102640.502000", "102640.505000", "102640.508000", "102640.511000", "102640.514000", "102640.517000", "102640.521000", "102640.524000", "102640.527000", "102640.530000", "102640.533000", "102640.536000", "102640.539000", "102640.542000", "102640.545000", "102640.548000", "102640.551000", "102640.554000", "102640.557000", "102640.560000", "102640.563000", "102640.566000", "102640.569000", "102640.572000", "102640.575000", "102720.496000", "102720.500000", "102720.503000", "102720.506000", "102720.509000", "102720.512000", "102720.515000", "102720.518000", "102720.521000", "102720.524000", "102720.527000", "102720.530000", "102720.533000", "102720.536000", "102720.539000", "102720.542000", "102720.545000", "102720.548000", "102720.551000", "102720.554000", "102720.557000", "102720.560000", "102720.563000", "102720.566000", "102720.569000", "102720.572000", "102800.496000", "102800.499000", "102800.510000", "102800.513000", "102800.516000", "102800.519000", "102800.522000", "102800.525000", "102800.528000", "102800.531000", "102800.534000", "102800.537000", "102800.540000", "102800.543000", "102800.546000", "102800.549000", "102800.552000", "102800.555000", "102800.558000", "102800.561000", "102800.564000", "102800.567000", "102800.570000", "102800.573000", "102800.576000", "102800.579000", "102800.582000", "102840.496000", "102840.499000", "102840.502000", "102840.505000", "102840.508000", "102840.511000", "102840.514000", "102840.517000", "102840.520000", "102840.524000", "102840.526000", "102840.529000", "102840.533000", "102840.536000", "102840.538000", "102840.541000", "102840.544000", "102840.547000", "102840.550000", "102840.553000", "102840.556000", "102840.559000", "102840.562000", "102840.565000", "102840.568000", "102840.571000", "102840.574000", "102920.496000", "102920.499000", "102920.502000", "102920.505000", "102920.522000", "102920.525000", "102920.528000", "102920.531000", "102920.534000", "102920.537000", "102920.540000", "102920.543000", "102920.546000", "102920.549000", "102920.552000", "102920.555000", "102920.558000", "102920.561000", "102920.564000", "102920.567000", "102920.570000", "102920.573000", "102920.576000", "102920.579000", "102920.582000", "102920.585000", "102920.588000", "103000.496000", "103000.499000", "103000.502000", "103000.505000", "103000.508000", "103000.511000", "103000.514000", "103000.517000", "103000.520000", "103000.523000", "103000.526000", "103000.529000", "103000.532000", "103000.535000", "103000.538000", "103000.541000", "103000.544000", "103000.547000", "103000.550000", "103000.553000", "103000.556000", "103000.559000", "103000.562000", "103000.565000", "103000.568000", "103000.571000", "103000.574000", "103040.496000", "103040.499000", "103040.502000", "103040.505000", "103040.508000", "103040.512000", "103040.514000", "103040.517000", "103040.520000", "103040.523000", "103040.527000", "103040.529000", "103040.532000", "103040.536000", "103040.538000", "103040.542000", "103040.544000", "103040.548000", "103040.551000", "103040.554000", "103040.556000", "103040.559000", "103040.562000", "103040.565000", "103040.568000", "103040.571000", "103040.574000", "103120.496000", "103120.499000", "103120.502000", "103120.505000", "103120.508000", "103120.511000", "103120.515000", "103120.518000", "103120.522000", "103120.525000", "103120.528000", "103120.530000", "103120.534000", "103120.537000", "103120.539000", "103120.543000", "103120.546000", "103120.549000", "103120.557000", "103120.560000", "103120.563000", "103120.566000", "103120.569000", "103120.572000", "103120.575000", "103120.578000", "103200.496000", "103200.499000", "103200.502000", "103200.505000", "103200.508000", "103200.511000", "103200.514000", "103200.517000", "103200.520000", "103200.523000", "103200.526000", "103200.529000", "103200.532000", "103200.535000", "103200.538000", "103200.541000", "103200.544000", "103200.547000", "103200.550000", "103200.553000", "103200.556000", "103200.559000", "103200.562000", "103200.565000", "103200.568000", "103200.571000", "103200.574000", "103240.496000", "103240.499000", "103240.502000", "103240.505000", "103240.508000", "103240.511000", "103240.514000", "103240.517000", "103240.520000", "103240.523000", "103240.526000", "103240.529000", "103240.532000", "103240.535000", "103240.538000", "103240.541000", "103240.544000", "103240.547000", "103240.550000", "103240.553000", "103240.556000", "103240.559000", "103240.562000", "103240.565000", "103240.568000", "103240.571000", "103240.574000", "103254.439000", "103254.442000", "103254.445000", "103254.449000", "103254.452000", "103254.455000", "103254.458000", "103254.461000", "103254.464000", "103254.467000"],
