{
  "AcquisitionMatrixPE": 104,
  "AcquisitionNumber": 1,
  "AcquisitionTime": "11:51:37.900000",
  "BandwidthPerPixelPhaseEncode": 17.17,
  "BaseResolution": 104,
  "BodyPartExamined": "BRAIN",
  "CoilCombinationMethod": "Sum of Squares",
  "ConsistencyInfo": "N4_VE11C_LATEST_20160120",
  "ConversionSoftware": "dcm2niix",
  "ConversionSoftwareVersion": "v1.0.20220505",
  "DerivedVendorReportedEchoSpacing": 0.000560011,
  "DeviceSerialNumber": "167006",
  "DwellTime": 2.1e-06,
  "EchoTime": 0.037,
  "EchoTrainLength": 104,
  "EffectiveEchoSpacing": 0.000560011,
  "FlipAngle": 52,
  "HeudiconvVersion": "0.5.3.post811+g6206e14",
  "ImageComments": "Unaliased MB4/PE3/LB",
  "ImageOrientationPatientDICOM": [0.995451, 0.0944733, 0.0123245, -0.0814911, 0.911309, -0.403578],
  "ImageOrientationText": "Tra>Cor(-23.7)>Sag(2.8)",
  "ImageType": [
    "ORIGINAL",
    "PRIMARY",
    "M",
    "MB",
    "ND",
    "MOSAIC"
],
  "ImagingFrequency": 123.259,
  "InPlanePhaseEncodingDirectionDICOM": "COL",
  "InstitutionAddress": "Chemin Queen-Mary 4565,Montreal,District,CA,H3W 1W5",
  "InstitutionName": "IUGM",
  "InstitutionalDepartmentName": "Department",
  "MRAcquisitionType": "2D",
  "MagneticFieldStrength": 3,
  "Manufacturer": "Siemens",
  "ManufacturersModelName": "Prisma_fit",
  "MatrixCoilMode": "SENSE",
  "Modality": "MR",
  "MultibandAccelerationFactor": 4,
  "PartialFourier": 1,
  "PatientPosition": "HFS",
  "PercentPhaseFOV": 100,
  "PercentSampling": 100,
  "PhaseEncodingDirection": "j",
  "PhaseEncodingSteps": 104,
  "PhaseResolution": 1,
  "PixelBandwidth": 2290,
  "ProcedureStepDescription": "video^friends",
  "ProtocolName": "func_task-friends-s06e22b",
  "PulseSequenceDetails": "%CustomerSeq%\\cmrr_mbep2d_bold",
  "ReceiveCoilActiveElements": "HC1-7;NC1,2",
  "ReceiveCoilName": "HeadNeck_64",
  "ReconMatrixPE": 104,
  "RepetitionTime": 1.49,
  "SAR": 0.0603209,
  "ScanOptions": "FS",
  "ScanningSequence": "EP",
  "SequenceName": "epfid2d1_104",
  "SequenceVariant": "SK\\SS",
  "SeriesDescription": "func_task-friends-s06e22b",
  "SeriesNumber": 14,
  "ShimSetting": [627, -7191, -8829, 627, 92, -51, -67, 24],
  "SliceThickness": 2,
  "SliceTiming": [0, 0.785, 0.1, 0.8825, 0.1975, 0.98, 0.295, 1.08, 0.3925, 1.1775, 0.49, 1.275, 0.59, 1.3725, 0.6875, 0, 0.785, 0.1, 0.8825, 0.1975, 0.98, 0.295, 1.08, 0.3925, 1.1775, 0.49, 1.275, 0.59, 1.3725, 0.6875, 0, 0.785, 0.1, 0.8825, 0.1975, 0.98, 0.295, 1.08, 0.3925, 1.1775, 0.49, 1.275, 0.59, 1.3725, 0.6875, 0, 0.785, 0.1, 0.8825, 0.1975, 0.98, 0.295, 1.08, 0.3925, 1.1775, 0.49, 1.275, 0.59, 1.3725, 0.6875],
  "SoftwareVersions": "syngo MR E11",
  "SpacingBetweenSlices": 2,
  "StationName": "MRC35049",
  "TaskName": "s06e22b",
  "TotalReadoutTime": 0.0576811,
  "TxRefAmp": 284.136,
  "WipMemBlock": "722669a0-4ae7-4a01-b59c-7796793d8725||Sequence: R017 ve11c/master r/75a17815+; Jun 28 2022 16:32:11 by eja",
  "dcmmeta_affine": [
    [-1.9909021854400635, -0.16298224031925201, 0.0987175703048706, 108.19656372070312],
    [-0.18894653022289276, 1.822618007659912, -0.8014752864837646, -55.59152603149414],
    [0.02464909479022026, 0.8071556687355042, 1.829724669456482, -69.81603240966797],
    [0.0, 0.0, 0.0, 1.0]
],
  "dcmmeta_reorient_transform": [
    [0.0, -1.0, 0.0, 103.0],
    [1.0, 0.0, 0.0, 0.0],
    [0.0, 0.0, 1.0, 0.0],
    [0.0, 0.0, 0.0, 1.0]
],
  "dcmmeta_shape": [104, 104, 60, 486],
  "dcmmeta_slice_dim": 2,
  "dcmmeta_version": 0.6,
  "global": {
    "const": {
      "AcquisitionMatrix": [104, 0, 0, 104],
      "AngioFlag": "N",
      "BitsAllocated": 16,
      "BitsStored": 16,
      "BodyPartExamined": "BRAIN",
      "Columns": 832,
      "EchoNumbers": 1,
      "EchoTime": 37.0,
      "EchoTrainLength": 104,
      "FlipAngle": 52.0,
      "HighBit": 15,
      "ImageOrientationPatient": [0.99545110767501, 0.09447326484316, 0.01232454698878, -0.0814911192828, 0.91130902429835, -0.4035778236108],
      "ImagePositionPatient": [-756.7722633475, -864.34764015472, 298.15338334555],
      "ImageType": [
        "ORIGINAL",
        "PRIMARY",
        "M",
        "MB",
        "ND",
        "MOSAIC"
],
      "ImagedNucleus": "1H",
      "ImagingFrequency": 123.258824,
      "InPlanePhaseEncodingDirection": "COL",
      "MRAcquisitionType": "2D",
      "MagneticFieldStrength": 3.0,
      "Manufacturer": "SIEMENS",
      "ManufacturerModelName": "Prisma_fit",
      "Modality": "MR",
      "NumberOfAverages": 1.0,
      "NumberOfPhaseEncodingSteps": 104,
      "PercentPhaseFieldOfView": 100.0,
      "PercentSampling": 100.0,
      "PerformedProcedureStepStartTime": "111907.221000",
      "PhotometricInterpretation": "MONOCHROME2",
      "PixelBandwidth": 2290.0,
      "PixelRepresentation": 0,
      "PixelSpacing": [2.0, 2.0],
      "ProtocolName": "func_task-friends-s06e22b",
      "RepetitionTime": 1490.0,
      "Rows": 832,
      "SAR": 0.06032091606639,
      "SamplesPerPixel": 1,
      "ScanOptions": "FS",
      "ScanningSequence": "EP",
      "SequenceName": "epfid2d1_104",
      "SequenceVariant": [
        "SK",
        "SS"
],
      "SeriesDescription": "func_task-friends-s06e22b",
      "SeriesNumber": 14,
      "SeriesTime": "115246.029000",
      "SliceLocation": -36.253989683957,
      "SliceThickness": 2.0,
      "SmallestImagePixelValue": 0,
      "SoftwareVersions": "syngo MR E11",
      "SpacingBetweenSlices": 2.0000000302034,
      "SpecificCharacterSet": "ISO_IR 100",
      "StudyID": "1",
      "StudyTime": "111907.148000",
      "TransmitCoilName": "Body",
      "VariableFlipAngleFlag": "N",
      "WindowCenterWidthExplanation": "Algo1",
      "dBdt": 0.0},
    "slices": {}
  },
  "time": {
    "samples": {
      "AcquisitionNumber": [1, 2, 3, 4, 5, 6, 7, 8, 9, 10, 11, 12, 13, 14, 15, 16, 17, 18, 19, 20, 21, 22, 23, 24, 25, 26, 27, 28, 29, 30, 31, 32, 33, 34, 35, 36, 37, 38, 39, 40, 41, 42, 43, 44, 45, 46, 47, 48, 49, 50, 51, 52, 53, 54, 55, 56, 57, 58, 59, 60, 61, 62, 63, 64, 65, 66, 67, 68, 69, 70, 71, 72, 73, 74, 75, 76, 77, 78, 79, 80, 81, 82, 83, 84, 85, 86, 87, 88, 89, 90, 91, 92, 93, 94, 95, 96, 97, 98, 99, 100, 101, 102, 103, 104, 105, 106, 107, 108, 109, 110, 111, 112, 113, 114, 115, 116, 117, 118, 119, 120, 121, 122, 123, 124, 125, 126, 127, 128, 129, 130, 131, 132, 133, 134, 135, 136, 137, 138, 139, 140, 141, 142, 143, 144, 145, 146, 147, 148, 149, 150, 151, 152, 153, 154, 155, 156, 157, 158, 159, 160, 161, 162, 163, 164, 165, 166, 167, 168, 169, 170, 171, 172, 173, 174, 175, 176, 177, 178, 179, 180, 181, 182, 183, 184, 185, 186, 187, 188, 189, 190, 191, 192, 193, 194, 195, 196, 197, 198, 199, 200, 201, 202, 203, 204, 205, 206, 207, 208, 209, 210, 211, 212, 213, 214, 215, 216, 217, 218, 219, 220, 221, 222, 223, 224, 225, 226, 227, 228, 229, 230, 231, 232, 233, 234, 235, 236, 237, 238, 239, 240, 241, 242, 243, 244, 245, 246, 247, 248, 249, 250, 251, 252, 253, 254, 255, 256, 257, 258, 259, 260, 261, 262, 263, 264, 265, 266, 267, 268, 269, 270, 271, 272, 273, 274, 275, 276, 277, 278, 279, 280, 281, 282, 283, 284, 285, 286, 287, 288, 289, 290, 291, 292, 293, 294, 295, 296, 297, 298, 299, 300, 301, 302, 303, 304, 305, 306, 307, 308, 309, 310, 311, 312, 313, 314, 315, 316, 317, 318, 319, 320, 321, 322, 323, 324, 325, 326, 327, 328, 329, 330, 331, 332, 333, 334, 335, 336, 337, 338, 339, 340, 341, 342, 343, 344, 345, 346, 347, 348, 349, 350, 351, 352, 353, 354, 355, 356, 357, 358, 359, 360, 361, 362, 363, 364, 365, 366, 367, 368, 369, 370, 371, 372, 373, 374, 375, 376, 377, 378, 379, 380, 381, 382, 383, 384, 385, 386, 387, 388, 389, 390, 391, 392, 393, 394, 395, 396, 397, 398, 399, 400, 401, 402, 403, 404, 405, 406, 407, 408, 409, 410, 411, 412, 413, 414, 415, 416, 417, 418, 419, 420, 421, 422, 423, 424, 425, 426, 427, 428, 429, 430, 431, 432, 433, 434, 435, 436, 437, 438, 439, 440, 441, 442, 443, 444, 445, 446, 447, 448, 449, 450, 451, 452, 453, 454, 455, 456, 457, 458, 459, 460, 461, 462, 463, 464, 465, 466, 467, 468, 469, 470, 471, 472, 473, 474, 475, 476, 477, 478, 479, 480, 481, 482, 483, 484, 485, 486],
      "AcquisitionTime": ["115137.900000", "115139.390000", "115140.880000", "115142.370000", "115143.860000", "115145.350000", "115146.840000", "115148.330000", "115149.820000", "115151.310000", "115152.800000", "115154.290000", "115155.780000", "115157.270000", "115158.760000", "115200.250000", "115201.740000", "115203.230000", "115204.720000", "115206.210000", "115207.700000", "115209.190000", "115210.680000", "115212.170000", "115213.660000", "115215.150000", "115216.640000", "115218.130000", "115219.620000", "115221.110000", "115222.600000", "115224.090000", "115225.580000", "115227.070000", "115228.560000", "115230.050000", "115231.540000", "115233.030000", "115234.520000", "115236.010000", "115237.500000", "115238.990000", "115240.480000", "115241.970000", "115243.460000", "115244.950000", "115246.440000", "115247.930000", "115249.420000", "115250.910000", "115252.400000", "115253.890000", "115255.380000", "115256.870000", "115258.360000", "115259.850000", "115301.340000", "115302.830000", "115304.320000", "115305.810000", "115307.300000", "115308.790000", "115310.280000", "115311.770000", "115313.260000", "115314.750000", "115316.240000", "115317.730000", "115319.220000", "115320.710000", "115322.200000", "115323.690000", "115325.180000", "115326.670000", "115328.160000", "115329.650000", "115331.140000", "115332.630000", "115334.120000", "115335.610000", "115337.100000", "115338.590000", "115340.080000", "115341.570000", "115343.060000", "115344.550000", "115346.040000", "115347.530000", "115349.020000", "115350.510000", "115352.000000", "115353.490000", "115354.980000", "115356.470000", "115357.960000", "115359.450000", "115400.940000", "115402.430000", "115403.920000", "115405.410000", "115406.900000", "115408.390000", "115409.880000", "115411.370000", "115412.860000", "115414.350000", "115415.840000", "115417.330000", "115418.820000", "115420.310000", "115421.800000", "115423.290000", "115424.780000", "115426.270000", "115427.760000", "115429.250000", "115430.740000", "115432.230000", "115433.720000", "115435.210000", "115436.700000", "115438.190000", "115439.680000", "115441.170000", "115442.660000", "115444.150000", "115445.640000", "115447.130000", "115448.620000", "115450.110000", "115451.600000", "115453.090000", "115454.580000", "115456.070000", "115457.560000", "115459.050000", "115500.540000", "115502.030000", "115503.520000", "115505.010000", "115506.500000", "115507.990000", "115509.480000", "115510.970000", "115512.460000", "115513.950000", "115515.440000", "115516.930000", "115518.420000", "115519.910000", "115521.400000", "115522.890000", "115524.380000", "115525.870000", "115527.360000", "115528.850000", "115530.340000", "115531.830000", "115533.320000", "115534.810000", "115536.300000", "115537.790000", "115539.280000", "115540.770000", "115542.260000", "115543.750000", "115545.240000", "115546.730000", "115548.220000", "115549.710000", "115551.200000", "115552.690000", "115554.180000", "115555.670000", "115557.160000", "115558.650000", "115600.140000", "115601.630000", "115603.120000", "115604.610000", "115606.100000", "115607.590000", "115609.080000", "115610.570000", "115612.060000", "115613.550000", "115615.040000", "115616.530000", "115618.020000", "115619.510000", "115621.000000", "115622.490000", "115623.980000", "115625.470000", "115626.960000", "115628.450000", "115629.940000", "115631.430000", "115632.920000", "115634.410000", "115635.900000", "115637.390000", "115638.880000", "115640.370000", "115641.860000", "115643.350000", "115644.840000", "115646.330000", "115647.820000", "115649.310000", "115650.800000", "115652.290000", "115653.780000", "115655.270000", "115656.760000", "115658.250000", "115659.740000", "115701.230000", "115702.720000", "115704.210000", "115705.700000", "115707.190000", "115708.680000", "115710.170000", "115711.660000", "115713.150000", "115714.640000", "115716.130000", "115717.620000", "115719.110000", "115720.600000", "115722.090000", "115723.580000", "115725.070000", "115726.560000", "115728.050000", "115729.540000", "115731.030000", "115732.520000", "115734.010000", "115735.500000", "115736.990000", "115738.480000", "115739.970000", "115741.460000", "115742.950000", "115744.440000", "115745.930000", "115747.420000", "115748.910000", "115750.400000", "115751.890000", "115753.380000", "115754.870000", "115756.360000", "115757.850000", "115759.340000", "115800.830000", "115802.320000", "115803.810000", "115805.300000", "115806.790000", "115808.280000", "115809.770000", "115811.260000", "115812.750000", "115814.240000", "115815.730000", "115817.220000", "115818.710000", "115820.200000", "115821.690000", "115823.180000", "115824.670000", "115826.160000", "115827.650000", "115829.140000", "115830.630000", "115832.120000", "115833.610000", "115835.100000", "115836.590000", "115838.080000", "115839.570000", "115841.060000", "115842.550000", "115844.040000", "115845.530000", "115847.020000", "115848.510000", "115850.000000", "115851.490000", "115852.980000", "115854.470000", "115855.960000", "115857.450000", "115858.940000", "115900.430000", "115901.920000", "115903.410000", "115904.900000", "115906.390000", "115907.880000", "115909.370000", "115910.860000", "115912.350000", "115913.840000", "115915.330000", "115916.820000", "115918.310000", "115919.800000", "115921.290000", "115922.780000", "115924.270000", "115925.760000", "115927.250000", "115928.740000", "115930.230000", "115931.720000", "115933.210000", "115934.700000", "115936.190000", "115937.680000", "115939.170000", "115940.660000", "115942.150000", "115943.640000", "115945.130000", "115946.620000", "115948.110000", "115949.600000", "115951.090000", "115952.580000", "115954.070000", "115955.560000", "115957.050000", "115958.540000", "120000.030000", "120001.520000", "120003.010000", "120004.500000", "120005.990000", "120007.480000", "120008.970000", "120010.460000", "120011.950000", "120013.440000", "120014.930000", "120016.420000", "120017.910000", "120019.400000", "120020.890000", "120022.380000", "120023.870000", "120025.360000", "120026.850000", "120028.340000", "120029.830000", "120031.320000", "120032.810000", "120034.300000", "120035.790000", "120037.280000", "120038.770000", "120040.260000", "120041.750000", "120043.240000", "120044.730000", "120046.220000", "120047.710000", "120049.200000", "120050.690000", "120052.180000", "120053.670000", "120055.160000", "120056.650000", "120058.140000", "120059.630000", "120101.120000", "120102.610000", "120104.100000", "120105.590000", "120107.080000", "120108.570000", "120110.060000", "120111.550000", "120113.040000", "120114.530000", "120116.020000", "120117.510000", "120119.000000", "120120.490000", "120121.980000", "120123.470000", "120124.960000", "120126.450000", "120127.940000", "120129.430000", "120130.920000", "120132.410000", "120133.900000", "120135.390000", "120136.880000", "120138.370000", "120139.860000", "120141.350000", "120142.840000", "120144.330000", "120145.820000", "120147.310000", "120148.800000", "120150.290000", "120151.780000", "120153.270000", "120154.760000", "120156.250000", "120157.740000", "120159.230000", "120200.720000", "120202.210000", "120203.700000", "120205.190000", "120206.680000", "120208.170000", "120209.660000", "120211.150000", "120212.640000", "120214.130000", "120215.620000", "120217.110000", "120218.600000", "120220.090000", "120221.580000", "120223.070000", "120224.560000", "120226.050000", "120227.540000", "120229.030000", "120230.520000", "120232.010000", "120233.500000", "120234.990000", "120236.480000", "120237.970000", "120239.460000", "120240.950000", "120242.440000", "120243.930000", "120245.420000", "120246.910000", "120248.400000", "120249.890000", "120251.380000", "120252.870000", "120254.360000", "120255.850000", "120257.340000", "120258.830000", "120300.320000", "120301.810000", "120303.300000", "120304.790000", "120306.280000", "120307.770000", "120309.260000", "120310.750000", "120312.240000", "120313.730000", "120315.220000", "120316.710000", "120318.200000", "120319.690000", "120321.180000", "120322.670000", "120324.160000", "120325.650000", "120327.140000", "120328.630000", "120330.120000", "120331.610000", "120333.100000", "120334.590000", "120336.080000", "120337.570000", "120339.060000", "120340.550000"],
      "ContentTime": ["115246.032000", "115246.036000", "115246.039000", "115246.042000", "115246.044000", "115246.047000", "115246.050000", "115246.053000", "115246.056000", "115246.059000", "115246.062000", "115246.071000", "115246.074000", "115246.077000", "115246.080000", "115246.083000", "115246.086000", "115246.092000", "115305.994000", "115305.997000", "115306.001000", "115306.004000", "115306.007000", "115306.009000", "115306.012000", "115306.015000", "115306.018000", "115306.021000", "115306.024000", "115306.027000", "115306.029000", "115306.032000", "115306.035000", "115306.038000", "115306.041000", "115306.044000", "115306.047000", "115306.057000", "115325.994000", "115326.006000", "115326.009000", "115326.012000", "115326.021000", "115326.024000", "115326.027000", "115326.030000", "115326.033000", "115326.035000", "115326.039000", "115326.041000", "115326.044000", "115326.047000", "115326.050000", "115326.053000", "115326.056000", "115326.059000", "115326.062000", "115326.065000", "115345.994000", "115345.997000", "115346.001000", "115346.004000", "115346.007000", "115346.010000", "115346.013000", "115346.015000", "115346.018000", "115346.021000", "115346.024000", "115346.027000", "115346.030000", "115346.033000", "115346.036000", "115346.038000", "115346.041000", "115346.044000", "115346.047000", "115346.050000", "115346.052000", "115425.995000", "115425.998000", "115426.002000", "115426.005000", "115426.008000", "115426.011000", "115426.013000", "115426.016000", "115426.019000", "115426.022000", "115426.025000", "115426.028000", "115426.031000", "115426.034000", "115426.037000", "115426.039000", "115426.042000", "115426.045000", "115426.048000", "115426.051000", "115426.054000", "115426.057000", "115426.059000", "115426.062000", "115426.065000", "115426.068000", "115426.071000", "115426.074000", "115426.077000", "115426.080000", "115426.083000", "115426.086000", "115426.088000", "115505.994000", "115505.997000", "115506.001000", "115506.004000", "115506.007000", "115506.010000", "115506.013000", "115506.015000", "115506.018000", "115506.021000", "115506.024000", "115506.027000", "115506.030000", "115506.033000", "115506.036000", "115506.038000", "115506.041000", "115506.044000", "115506.047000", "115506.050000", "115506.053000", "115506.056000", "115506.059000", "115506.061000", "115506.064000", "115506.067000", "115506.070000", "115545.994000", "115545.997000", "115546.001000", "115546.004000", "115546.007000", "115546.010000", "115546.013000", "115546.016000", "115546.019000", "115546.022000", "115546.025000", "115546.027000", "115546.030000", "115546.033000", "115546.036000", "115546.039000", "115546.042000", "115546.045000", "115546.048000", "115546.052000", "115546.055000", "115546.058000", "115546.061000", "115546.064000", "115546.067000", "115546.070000", "115625.995000", "115625.998000", "115626.001000", "115626.004000", "115626.007000", "115626.010000", "115626.013000", "115626.016000", "115626.019000", "115626.022000", "115626.025000", "115626.027000", "115626.030000", "115626.033000", "115626.036000", "115626.039000", "115626.042000", "115626.045000", "115626.048000", "115626.050000", "115626.053000", "115626.056000", "115626.059000", "115626.062000", "115626.065000", "115626.068000", "115626.071000", "115705.995000", "115705.998000", "115706.002000", "115706.005000", "115706.008000", "115706.011000", "115706.014000", "115706.017000", "115706.020000", "115706.023000", "115706.026000", "115706.028000", "115706.031000", "115706.034000", "115706.037000", "115706.040000", "115706.043000", "115706.046000", "115706.049000", "115706.052000", "115706.055000", "115706.058000", "115706.061000", "115706.074000", "115706.077000", "115706.080000", "115706.083000", "115745.994000", "115745.997000", "115746.001000", "115746.009000", "115746.012000", "115746.015000", "115746.018000", "115746.021000", "115746.024000", "115746.027000", "115746.029000", "115746.033000", "115746.035000", "115746.038000", "115746.041000", "115746.044000", "115746.047000", "115746.050000", "115746.053000", "115746.056000", "115746.059000", "115746.074000", "115746.077000", "115746.080000", "115746.083000", "115746.086000", "115746.089000", "115825.994000", "115825.997000", "115826.001000", "115826.004000", "115826.006000", "115826.009000", "115826.012000", "115826.015000", "115826.018000", "115826.021000", "115826.024000", "115826.027000", "115826.030000", "115826.033000", "115826.036000", "115826.039000", "115826.041000", "115826.044000", "115826.047000", "115826.050000", "115826.053000", "115826.056000", "115826.059000", "115826.062000", "115826.065000", "115826.067000", "115826.070000", "115905.995000", "115905.998000", "115906.002000", "115906.005000", "115906.008000", "115906.011000", "115906.014000", "115906.016000", "115906.019000", "115906.022000", "115906.025000", "115906.028000", "115906.031000", "115906.034000", "115906.037000", "115906.040000", "115906.043000", "115906.045000", "115906.048000", "115906.051000", "115906.054000", "115906.057000", "115906.060000", "115906.063000", "115906.066000", "115906.068000", "115906.071000", "115945.994000", "115945.997000", "115946.001000", "115946.004000", "115946.007000", "115946.010000", "115946.013000", "115946.015000", "115946.018000", "115946.021000", "115946.024000", "115946.027000", "115946.030000", "115946.033000", "115946.036000", "115946.049000", "115946.053000", "115946.056000", "115946.058000", "115946.062000", "115946.065000", "115946.069000", "115946.072000", "115946.075000", "115946.078000", "115946.081000", "120025.994000", "120025.997000", "120026.001000", "120026.004000", "120026.007000", "120026.010000", "120026.013000", "120026.016000", "120026.019000", "120026.021000", "120026.024000", "120026.027000", "120026.030000", "120026.033000", "120026.036000", "120026.039000", "120026.042000", "120026.045000", "120026.048000", "120026.050000", "120026.053000", "120026.056000", "120026.059000", "120026.062000", "120026.065000", "120026.068000", "120026.071000", "120105.995000", "120105.998000", "120106.002000", "120106.005000", "120106.008000", "120106.010000", "120106.013000", "120106.016000", "120106.019000", "120106.022000", "120106.025000", "120106.028000", "120106.031000", "120106.034000", "120106.037000", "120106.039000", "120106.042000", "120106.045000", "120106.048000", "120106.051000", "120106.054000", "120106.057000", "120106.060000", "120106.063000", "120106.066000", "120106.068000", "120106.071000", "120145.995000", "120145.998000", "120146.002000", "120146.005000", "120146.008000", "120146.015000", "120146.018000", "120146.021000", "120146.024000", "120146.027000", "120146.030000", "120146.033000", "120146.036000", "120146.039000", "120146.042000", "120146.045000", "120146.048000", "120146.051000", "120146.054000", "120146.056000", "120146.059000", "120146.062000", "120146.065000", "120146.068000", "120146.071000", "120146.074000", "120146.077000", "120225.994000", "120225.997000", "120226.001000", "120226.004000", "120226.007000", "120226.009000", "120226.012000", "120226.015000", "120226.029000", "120226.032000", "120226.035000", "120226.038000", "120226.041000", "120226.044000", "120226.047000", "120226.050000", "120226.053000", "120226.056000", "120226.058000", "120226.061000", "120226.064000", "120226.067000", "120226.070000", "120226.073000", "120226.076000", "120226.079000", "120226.082000", "120305.994000", "120305.997000", "120306.001000", "120306.004000", "120306.007000", "120306.027000", "120306.030000", "120306.033000", "120306.036000", "120306.039000", "120306.042000", "120306.045000", "120306.048000", "120306.051000", "120306.054000", "120306.057000", "120306.060000", "120306.063000", "120306.066000", "120306.069000", "120306.072000", "120306.074000", "120306.078000", "120306.081000", "120306.084000", "120306.086000", "120306.089000", "120343.188000", "120343.206000", "120343.209000", "120343.212000", "120343.215000", "120343.219000", "120343.222000", "120343.225000", "120343.228000", "120343.231000", "120343.234000", "120343.238000", "120343.241000", "120343.244000", "120343.247000", "120343.250000", "120343.253000", "120343.256000", "120343.259000", "120343.267000", "120343.269000", "120343.273000", "120343.276000", "120343.278000", "120343.281000"],
