{
  "AcquisitionMatrixPE": 104,
  "AcquisitionNumber": 1,
  "AcquisitionTime": "11:38:54.612500",
  "BandwidthPerPixelPhaseEncode": 17.17,
  "BaseResolution": 104,
  "BodyPartExamined": "BRAIN",
  "CoilCombinationMethod": "Sum of Squares",
  "ConsistencyInfo": "N4_VE11C_LATEST_20160120",
  "ConversionSoftware": "dcm2niix",
  "ConversionSoftwareVersion": "v1.0.20220505",
  "DerivedVendorReportedEchoSpacing": 0.000560011,
  "DeviceSerialNumber": "167006",
  "DwellTime": 2.1e-06,
  "EchoTime": 0.037,
  "EchoTrainLength": 104,
  "EffectiveEchoSpacing": 0.000560011,
  "FlipAngle": 52,
  "HeudiconvVersion": "0.5.3.post811+g6206e14",
  "ImageComments": "Unaliased MB4/PE3/LB",
  "ImageOrientationPatientDICOM": [0.995451, 0.0944733, 0.0123245, -0.0814911, 0.911309, -0.403578],
  "ImageOrientationText": "Tra>Cor(-23.7)>Sag(2.8)",
  "ImageType": [
    "ORIGINAL",
    "PRIMARY",
    "M",
    "MB",
    "ND",
    "MOSAIC"
],
  "ImagingFrequency": 123.259,
  "InPlanePhaseEncodingDirectionDICOM": "COL",
  "InstitutionAddress": "Chemin Queen-Mary 4565,Montreal,District,CA,H3W 1W5",
  "InstitutionName": "IUGM",
  "InstitutionalDepartmentName": "Department",
  "MRAcquisitionType": "2D",
  "MagneticFieldStrength": 3,
  "Manufacturer": "Siemens",
  "ManufacturersModelName": "Prisma_fit",
  "MatrixCoilMode": "SENSE",
  "Modality": "MR",
  "MultibandAccelerationFactor": 4,
  "PartialFourier": 1,
  "PatientPosition": "HFS",
  "PercentPhaseFOV": 100,
  "PercentSampling": 100,
  "PhaseEncodingDirection": "j",
  "PhaseEncodingSteps": 104,
  "PhaseResolution": 1,
  "PixelBandwidth": 2290,
  "ProcedureStepDescription": "video^friends",
  "ProtocolName": "func_task-friends-s06e22a",
  "PulseSequenceDetails": "%CustomerSeq%\\cmrr_mbep2d_bold",
  "ReceiveCoilActiveElements": "HC1-7;NC1,2",
  "ReceiveCoilName": "HeadNeck_64",
  "ReconMatrixPE": 104,
  "RepetitionTime": 1.49,
  "SAR": 0.0603209,
  "ScanOptions": "FS",
  "ScanningSequence": "EP",
  "SequenceName": "epfid2d1_104",
  "SequenceVariant": "SK\\SS",
  "SeriesDescription": "func_task-friends-s06e22a",
  "SeriesNumber": 12,
  "ShimSetting": [627, -7191, -8829, 627, 92, -51, -67, 24],
  "SliceThickness": 2,
  "SliceTiming": [0, 0.7825, 0.0975, 0.8825, 0.195, 0.98, 0.2925, 1.0775, 0.3925, 1.175, 0.49, 1.2725, 0.5875, 1.3725, 0.685, 0, 0.7825, 0.0975, 0.8825, 0.195, 0.98, 0.2925, 1.0775, 0.3925, 1.175, 0.49, 1.2725, 0.5875, 1.3725, 0.685, 0, 0.7825, 0.0975, 0.8825, 0.195, 0.98, 0.2925, 1.0775, 0.3925, 1.175, 0.49, 1.2725, 0.5875, 1.3725, 0.685, 0, 0.7825, 0.0975, 0.8825, 0.195, 0.98, 0.2925, 1.0775, 0.3925, 1.175, 0.49, 1.2725, 0.5875, 1.3725, 0.685],
  "SoftwareVersions": "syngo MR E11",
  "SpacingBetweenSlices": 2,
  "StationName": "MRC35049",
  "TaskName": "s06e22a",
  "TotalReadoutTime": 0.0576811,
  "TxRefAmp": 284.136,
  "WipMemBlock": "ce69b4a7-eee2-422a-9339-9ab29186e81e||Sequence: R017 ve11c/master r/75a17815+; Jun 28 2022 16:32:11 by eja",
  "dcmmeta_affine": [
    [-1.9909021854400635, -0.16298224031925201, 0.0987175703048706, 108.19656372070312],
    [-0.18894653022289276, 1.822618007659912, -0.8014752864837646, -55.59152603149414],
    [0.02464909479022026, 0.8071556687355042, 1.829724669456482, -69.81603240966797],
    [0.0, 0.0, 0.0, 1.0]
],
  "dcmmeta_reorient_transform": [
    [0.0, -1.0, 0.0, 103.0],
    [1.0, 0.0, 0.0, 0.0],
    [0.0, 0.0, 1.0, 0.0],
    [0.0, 0.0, 0.0, 1.0]
],
  "dcmmeta_shape": [104, 104, 60, 452],
  "dcmmeta_slice_dim": 2,
  "dcmmeta_version": 0.6,
  "global": {
    "const": {
      "AcquisitionMatrix": [104, 0, 0, 104],
      "AngioFlag": "N",
      "BitsAllocated": 16,
      "BitsStored": 16,
      "BodyPartExamined": "BRAIN",
      "Columns": 832,
      "EchoNumbers": 1,
      "EchoTime": 37.0,
      "EchoTrainLength": 104,
      "FlipAngle": 52.0,
      "HighBit": 15,
      "ImageOrientationPatient": [0.99545110767501, 0.09447326484316, 0.01232454698878, -0.0814911192828, 0.91130902429835, -0.4035778236108],
      "ImagePositionPatient": [-756.7722633475, -864.34764015472, 298.15338334555],
      "ImageType": [
        "ORIGINAL",
        "PRIMARY",
        "M",
        "MB",
        "ND",
        "MOSAIC"
],
      "ImagedNucleus": "1H",
      "ImagingFrequency": 123.258822,
      "InPlanePhaseEncodingDirection": "COL",
      "MRAcquisitionType": "2D",
      "MagneticFieldStrength": 3.0,
      "Manufacturer": "SIEMENS",
      "ManufacturerModelName": "Prisma_fit",
      "Modality": "MR",
      "NumberOfAverages": 1.0,
      "NumberOfPhaseEncodingSteps": 104,
      "PercentPhaseFieldOfView": 100.0,
      "PercentSampling": 100.0,
      "PerformedProcedureStepStartTime": "111907.221000",
      "PhotometricInterpretation": "MONOCHROME2",
      "PixelBandwidth": 2290.0,
      "PixelRepresentation": 0,
      "PixelSpacing": [2.0, 2.0],
      "ProtocolName": "func_task-friends-s06e22a",
      "RepetitionTime": 1490.0,
      "Rows": 832,
      "SAR": 0.06032091029816,
      "SamplesPerPixel": 1,
      "ScanOptions": "FS",
      "ScanningSequence": "EP",
      "SequenceName": "epfid2d1_104",
      "SequenceVariant": [
        "SK",
        "SS"
],
      "SeriesDescription": "func_task-friends-s06e22a",
      "SeriesNumber": 12,
      "SeriesTime": "114022.542000",
      "SliceLocation": -36.253989683957,
      "SliceThickness": 2.0,
      "SmallestImagePixelValue": 0,
      "SoftwareVersions": "syngo MR E11",
      "SpacingBetweenSlices": 2.0000000302034,
      "SpecificCharacterSet": "ISO_IR 100",
      "StudyID": "1",
      "StudyTime": "111907.148000",
      "TransmitCoilName": "Body",
      "VariableFlipAngleFlag": "N",
      "WindowCenterWidthExplanation": "Algo1",
      "dBdt": 0.0},
    "slices": {}
  },
  "time": {
    "samples": {
      "AcquisitionNumber": [1, 2, 3, 4, 5, 6, 7, 8, 9, 10, 11, 12, 13, 14, 15, 16, 17, 18, 19, 20, 21, 22, 23, 24, 25, 26, 27, 28, 29, 30, 31, 32, 33, 34, 35, 36, 37, 38, 39, 40, 41, 42, 43, 44, 45, 46, 47, 48, 49, 50, 51, 52, 53, 54, 55, 56, 57, 58, 59, 60, 61, 62, 63, 64, 65, 66, 67, 68, 69, 70, 71, 72, 73, 74, 75, 76, 77, 78, 79, 80, 81, 82, 83, 84, 85, 86, 87, 88, 89, 90, 91, 92, 93, 94, 95, 96, 97, 98, 99, 100, 101, 102, 103, 104, 105, 106, 107, 108, 109, 110, 111, 112, 113, 114, 115, 116, 117, 118, 119, 120, 121, 122, 123, 124, 125, 126, 127, 128, 129, 130, 131, 132, 133, 134, 135, 136, 137, 138, 139, 140, 141, 142, 143, 144, 145, 146, 147, 148, 149, 150, 151, 152, 153, 154, 155, 156, 157, 158, 159, 160, 161, 162, 163, 164, 165, 166, 167, 168, 169, 170, 171, 172, 173, 174, 175, 176, 177, 178, 179, 180, 181, 182, 183, 184, 185, 186, 187, 188, 189, 190, 191, 192, 193, 194, 195, 196, 197, 198, 199, 200, 201, 202, 203, 204, 205, 206, 207, 208, 209, 210, 211, 212, 213, 214, 215, 216, 217, 218, 219, 220, 221, 222, 223, 224, 225, 226, 227, 228, 229, 230, 231, 232, 233, 234, 235, 236, 237, 238, 239, 240, 241, 242, 243, 244, 245, 246, 247, 248, 249, 250, 251, 252, 253, 254, 255, 256, 257, 258, 259, 260, 261, 262, 263, 264, 265, 266, 267, 268, 269, 270, 271, 272, 273, 274, 275, 276, 277, 278, 279, 280, 281, 282, 283, 284, 285, 286, 287, 288, 289, 290, 291, 292, 293, 294, 295, 296, 297, 298, 299, 300, 301, 302, 303, 304, 305, 306, 307, 308, 309, 310, 311, 312, 313, 314, 315, 316, 317, 318, 319, 320, 321, 322, 323, 324, 325, 326, 327, 328, 329, 330, 331, 332, 333, 334, 335, 336, 337, 338, 339, 340, 341, 342, 343, 344, 345, 346, 347, 348, 349, 350, 351, 352, 353, 354, 355, 356, 357, 358, 359, 360, 361, 362, 363, 364, 365, 366, 367, 368, 369, 370, 371, 372, 373, 374, 375, 376, 377, 378, 379, 380, 381, 382, 383, 384, 385, 386, 387, 388, 389, 390, 391, 392, 393, 394, 395, 396, 397, 398, 399, 400, 401, 402, 403, 404, 405, 406, 407, 408, 409, 410, 411, 412, 413, 414, 415, 416, 417, 418, 419, 420, 421, 422, 423, 424, 425, 426, 427, 428, 429, 430, 431, 432, 433, 434, 435, 436, 437, 438, 439, 440, 441, 442, 443, 444, 445, 446, 447, 448, 449, 450, 451, 452],
      "AcquisitionTime": ["113854.612500", "113856.102500", "113857.592500", "113859.082500", "113900.572500", "113902.062500", "113903.552500", "113905.042500", "113906.532500", "113908.022500", "113909.512500", "113911.002500", "113912.492500", "113913.982500", "113915.472500", "113916.962500", "113918.452500", "113919.942500", "113921.432500", "113922.922500", "113924.412500", "113925.902500", "113927.392500", "113928.882500", "113930.372500", "113931.862500", "113933.352500", "113934.842500", "113936.332500", "113937.822500", "113939.312500", "113940.802500", "113942.292500", "113943.782500", "113945.272500", "113946.762500", "113948.252500", "113949.742500", "113951.232500", "113952.722500", "113954.212500", "113955.702500", "113957.192500", "113958.682500", "114000.172500", "114001.662500", "114003.152500", "114004.642500", "114006.132500", "114007.622500", "114009.112500", "114010.602500", "114012.092500", "114013.582500", "114015.072500", "114016.562500", "114018.052500", "114019.542500", "114021.032500", "114022.522500", "114024.012500", "114025.502500", "114026.992500", "114028.482500", "114029.972500", "114031.462500", "114032.952500", "114034.442500", "114035.932500", "114037.422500", "114038.912500", "114040.402500", "114041.892500", "114043.382500", "114044.872500", "114046.362500", "114047.852500", "114049.342500", "114050.832500", "114052.322500", "114053.812500", "114055.302500", "114056.792500", "114058.282500", "114059.772500", "114101.262500", "114102.752500", "114104.242500", "114105.732500", "114107.222500", "114108.712500", "114110.202500", "114111.692500", "114113.182500", "114114.672500", "114116.162500", "114117.652500", "114119.142500", "114120.632500", "114122.122500", "114123.612500", "114125.102500", "114126.592500", "114128.082500", "114129.572500", "114131.062500", "114132.552500", "114134.042500", "114135.532500", "114137.022500", "114138.512500", "114140.002500", "114141.492500", "114142.982500", "114144.472500", "114145.962500", "114147.452500", "114148.942500", "114150.432500", "114151.922500", "114153.412500", "114154.902500", "114156.392500", "114157.882500", "114159.372500", "114200.862500", "114202.352500", "114203.842500", "114205.332500", "114206.822500", "114208.312500", "114209.802500", "114211.292500", "114212.782500", "114214.272500", "114215.762500", "114217.252500", "114218.742500", "114220.232500", "114221.722500", "114223.212500", "114224.702500", "114226.192500", "114227.682500", "114229.172500", "114230.662500", "114232.152500", "114233.642500", "114235.132500", "114236.622500", "114238.112500", "114239.602500", "114241.092500", "114242.582500", "114244.072500", "114245.562500", "114247.052500", "114248.542500", "114250.032500", "114251.522500", "114253.012500", "114254.502500", "114255.992500", "114257.482500", "114258.972500", "114300.462500", "114301.952500", "114303.442500", "114304.932500", "114306.422500", "114307.912500", "114309.402500", "114310.892500", "114312.382500", "114313.872500", "114315.362500", "114316.852500", "114318.342500", "114319.832500", "114321.322500", "114322.812500", "114324.302500", "114325.792500", "114327.282500", "114328.772500", "114330.262500", "114331.752500", "114333.242500", "114334.732500", "114336.222500", "114337.712500", "114339.202500", "114340.692500", "114342.182500", "114343.672500", "114345.162500", "114346.652500", "114348.142500", "114349.632500", "114351.122500", "114352.612500", "114354.102500", "114355.592500", "114357.082500", "114358.572500", "114400.062500", "114401.552500", "114403.042500", "114404.532500", "114406.022500", "114407.512500", "114409.002500", "114410.492500", "114411.982500", "114413.472500", "114414.962500", "114416.452500", "114417.942500", "114419.432500", "114420.922500", "114422.412500", "114423.902500", "114425.392500", "114426.882500", "114428.372500", "114429.862500", "114431.352500", "114432.842500", "114434.332500", "114435.822500", "114437.312500", "114438.802500", "114440.292500", "114441.782500", "114443.272500", "114444.762500", "114446.252500", "114447.742500", "114449.232500", "114450.722500", "114452.212500", "114453.702500", "114455.192500", "114456.682500", "114458.172500", "114459.662500", "114501.152500", "114502.642500", "114504.132500", "114505.622500", "114507.112500", "114508.602500", "114510.092500", "114511.582500", "114513.072500", "114514.562500", "114516.052500", "114517.542500", "114519.032500", "114520.522500", "114522.012500", "114523.502500", "114524.992500", "114526.482500", "114527.972500", "114529.462500", "114530.952500", "114532.442500", "114533.932500", "114535.422500", "114536.912500", "114538.402500", "114539.892500", "114541.382500", "114542.872500", "114544.362500", "114545.852500", "114547.342500", "114548.832500", "114550.322500", "114551.812500", "114553.302500", "114554.792500", "114556.282500", "114557.772500", "114559.262500", "114600.752500", "114602.242500", "114603.732500", "114605.222500", "114606.712500", "114608.202500", "114609.692500", "114611.182500", "114612.672500", "114614.162500", "114615.652500", "114617.142500", "114618.632500", "114620.122500", "114621.612500", "114623.102500", "114624.592500", "114626.082500", "114627.572500", "114629.062500", "114630.552500", "114632.042500", "114633.532500", "114635.022500", "114636.512500", "114638.002500", "114639.492500", "114640.982500", "114642.472500", "114643.962500", "114645.452500", "114646.942500", "114648.432500", "114649.922500", "114651.412500", "114652.902500", "114654.392500", "114655.882500", "114657.372500", "114658.862500", "114700.352500", "114701.842500", "114703.332500", "114704.822500", "114706.312500", "114707.802500", "114709.292500", "114710.782500", "114712.272500", "114713.762500", "114715.252500", "114716.742500", "114718.232500", "114719.722500", "114721.212500", "114722.702500", "114724.192500", "114725.682500", "114727.172500", "114728.662500", "114730.152500", "114731.642500", "114733.132500", "114734.622500", "114736.112500", "114737.602500", "114739.092500", "114740.582500", "114742.072500", "114743.562500", "114745.052500", "114746.542500", "114748.032500", "114749.522500", "114751.012500", "114752.502500", "114753.992500", "114755.482500", "114756.972500", "114758.462500", "114759.952500", "114801.442500", "114802.932500", "114804.422500", "114805.912500", "114807.402500", "114808.892500", "114810.382500", "114811.872500", "114813.362500", "114814.852500", "114816.342500", "114817.832500", "114819.322500", "114820.812500", "114822.302500", "114823.792500", "114825.282500", "114826.772500", "114828.262500", "114829.752500", "114831.242500", "114832.732500", "114834.222500", "114835.712500", "114837.202500", "114838.692500", "114840.182500", "114841.672500", "114843.162500", "114844.652500", "114846.142500", "114847.632500", "114849.122500", "114850.612500", "114852.102500", "114853.592500", "114855.082500", "114856.572500", "114858.062500", "114859.552500", "114901.042500", "114902.532500", "114904.022500", "114905.512500", "114907.002500", "114908.492500", "114909.982500", "114911.472500", "114912.962500", "114914.452500", "114915.942500", "114917.432500", "114918.922500", "114920.412500", "114921.902500", "114923.392500", "114924.882500", "114926.372500", "114927.862500", "114929.352500", "114930.842500", "114932.332500", "114933.822500", "114935.312500", "114936.802500", "114938.292500", "114939.782500", "114941.272500", "114942.762500", "114944.252500", "114945.742500", "114947.232500", "114948.722500", "114950.212500", "114951.702500", "114953.192500", "114954.682500", "114956.172500", "114957.662500", "114959.152500", "115000.642500", "115002.132500", "115003.622500", "115005.112500", "115006.602500"],
      "ContentTime": ["114022.545000", "114022.549000", "114022.552000", "114022.555000", "114022.559000", "114022.562000", "114022.566000", "114022.569000", "114022.572000", "114022.576000", "114022.579000", "114022.583000", "114022.586000", "114022.589000", "114022.593000", "114022.597000", "114022.600000", "114022.603000", "114022.607000", "114022.611000", "114022.614000", "114022.618000", "114022.621000", "114022.625000", "114022.628000", "114022.631000", "114022.635000", "114022.638000", "114022.641000", "114022.645000", "114022.648000", "114022.652000", "114022.655000", "114022.659000", "114022.666000", "114022.670000", "114022.673000", "114022.677000", "114022.680000", "114042.508000", "114042.511000", "114042.514000", "114042.516000", "114042.519000", "114042.522000", "114042.525000", "114042.528000", "114042.531000", "114042.534000", "114042.536000", "114042.539000", "114042.542000", "114042.545000", "114042.548000", "114042.551000", "114042.554000", "114042.556000", "114042.559000", "114042.562000", "114102.508000", "114102.511000", "114102.514000", "114102.517000", "114102.520000", "114102.523000", "114102.526000", "114102.529000", "114102.531000", "114102.534000", "114102.537000", "114102.540000", "114102.543000", "114102.546000", "114102.549000", "114102.552000", "114102.554000", "114102.557000", "114102.560000", "114102.563000", "114122.508000", "114122.511000", "114122.514000", "114122.517000", "114122.520000", "114122.522000", "114122.525000", "114122.528000", "114122.531000", "114122.534000", "114122.537000", "114122.540000", "114122.543000", "114122.546000", "114122.549000", "114122.551000", "114122.554000", "114122.557000", "114122.560000", "114122.563000", "114142.508000", "114142.511000", "114142.514000", "114142.517000", "114142.520000", "114142.522000", "114142.525000", "114142.536000", "114142.539000", "114142.542000", "114142.545000", "114142.547000", "114142.550000", "114222.507000", "114222.510000", "114222.513000", "114222.521000", "114222.523000", "114222.526000", "114222.529000", "114222.532000", "114222.535000", "114222.538000", "114222.541000", "114222.544000", "114222.547000", "114222.549000", "114222.552000", "114222.555000", "114222.558000", "114222.561000", "114222.564000", "114222.567000", "114222.570000", "114222.573000", "114222.576000", "114222.578000", "114222.581000", "114222.584000", "114222.587000", "114302.508000", "114302.511000", "114302.514000", "114302.517000", "114302.519000", "114302.522000", "114302.525000", "114302.528000", "114302.531000", "114302.534000", "114302.537000", "114302.540000", "114302.543000", "114302.545000", "114302.548000", "114302.551000", "114302.554000", "114302.557000", "114302.560000", "114302.563000", "114302.565000", "114302.568000", "114302.571000", "114302.574000", "114302.577000", "114302.580000", "114302.583000", "114342.508000", "114342.511000", "114342.514000", "114342.517000", "114342.519000", "114342.522000", "114342.525000", "114342.528000", "114342.531000", "114342.534000", "114342.537000", "114342.540000", "114342.543000", "114342.545000", "114342.548000", "114342.551000", "114342.554000", "114342.557000", "114342.560000", "114342.563000", "114342.566000", "114342.569000", "114342.571000", "114342.574000", "114342.577000", "114342.580000", "114342.583000", "114422.507000", "114422.510000", "114422.513000", "114422.524000", "114422.527000", "114422.530000", "114422.533000", "114422.536000", "114422.539000", "114422.541000", "114422.544000", "114422.547000", "114422.550000", "114422.553000", "114422.556000", "114422.564000", "114422.567000", "114422.570000", "114422.573000", "114422.576000", "114422.579000", "114422.582000", "114422.585000", "114422.587000", "114422.590000", "114422.593000", "114502.507000", "114502.510000", "114502.513000", "114502.516000", "114502.518000", "114502.521000", "114502.524000", "114502.527000", "114502.530000", "114502.533000", "114502.536000", "114502.539000", "114502.542000", "114502.545000", "114502.548000", "114502.550000", "114502.553000", "114502.556000", "114502.559000", "114502.562000", "114502.565000", "114502.568000", "114502.571000", "114502.574000", "114502.576000", "114502.579000", "114502.582000", "114542.508000", "114542.511000", "114542.514000", "114542.517000", "114542.520000", "114542.523000", "114542.526000", "114542.529000", "114542.532000", "114542.535000", "114542.537000", "114542.540000", "114542.543000", "114542.546000", "114542.549000", "114542.552000", "114542.555000", "114542.558000", "114542.560000", "114542.563000", "114542.566000", "114542.569000", "114542.572000", "114542.575000", "114542.578000", "114542.581000", "114542.584000", "114622.508000", "114622.511000", "114622.514000", "114622.517000", "114622.519000", "114622.522000", "114622.525000", "114622.533000", "114622.536000", "114622.539000", "114622.542000", "114622.545000", "114622.548000", "114622.550000", "114622.553000", "114622.556000", "114622.559000", "114622.562000", "114622.565000", "114622.568000", "114622.571000", "114622.574000", "114622.577000", "114622.580000", "114622.583000", "114622.585000", "114622.588000", "114702.507000", "114702.510000", "114702.513000", "114702.516000", "114702.519000", "114702.522000", "114702.525000", "114702.527000", "114702.546000", "114702.549000", "114702.552000", "114702.555000", "114702.558000", "114702.561000", "114702.564000", "114702.567000", "114702.570000", "114702.573000", "114702.576000", "114702.578000", "114702.581000", "114702.584000", "114702.587000", "114702.590000", "114702.593000", "114702.596000", "114702.599000", "114742.508000", "114742.511000", "114742.514000", "114742.517000", "114742.520000", "114742.523000", "114742.525000", "114742.528000", "114742.531000", "114742.534000", "114742.537000", "114742.540000", "114742.543000", "114742.546000", "114742.549000", "114742.552000", "114742.554000", "114742.557000", "114742.560000", "114742.563000", "114742.566000", "114742.569000", "114742.572000", "114742.575000", "114742.578000", "114742.580000", "114742.583000", "114822.508000", "114822.511000", "114822.515000", "114822.518000", "114822.521000", "114822.524000", "114822.527000", "114822.530000", "114822.533000", "114822.536000", "114822.539000", "114822.542000", "114822.545000", "114822.548000", "114822.551000", "114822.554000", "114822.557000", "114822.559000", "114822.562000", "114822.565000", "114822.568000", "114822.571000", "114822.574000", "114822.577000", "114822.580000", "114822.583000", "114902.507000", "114902.510000", "114902.513000", "114902.516000", "114902.519000", "114902.522000", "114902.524000", "114902.527000", "114902.530000", "114902.533000", "114902.536000", "114902.539000", "114902.542000", "114902.545000", "114902.548000", "114902.551000", "114902.553000", "114902.556000", "114902.559000", "114902.562000", "114902.565000", "114902.568000", "114902.571000", "114902.574000", "114902.577000", "114902.580000", "114902.582000", "114942.507000", "114942.510000", "114942.513000", "114942.516000", "114942.519000", "114942.522000", "114942.524000", "114942.527000", "114942.530000", "114942.533000", "114942.536000", "114942.539000", "114942.542000", "114942.545000", "114942.548000", "114942.550000", "114942.553000", "114942.556000", "114942.559000", "114942.562000", "114942.565000", "114942.567000", "114942.570000", "114942.573000", "114942.576000", "114942.579000", "114942.582000", "115008.347000", "115008.350000", "115008.353000", "115008.356000", "115008.358000", "115008.361000", "115008.364000", "115008.367000", "115008.370000", "115008.373000", "115008.376000", "115008.379000", "115008.382000", "115008.385000", "115008.388000", "115008.390000", "115008.393000", "115008.396000"],
