{
  "AcquisitionMatrixPE": 104,
  "AcquisitionNumber": 1,
  "AcquisitionTime": "10:22:37.750000",
  "BandwidthPerPixelPhaseEncode": 17.17,
  "BaseResolution": 104,
  "BodyPartExamined": "BRAIN",
  "CoilString": "HC1-7;NC1_2",
  "ConsistencyInfo": "N4_VE11C_LATEST_20160120",
  "ConversionSoftware": "dcm2niix",
  "ConversionSoftwareVersion": "v1.0.20190720  (JP2:OpenJPEG) GCC7.3.0",
  "DerivedVendorReportedEchoSpacing": 0.000560011,
  "DeviceSerialNumber": "167006",
  "DwellTime": 2.1e-06,
  "EchoTime": 0.037,
  "EchoTrainLength": 104,
  "EffectiveEchoSpacing": 0.000560011,
  "FlipAngle": 52,
  "ImageComments": "Unaliased_MB4_PE3_LB",
  "ImageOrientationPatientDICOM": [0.999729, -0.0232729, 0.000914167, 0.0221633, 0.938532, -0.344481],
  "ImageType": [
    "ORIGINAL",
    "PRIMARY",
    "M",
    "MB",
    "ND",
    "MOSAIC"
],
  "ImagingFrequency": 123.259,
  "InPlanePhaseEncodingDirectionDICOM": "COL",
  "InstitutionAddress": "Chemin_Queen-Mary_4565_Montreal_District_CA_H3W_1W5",
  "InstitutionName": "IUGM",
  "InstitutionalDepartmentName": "Department",
  "MRAcquisitionType": "2D",
  "MagneticFieldStrength": 3,
  "Manufacturer": "Siemens",
  "ManufacturersModelName": "Prisma_fit",
  "Modality": "MR",
  "MultibandAccelerationFactor": 4,
  "PartialFourier": 1,
  "PatientPosition": "HFS",
  "PercentPhaseFOV": 100,
  "PhaseEncodingDirection": "j",
  "PhaseEncodingSteps": 104,
  "PhaseResolution": 1,
  "PixelBandwidth": 2290,
  "ProcedureStepDescription": "video_friends",
  "ProtocolName": "func_task-friends-s01e20b",
  "PulseSequenceDetails": "%CustomerSeq%_cmrr_mbep2d_bold",
  "ReceiveCoilActiveElements": "HC1-7;NC1,2",
  "ReceiveCoilName": "HeadNeck_64",
  "ReconMatrixPE": 104,
  "RepetitionTime": 1.49,
  "SAR": 0.0291848,
  "ScanOptions": "FS",
  "ScanningSequence": "EP",
  "SequenceName": "epfid2d1_104",
  "SequenceVariant": "SK_SS",
  "SeriesDescription": "func_task-friends-s01e20b",
  "SeriesNumber": 22,
  "ShimSetting": [623, -7200, -8815, 707, 9, 32, -9, 0],
  "SliceThickness": 2,
  "SliceTiming": [0, 0.785, 0.0975, 0.8825, 0.195, 0.98, 0.295, 1.0775, 0.3925, 1.175, 0.49, 1.275, 0.5875, 1.3725, 0.685, 0, 0.785, 0.0975, 0.8825, 0.195, 0.98, 0.295, 1.0775, 0.3925, 1.175, 0.49, 1.275, 0.5875, 1.3725, 0.685, 0, 0.785, 0.0975, 0.8825, 0.195, 0.98, 0.295, 1.0775, 0.3925, 1.175, 0.49, 1.275, 0.5875, 1.3725, 0.685, 0, 0.785, 0.0975, 0.8825, 0.195, 0.98, 0.295, 1.0775, 0.3925, 1.175, 0.49, 1.275, 0.5875, 1.3725, 0.685],
  "SoftwareVersions": "syngo_MR_E11",
  "SpacingBetweenSlices": 2,
  "StationName": "MRC35049",
  "TaskName": "friends",
  "TotalReadoutTime": 0.0576811,
  "TxRefAmp": 206.5,
  "WipMemBlock": "c12b5af0-6653-4de7-8967-2e5a37c69c57||Sequence: R016 ve11c/master r/e634e98; Dec 19 2017 11:00:25 by eja",
  "dcmmeta_affine": [
    [-1.9994574785232544, 0.044326551258563995, -0.014318172819912434, 101.99889373779297],
    [0.046545788645744324, 1.877063512802124, -0.6888148188591003, -78.77581787109375],
    [0.0018283334793522954, 0.6889612078666687, 1.877586007118225, -71.48124694824219],
    [0.0, 0.0, 0.0, 1.0]
],
  "dcmmeta_reorient_transform": [
    [0.0, -1.0, 0.0, 103.0],
    [1.0, 0.0, 0.0, 0.0],
    [0.0, 0.0, 1.0, 0.0],
    [0.0, 0.0, 0.0, 1.0]
],
  "dcmmeta_shape": [104, 104, 60, 460],
  "dcmmeta_slice_dim": 2,
  "dcmmeta_version": 0.6,
  "global": {
    "const": {
      "AcquisitionMatrix": [104, 0, 0, 104],
      "AngioFlag": "N",
      "BitsAllocated": 16,
      "BitsStored": 16,
      "BodyPartExamined": "BRAIN",
      "Columns": 832,
      "EchoNumbers": 1,
      "EchoTime": 37.0,
      "EchoTrainLength": 104,
      "FlipAngle": 52.0,
      "HighBit": 15,
      "ImageOrientationPatient": [0.99972873154969, -0.0232728943893, 0.00091416672393, 0.02216327591126, 0.93853178051752, -0.344480603459],
      "ImagePositionPatient": [-850.50191284942, -780.87019489438, 249.59812222639],
      "ImageType": [
        "ORIGINAL",
        "PRIMARY",
        "M",
        "MB",
        "ND",
        "MOSAIC"
],
      "ImagedNucleus": "1H",
      "ImagingFrequency": 123.259218,
      "InPlanePhaseEncodingDirection": "COL",
      "MRAcquisitionType": "2D",
      "MagneticFieldStrength": 3.0,
      "Manufacturer": "SIEMENS",
      "ManufacturerModelName": "Prisma_fit",
      "Modality": "MR",
      "NumberOfAverages": 1.0,
      "NumberOfPhaseEncodingSteps": 104,
      "PercentPhaseFieldOfView": 100.0,
      "PercentSampling": 100.0,
      "PerformedProcedureStepStartTime": "093540.150000",
      "PhotometricInterpretation": "MONOCHROME2",
      "PixelBandwidth": 2290.0,
      "PixelRepresentation": 0,
      "PixelSpacing": [2.0, 2.0],
      "ProtocolName": "func_task-friends-s01e20b",
      "RepetitionTime": 1490.0,
      "Rows": 832,
      "SAR": 0.02918482004484,
      "SamplesPerPixel": 1,
      "ScanOptions": "FS",
      "ScanningSequence": "EP",
      "SequenceName": "epfid2d1_104",
      "SequenceVariant": [
        "SK",
        "SS"
],
      "SeriesDescription": "func_task-friends-s01e20b",
      "SeriesNumber": 22,
      "SeriesTime": "102343.517000",
      "SliceLocation": -40.705336376697,
      "SliceThickness": 2.0,
      "SmallestImagePixelValue": 0,
      "SoftwareVersions": "syngo MR E11",
      "SpacingBetweenSlices": 1.9999999993161,
      "SpecificCharacterSet": "ISO_IR 100",
      "StudyID": "1",
      "StudyTime": "093540.005000",
      "TransmitCoilName": "Body",
      "VariableFlipAngleFlag": "N",
      "WindowCenterWidthExplanation": "Algo1",
      "dBdt": 0.0},
    "slices": {}
  },
  "time": {
    "samples": {
      "AcquisitionNumber": [1, 2, 3, 4, 5, 6, 7, 8, 9, 10, 11, 12, 13, 14, 15, 16, 17, 18, 19, 20, 21, 22, 23, 24, 25, 26, 27, 28, 29, 30, 31, 32, 33, 34, 35, 36, 37, 38, 39, 40, 41, 42, 43, 44, 45, 46, 47, 48, 49, 50, 51, 52, 53, 54, 55, 56, 57, 58, 59, 60, 61, 62, 63, 64, 65, 66, 67, 68, 69, 70, 71, 72, 73, 74, 75, 76, 77, 78, 79, 80, 81, 82, 83, 84, 85, 86, 87, 88, 89, 90, 91, 92, 93, 94, 95, 96, 97, 98, 99, 100, 101, 102, 103, 104, 105, 106, 107, 108, 109, 110, 111, 112, 113, 114, 115, 116, 117, 118, 119, 120, 121, 122, 123, 124, 125, 126, 127, 128, 129, 130, 131, 132, 133, 134, 135, 136, 137, 138, 139, 140, 141, 142, 143, 144, 145, 146, 147, 148, 149, 150, 151, 152, 153, 154, 155, 156, 157, 158, 159, 160, 161, 162, 163, 164, 165, 166, 167, 168, 169, 170, 171, 172, 173, 174, 175, 176, 177, 178, 179, 180, 181, 182, 183, 184, 185, 186, 187, 188, 189, 190, 191, 192, 193, 194, 195, 196, 197, 198, 199, 200, 201, 202, 203, 204, 205, 206, 207, 208, 209, 210, 211, 212, 213, 214, 215, 216, 217, 218, 219, 220, 221, 222, 223, 224, 225, 226, 227, 228, 229, 230, 231, 232, 233, 234, 235, 236, 237, 238, 239, 240, 241, 242, 243, 244, 245, 246, 247, 248, 249, 250, 251, 252, 253, 254, 255, 256, 257, 258, 259, 260, 261, 262, 263, 264, 265, 266, 267, 268, 269, 270, 271, 272, 273, 274, 275, 276, 277, 278, 279, 280, 281, 282, 283, 284, 285, 286, 287, 288, 289, 290, 291, 292, 293, 294, 295, 296, 297, 298, 299, 300, 301, 302, 303, 304, 305, 306, 307, 308, 309, 310, 311, 312, 313, 314, 315, 316, 317, 318, 319, 320, 321, 322, 323, 324, 325, 326, 327, 328, 329, 330, 331, 332, 333, 334, 335, 336, 337, 338, 339, 340, 341, 342, 343, 344, 345, 346, 347, 348, 349, 350, 351, 352, 353, 354, 355, 356, 357, 358, 359, 360, 361, 362, 363, 364, 365, 366, 367, 368, 369, 370, 371, 372, 373, 374, 375, 376, 377, 378, 379, 380, 381, 382, 383, 384, 385, 386, 387, 388, 389, 390, 391, 392, 393, 394, 395, 396, 397, 398, 399, 400, 401, 402, 403, 404, 405, 406, 407, 408, 409, 410, 411, 412, 413, 414, 415, 416, 417, 418, 419, 420, 421, 422, 423, 424, 425, 426, 427, 428, 429, 430, 431, 432, 433, 434, 435, 436, 437, 438, 439, 440, 441, 442, 443, 444, 445, 446, 447, 448, 449, 450, 451, 452, 453, 454, 455, 456, 457, 458, 459, 460],
      "AcquisitionTime": ["102237.750000", "102239.240000", "102240.730000", "102242.220000", "102243.710000", "102245.200000", "102246.690000", "102248.180000", "102249.670000", "102251.160000", "102252.650000", "102254.140000", "102255.630000", "102257.120000", "102258.610000", "102300.100000", "102301.590000", "102303.080000", "102304.570000", "102306.060000", "102307.550000", "102309.040000", "102310.530000", "102312.020000", "102313.510000", "102315.000000", "102316.490000", "102317.980000", "102319.470000", "102320.960000", "102322.450000", "102323.940000", "102325.430000", "102326.920000", "102328.410000", "102329.900000", "102331.390000", "102332.880000", "102334.370000", "102335.860000", "102337.350000", "102338.840000", "102340.330000", "102341.820000", "102343.310000", "102344.800000", "102346.290000", "102347.780000", "102349.270000", "102350.760000", "102352.250000", "102353.740000", "102355.230000", "102356.720000", "102358.210000", "102359.700000", "102401.190000", "102402.680000", "102404.170000", "102405.660000", "102407.150000", "102408.640000", "102410.130000", "102411.620000", "102413.110000", "102414.600000", "102416.090000", "102417.580000", "102419.070000", "102420.560000", "102422.050000", "102423.540000", "102425.030000", "102426.520000", "102428.010000", "102429.500000", "102430.990000", "102432.480000", "102433.970000", "102435.460000", "102436.950000", "102438.440000", "102439.930000", "102441.420000", "102442.910000", "102444.400000", "102445.890000", "102447.380000", "102448.870000", "102450.360000", "102451.850000", "102453.340000", "102454.830000", "102456.320000", "102457.810000", "102459.300000", "102500.790000", "102502.280000", "102503.770000", "102505.260000", "102506.750000", "102508.240000", "102509.730000", "102511.220000", "102512.710000", "102514.200000", "102515.690000", "102517.180000", "102518.670000", "102520.160000", "102521.650000", "102523.140000", "102524.630000", "102526.120000", "102527.610000", "102529.100000", "102530.590000", "102532.080000", "102533.570000", "102535.060000", "102536.550000", "102538.040000", "102539.530000", "102541.020000", "102542.510000", "102544.000000", "102545.490000", "102546.980000", "102548.470000", "102549.960000", "102551.450000", "102552.940000", "102554.430000", "102555.920000", "102557.410000", "102558.900000", "102600.390000", "102601.880000", "102603.370000", "102604.860000", "102606.350000", "102607.840000", "102609.330000", "102610.820000", "102612.310000", "102613.800000", "102615.290000", "102616.780000", "102618.270000", "102619.760000", "102621.250000", "102622.740000", "102624.230000", "102625.720000", "102627.210000", "102628.700000", "102630.190000", "102631.680000", "102633.170000", "102634.660000", "102636.150000", "102637.640000", "102639.130000", "102640.620000", "102642.110000", "102643.600000", "102645.090000", "102646.580000", "102648.070000", "102649.560000", "102651.050000", "102652.540000", "102654.030000", "102655.520000", "102657.010000", "102658.500000", "102659.990000", "102701.480000", "102702.970000", "102704.460000", "102705.950000", "102707.440000", "102708.930000", "102710.420000", "102711.910000", "102713.400000", "102714.890000", "102716.380000", "102717.870000", "102719.360000", "102720.850000", "102722.340000", "102723.830000", "102725.320000", "102726.810000", "102728.300000", "102729.790000", "102731.280000", "102732.770000", "102734.260000", "102735.750000", "102737.240000", "102738.730000", "102740.220000", "102741.710000", "102743.200000", "102744.690000", "102746.180000", "102747.670000", "102749.160000", "102750.650000", "102752.140000", "102753.630000", "102755.120000", "102756.610000", "102758.100000", "102759.590000", "102801.080000", "102802.570000", "102804.060000", "102805.550000", "102807.040000", "102808.530000", "102810.020000", "102811.510000", "102813.000000", "102814.490000", "102815.980000", "102817.470000", "102818.960000", "102820.450000", "102821.940000", "102823.430000", "102824.920000", "102826.410000", "102827.900000", "102829.390000", "102830.880000", "102832.370000", "102833.860000", "102835.350000", "102836.840000", "102838.330000", "102839.820000", "102841.310000", "102842.800000", "102844.290000", "102845.780000", "102847.270000", "102848.760000", "102850.250000", "102851.740000", "102853.230000", "102854.720000", "102856.210000", "102857.700000", "102859.190000", "102900.680000", "102902.170000", "102903.660000", "102905.150000", "102906.640000", "102908.130000", "102909.620000", "102911.110000", "102912.600000", "102914.090000", "102915.580000", "102917.070000", "102918.560000", "102920.050000", "102921.540000", "102923.030000", "102924.520000", "102926.010000", "102927.500000", "102928.990000", "102930.480000", "102931.970000", "102933.460000", "102934.950000", "102936.440000", "102937.930000", "102939.420000", "102940.910000", "102942.400000", "102943.890000", "102945.380000", "102946.870000", "102948.360000", "102949.850000", "102951.340000", "102952.830000", "102954.320000", "102955.810000", "102957.300000", "102958.790000", "103000.280000", "103001.770000", "103003.260000", "103004.750000", "103006.240000", "103007.730000", "103009.220000", "103010.710000", "103012.200000", "103013.690000", "103015.180000", "103016.670000", "103018.160000", "103019.650000", "103021.140000", "103022.630000", "103024.120000", "103025.610000", "103027.100000", "103028.590000", "103030.080000", "103031.570000", "103033.060000", "103034.550000", "103036.040000", "103037.530000", "103039.020000", "103040.510000", "103042.000000", "103043.490000", "103044.980000", "103046.470000", "103047.960000", "103049.450000", "103050.940000", "103052.430000", "103053.920000", "103055.410000", "103056.900000", "103058.390000", "103059.880000", "103101.370000", "103102.860000", "103104.350000", "103105.840000", "103107.330000", "103108.820000", "103110.310000", "103111.800000", "103113.290000", "103114.780000", "103116.270000", "103117.760000", "103119.250000", "103120.740000", "103122.230000", "103123.720000", "103125.210000", "103126.700000", "103128.190000", "103129.680000", "103131.170000", "103132.660000", "103134.150000", "103135.640000", "103137.130000", "103138.620000", "103140.110000", "103141.600000", "103143.090000", "103144.580000", "103146.070000", "103147.560000", "103149.050000", "103150.540000", "103152.030000", "103153.520000", "103155.010000", "103156.500000", "103157.990000", "103159.480000", "103200.970000", "103202.460000", "103203.950000", "103205.440000", "103206.930000", "103208.420000", "103209.910000", "103211.400000", "103212.890000", "103214.380000", "103215.870000", "103217.360000", "103218.850000", "103220.340000", "103221.830000", "103223.320000", "103224.810000", "103226.300000", "103227.790000", "103229.280000", "103230.770000", "103232.260000", "103233.750000", "103235.240000", "103236.730000", "103238.220000", "103239.710000", "103241.200000", "103242.690000", "103244.180000", "103245.670000", "103247.160000", "103248.650000", "103250.140000", "103251.630000", "103253.120000", "103254.610000", "103256.100000", "103257.590000", "103259.080000", "103300.570000", "103302.060000", "103303.550000", "103305.040000", "103306.530000", "103308.020000", "103309.510000", "103311.000000", "103312.490000", "103313.980000", "103315.470000", "103316.960000", "103318.450000", "103319.940000", "103321.430000", "103322.920000", "103324.410000", "103325.900000", "103327.390000", "103328.880000", "103330.370000", "103331.860000", "103333.350000", "103334.840000", "103336.330000", "103337.820000", "103339.310000", "103340.800000", "103342.290000", "103343.780000", "103345.270000", "103346.760000", "103348.250000", "103349.740000", "103351.230000", "103352.720000", "103354.210000", "103355.700000", "103357.190000", "103358.680000", "103400.170000", "103401.660000"],
      "ContentTime": ["102343.520000", "102343.524000", "102343.527000", "102343.531000", "102343.535000", "102343.545000", "102343.548000", "102343.551000", "102343.555000", "102343.557000", "102343.560000", "102343.563000", "102344.349000", "102403.478000", "102403.481000", "102403.484000", "102403.487000", "102403.490000", "102403.493000", "102403.496000", "102403.499000", "102403.501000", "102403.504000", "102403.507000", "102403.510000", "102403.513000", "102403.516000", "102403.519000", "102403.522000", "102403.531000", "102403.534000", "102403.537000", "102403.540000", "102403.543000", "102423.478000", "102423.481000", "102423.484000", "102423.487000", "102423.490000", "102423.510000", "102423.513000", "102423.516000", "102423.519000", "102423.522000", "102423.525000", "102423.528000", "102423.530000", "102423.534000", "102423.536000", "102423.539000", "102423.542000", "102423.545000", "102423.548000", "102423.551000", "102443.478000", "102443.481000", "102443.484000", "102443.487000", "102443.490000", "102443.493000", "102443.496000", "102443.499000", "102443.502000", "102443.505000", "102443.507000", "102443.533000", "102443.537000", "102443.540000", "102443.543000", "102443.546000", "102443.549000", "102443.551000", "102443.554000", "102443.557000", "102503.478000", "102503.481000", "102503.484000", "102503.487000", "102503.490000", "102503.493000", "102503.496000", "102503.498000", "102503.501000", "102503.504000", "102503.507000", "102503.510000", "102503.513000", "102503.516000", "102503.523000", "102503.526000", "102503.529000", "102503.532000", "102503.535000", "102503.538000", "102543.477000", "102543.480000", "102543.483000", "102543.486000", "102543.489000", "102543.491000", "102543.494000", "102543.497000", "102543.501000", "102543.504000", "102543.507000", "102543.510000", "102543.513000", "102543.516000", "102543.519000", "102543.522000", "102543.524000", "102543.527000", "102543.530000", "102543.533000", "102543.536000", "102543.539000", "102543.542000", "102543.545000", "102543.548000", "102543.551000", "102543.556000", "102543.570000", "102543.573000", "102543.576000", "102623.478000", "102623.482000", "102623.485000", "102623.488000", "102623.491000", "102623.494000", "102623.497000", "102623.500000", "102623.503000", "102623.506000", "102623.509000", "102623.512000", "102623.515000", "102623.518000", "102623.521000", "102623.524000", "102623.527000", "102623.530000", "102623.533000", "102623.536000", "102623.539000", "102623.542000", "102623.545000", "102623.548000", "102623.551000", "102623.554000", "102623.557000", "102703.478000", "102703.481000", "102703.484000", "102703.487000", "102703.490000", "102703.493000", "102703.495000", "102703.498000", "102703.501000", "102703.504000", "102703.507000", "102703.510000", "102703.513000", "102703.516000", "102703.519000", "102703.522000", "102703.525000", "102703.528000", "102703.531000", "102703.533000", "102703.536000", "102703.539000", "102703.542000", "102703.545000", "102703.548000", "102703.551000", "102703.554000", "102743.478000", "102743.481000", "102743.484000", "102743.487000", "102743.490000", "102743.493000", "102743.495000", "102743.498000", "102743.501000", "102743.504000", "102743.507000", "102743.510000", "102743.513000", "102743.516000", "102743.519000", "102743.522000", "102743.525000", "102743.528000", "102743.531000", "102743.534000", "102743.536000", "102743.539000", "102743.542000", "102743.545000", "102743.548000", "102743.551000", "102743.554000", "102823.478000", "102823.481000", "102823.484000", "102823.487000", "102823.490000", "102823.493000", "102823.496000", "102823.499000", "102823.502000", "102823.505000", "102823.508000", "102823.511000", "102823.514000", "102823.517000", "102823.520000", "102823.523000", "102823.526000", "102823.529000", "102823.533000", "102823.536000", "102823.539000", "102823.542000", "102823.545000", "102823.548000", "102823.551000", "102823.553000", "102903.478000", "102903.481000", "102903.484000", "102903.487000", "102903.490000", "102903.493000", "102903.496000", "102903.498000", "102903.501000", "102903.514000", "102903.517000", "102903.520000", "102903.523000", "102903.526000", "102903.529000", "102903.532000", "102903.535000", "102903.537000", "102903.540000", "102903.543000", "102903.546000", "102903.549000", "102903.552000", "102903.555000", "102903.558000", "102903.561000", "102903.564000", "102943.478000", "102943.481000", "102943.484000", "102943.487000", "102943.490000", "102943.493000", "102943.496000", "102943.498000", "102943.501000", "102943.504000", "102943.507000", "102943.510000", "102943.513000", "102943.516000", "102943.519000", "102943.522000", "102943.525000", "102943.528000", "102943.530000", "102943.533000", "102943.536000", "102943.539000", "102943.542000", "102943.545000", "102943.548000", "102943.551000", "102943.554000", "103023.478000", "103023.481000", "103023.484000", "103023.487000", "103023.490000", "103023.493000", "103023.496000", "103023.499000", "103023.502000", "103023.504000", "103023.507000", "103023.510000", "103023.513000", "103023.516000", "103023.519000", "103023.522000", "103023.525000", "103023.528000", "103023.531000", "103023.533000", "103023.536000", "103023.539000", "103023.542000", "103023.545000", "103023.548000", "103023.551000", "103023.554000", "103103.478000", "103103.481000", "103103.484000", "103103.487000", "103103.490000", "103103.493000", "103103.496000", "103103.499000", "103103.501000", "103103.504000", "103103.507000", "103103.510000", "103103.513000", "103103.516000", "103103.519000", "103103.522000", "103103.525000", "103103.528000", "103103.531000", "103103.533000", "103103.536000", "103103.539000", "103103.542000", "103103.545000", "103103.548000", "103103.551000", "103103.554000", "103143.478000", "103143.481000", "103143.484000", "103143.487000", "103143.490000", "103143.493000", "103143.496000", "103143.499000", "103143.501000", "103143.504000", "103143.507000", "103143.510000", "103143.513000", "103143.516000", "103143.519000", "103143.522000", "103143.525000", "103143.528000", "103143.531000", "103143.533000", "103143.536000", "103143.539000", "103143.542000", "103143.545000", "103143.548000", "103143.551000", "103143.554000", "103223.478000", "103223.481000", "103223.484000", "103223.487000", "103223.490000", "103223.493000", "103223.496000", "103223.499000", "103223.501000", "103223.504000", "103223.507000", "103223.510000", "103223.513000", "103223.516000", "103223.519000", "103223.522000", "103223.525000", "103223.528000", "103223.531000", "103223.534000", "103223.538000", "103223.541000", "103223.544000", "103223.547000", "103223.550000", "103223.553000", "103303.478000", "103303.481000", "103303.484000", "103303.487000", "103303.490000", "103303.493000", "103303.496000", "103303.499000", "103303.501000", "103303.504000", "103303.507000", "103303.510000", "103303.513000", "103303.516000", "103303.519000", "103303.522000", "103303.525000", "103303.528000", "103303.531000", "103303.534000", "103303.537000", "103303.539000", "103303.542000", "103303.545000", "103303.548000", "103303.551000", "103303.554000", "103323.478000", "103323.481000", "103323.484000", "103323.487000", "103323.490000", "103323.493000", "103323.496000", "103323.499000", "103323.502000", "103323.504000", "103323.507000", "103323.510000", "103323.513000", "103323.516000", "103403.428000", "103403.432000", "103403.434000", "103403.437000", "103403.440000", "103403.443000", "103403.446000", "103403.449000", "103403.452000", "103403.455000", "103403.458000", "103403.461000", "103403.464000", "103403.467000", "103403.470000", "103403.473000", "103403.476000", "103403.478000", "103403.481000", "103403.484000", "103403.487000", "103403.490000", "103403.493000", "103403.496000", "103403.499000", "103403.502000", "103403.505000"],
