{
  "AcquisitionMatrixPE": 104,
  "AcquisitionNumber": 1,
  "AcquisitionTime": "18:23:52.910000",
  "BandwidthPerPixelPhaseEncode": 17.17,
  "BaseResolution": 104,
  "BodyPartExamined": "BRAIN",
  "CoilCombinationMethod": "Sum of Squares",
  "ConsistencyInfo": "N4_VE11C_LATEST_20160120",
  "ConversionSoftware": "dcm2niix",
  "ConversionSoftwareVersion": "v1.0.20211006",
  "DerivedVendorReportedEchoSpacing": 0.000560011,
  "DeviceSerialNumber": "167006",
  "DwellTime": 2.1e-06,
  "EchoTime": 0.037,
  "EchoTrainLength": 104,
  "EffectiveEchoSpacing": 0.000560011,
  "FlipAngle": 52,
  "HeudiconvVersion": "0.11.3.post9+gc939bf8",
  "ImageComments": "Unaliased MB4/PE3/LB",
  "ImageOrientationPatientDICOM": [0.999757, 0.0217407, 0.00352847, -0.0195454, 0.949587, -0.312895],
  "ImageOrientationText": "Tra>Cor(-18.2)>Sag(0.6)",
  "ImageType": [
    "ORIGINAL",
    "PRIMARY",
    "M",
    "MB",
    "ND",
    "MOSAIC"
],
  "ImagingFrequency": 123.259,
  "InPlanePhaseEncodingDirectionDICOM": "COL",
  "InstitutionAddress": "Chemin Queen-Mary 4565,Montreal,District,CA,H3W 1W5",
  "InstitutionName": "IUGM",
  "InstitutionalDepartmentName": "Department",
  "MRAcquisitionType": "2D",
  "MagneticFieldStrength": 3,
  "Manufacturer": "Siemens",
  "ManufacturersModelName": "Prisma_fit",
  "MatrixCoilMode": "SENSE",
  "Modality": "MR",
  "MultibandAccelerationFactor": 4,
  "PartialFourier": 1,
  "PatientPosition": "HFS",
  "PercentPhaseFOV": 100,
  "PercentSampling": 100,
  "PhaseEncodingDirection": "j",
  "PhaseEncodingSteps": 104,
  "PhaseResolution": 1,
  "PixelBandwidth": 2290,
  "ProcedureStepDescription": "video^friends",
  "ProtocolName": "func_task-friends-s06e23b",
  "PulseSequenceDetails": "%CustomerSeq%\\cmrr_mbep2d_bold",
  "ReceiveCoilActiveElements": "HC1-7;NC1,2",
  "ReceiveCoilName": "HeadNeck_64",
  "ReconMatrixPE": 104,
  "RepetitionTime": 1.49,
  "SAR": 0.0581849,
  "ScanOptions": "FS",
  "ScanningSequence": "EP",
  "SequenceName": "epfid2d1_104",
  "SequenceVariant": "SK\\SS",
  "SeriesDescription": "func_task-friends-s06e23b",
  "SeriesNumber": 10,
  "ShimSetting": [637, -7216, -8784, 674, 98, -12, -3, -28],
  "SliceThickness": 2,
  "SliceTiming": [0, 0.785, 0.0975, 0.8825, 0.1975, 0.98, 0.295, 1.0775, 0.3925, 1.175, 0.49, 1.275, 0.5875, 1.3725, 0.6875, 0, 0.785, 0.0975, 0.8825, 0.1975, 0.98, 0.295, 1.0775, 0.3925, 1.175, 0.49, 1.275, 0.5875, 1.3725, 0.6875, 0, 0.785, 0.0975, 0.8825, 0.1975, 0.98, 0.295, 1.0775, 0.3925, 1.175, 0.49, 1.275, 0.5875, 1.3725, 0.6875, 0, 0.785, 0.0975, 0.8825, 0.1975, 0.98, 0.295, 1.0775, 0.3925, 1.175, 0.49, 1.275, 0.5875, 1.3725, 0.6875],
  "SoftwareVersions": "syngo MR E11",
  "SpacingBetweenSlices": 2,
  "StationName": "MRC35049",
  "TaskName": "s06e23b",
  "TotalReadoutTime": 0.0576811,
  "TxRefAmp": 239.866,
  "WipMemBlock": "89813905-ff3d-4cb0-9c6b-91784c8a5bee||Sequence: R017 ve11c/master r/75a17815+; Jun 28 2022 16:32:11 by eja",
  "dcmmeta_affine": [
    [-1.9995148181915283, -0.03909078612923622, 0.020306289196014404, 106.35006713867188],
    [-0.04348142445087433, 1.8991732597351074, -0.6255000233650208, -76.2420883178711],
    [0.007056937552988529, 0.6257897019386292, 1.8995624780654907, -66.26909637451172],
    [0.0, 0.0, 0.0, 1.0]
],
  "dcmmeta_reorient_transform": [
    [0.0, -1.0, 0.0, 103.0],
    [1.0, 0.0, 0.0, 0.0],
    [0.0, 0.0, 1.0, 0.0],
    [0.0, 0.0, 0.0, 1.0]
],
  "dcmmeta_shape": [104, 104, 60, 520],
  "dcmmeta_slice_dim": 2,
  "dcmmeta_version": 0.6,
  "global": {
    "const": {
      "AcquisitionMatrix": [104, 0, 0, 104],
      "AngioFlag": "N",
      "BitsAllocated": 16,
      "BitsStored": 16,
      "BodyPartExamined": "BRAIN",
      "Columns": 832,
      "EchoNumbers": 1,
      "EchoTime": 37.0,
      "EchoTrainLength": 104,
      "FlipAngle": 52.0,
      "HighBit": 15,
      "ImageOrientationPatient": [0.99975741623092, 0.0217407129519, 0.00352846873627, -0.0195453921676, 0.94958663771486, -0.3128948627229],
      "ImagePositionPatient": [-815.91807071082, -826.49906919469, 223.40598142898],
      "ImageType": [
        "ORIGINAL",
        "PRIMARY",
        "M",
        "MB",
        "ND",
        "MOSAIC"
],
      "ImagedNucleus": "1H",
      "ImagingFrequency": 123.258816,
      "InPlanePhaseEncodingDirection": "COL",
      "MRAcquisitionType": "2D",
      "MagneticFieldStrength": 3.0,
      "Manufacturer": "SIEMENS",
      "ManufacturerModelName": "Prisma_fit",
      "Modality": "MR",
      "NumberOfAverages": 1.0,
      "NumberOfPhaseEncodingSteps": 104,
      "PercentPhaseFieldOfView": 100.0,
      "PercentSampling": 100.0,
      "PerformedProcedureStepStartTime": "181750.272000",
      "PhotometricInterpretation": "MONOCHROME2",
      "PixelBandwidth": 2290.0,
      "PixelRepresentation": 0,
      "PixelSpacing": [2.0, 2.0],
      "ProtocolName": "func_task-friends-s06e23b",
      "RepetitionTime": 1490.0,
      "Rows": 832,
      "SAR": 0.05818486321019,
      "SamplesPerPixel": 1,
      "ScanOptions": "FS",
      "ScanningSequence": "EP",
      "SequenceName": "epfid2d1_104",
      "SequenceVariant": [
        "SK",
        "SS"
],
      "SeriesDescription": "func_task-friends-s06e23b",
      "SeriesNumber": 10,
      "SeriesTime": "182509.249000",
      "SliceLocation": -38.016641011509,
      "SliceThickness": 2.0,
      "SmallestImagePixelValue": 0,
      "SoftwareVersions": "syngo MR E11",
      "SpacingBetweenSlices": 2.0000000273023,
      "SpecificCharacterSet": "ISO_IR 100",
      "StudyID": "1",
      "StudyTime": "181750.193000",
      "TransmitCoilName": "Body",
      "VariableFlipAngleFlag": "N",
      "WindowCenterWidthExplanation": "Algo1",
      "dBdt": 0.0},
    "slices": {}
  },
  "time": {
    "samples": {
      "AcquisitionNumber": [1, 2, 3, 4, 5, 6, 7, 8, 9, 10, 11, 12, 13, 14, 15, 16, 17, 18, 19, 20, 21, 22, 23, 24, 25, 26, 27, 28, 29, 30, 31, 32, 33, 34, 35, 36, 37, 38, 39, 40, 41, 42, 43, 44, 45, 46, 47, 48, 49, 50, 51, 52, 53, 54, 55, 56, 57, 58, 59, 60, 61, 62, 63, 64, 65, 66, 67, 68, 69, 70, 71, 72, 73, 74, 75, 76, 77, 78, 79, 80, 81, 82, 83, 84, 85, 86, 87, 88, 89, 90, 91, 92, 93, 94, 95, 96, 97, 98, 99, 100, 101, 102, 103, 104, 105, 106, 107, 108, 109, 110, 111, 112, 113, 114, 115, 116, 117, 118, 119, 120, 121, 122, 123, 124, 125, 126, 127, 128, 129, 130, 131, 132, 133, 134, 135, 136, 137, 138, 139, 140, 141, 142, 143, 144, 145, 146, 147, 148, 149, 150, 151, 152, 153, 154, 155, 156, 157, 158, 159, 160, 161, 162, 163, 164, 165, 166, 167, 168, 169, 170, 171, 172, 173, 174, 175, 176, 177, 178, 179, 180, 181, 182, 183, 184, 185, 186, 187, 188, 189, 190, 191, 192, 193, 194, 195, 196, 197, 198, 199, 200, 201, 202, 203, 204, 205, 206, 207, 208, 209, 210, 211, 212, 213, 214, 215, 216, 217, 218, 219, 220, 221, 222, 223, 224, 225, 226, 227, 228, 229, 230, 231, 232, 233, 234, 235, 236, 237, 238, 239, 240, 241, 242, 243, 244, 245, 246, 247, 248, 249, 250, 251, 252, 253, 254, 255, 256, 257, 258, 259, 260, 261, 262, 263, 264, 265, 266, 267, 268, 269, 270, 271, 272, 273, 274, 275, 276, 277, 278, 279, 280, 281, 282, 283, 284, 285, 286, 287, 288, 289, 290, 291, 292, 293, 294, 295, 296, 297, 298, 299, 300, 301, 302, 303, 304, 305, 306, 307, 308, 309, 310, 311, 312, 313, 314, 315, 316, 317, 318, 319, 320, 321, 322, 323, 324, 325, 326, 327, 328, 329, 330, 331, 332, 333, 334, 335, 336, 337, 338, 339, 340, 341, 342, 343, 344, 345, 346, 347, 348, 349, 350, 351, 352, 353, 354, 355, 356, 357, 358, 359, 360, 361, 362, 363, 364, 365, 366, 367, 368, 369, 370, 371, 372, 373, 374, 375, 376, 377, 378, 379, 380, 381, 382, 383, 384, 385, 386, 387, 388, 389, 390, 391, 392, 393, 394, 395, 396, 397, 398, 399, 400, 401, 402, 403, 404, 405, 406, 407, 408, 409, 410, 411, 412, 413, 414, 415, 416, 417, 418, 419, 420, 421, 422, 423, 424, 425, 426, 427, 428, 429, 430, 431, 432, 433, 434, 435, 436, 437, 438, 439, 440, 441, 442, 443, 444, 445, 446, 447, 448, 449, 450, 451, 452, 453, 454, 455, 456, 457, 458, 459, 460, 461, 462, 463, 464, 465, 466, 467, 468, 469, 470, 471, 472, 473, 474, 475, 476, 477, 478, 479, 480, 481, 482, 483, 484, 485, 486, 487, 488, 489, 490, 491, 492, 493, 494, 495, 496, 497, 498, 499, 500, 501, 502, 503, 504, 505, 506, 507, 508, 509, 510, 511, 512, 513, 514, 515, 516, 517, 518, 519, 520],
      "AcquisitionTime": ["182352.910000", "182354.400000", "182355.890000", "182357.380000", "182358.870000", "182400.360000", "182401.850000", "182403.340000", "182404.830000", "182406.320000", "182407.810000", "182409.300000", "182410.790000", "182412.280000", "182413.770000", "182415.260000", "182416.750000", "182418.240000", "182419.730000", "182421.220000", "182422.710000", "182424.200000", "182425.690000", "182427.180000", "182428.670000", "182430.160000", "182431.650000", "182433.140000", "182434.630000", "182436.120000", "182437.610000", "182439.100000", "182440.590000", "182442.080000", "182443.570000", "182445.060000", "182446.550000", "182448.040000", "182449.530000", "182451.020000", "182452.510000", "182454.000000", "182455.490000", "182456.980000", "182458.470000", "182459.960000", "182501.450000", "182502.940000", "182504.430000", "182505.920000", "182507.410000", "182508.900000", "182510.390000", "182511.880000", "182513.370000", "182514.860000", "182516.350000", "182517.840000", "182519.330000", "182520.820000", "182522.310000", "182523.800000", "182525.290000", "182526.780000", "182528.270000", "182529.760000", "182531.250000", "182532.740000", "182534.230000", "182535.720000", "182537.210000", "182538.700000", "182540.190000", "182541.680000", "182543.170000", "182544.660000", "182546.150000", "182547.640000", "182549.130000", "182550.620000", "182552.110000", "182553.600000", "182555.090000", "182556.580000", "182558.070000", "182559.560000", "182601.050000", "182602.540000", "182604.030000", "182605.520000", "182607.010000", "182608.500000", "182609.990000", "182611.480000", "182612.970000", "182614.460000", "182615.950000", "182617.440000", "182618.930000", "182620.420000", "182621.910000", "182623.400000", "182624.890000", "182626.380000", "182627.870000", "182629.360000", "182630.850000", "182632.340000", "182633.830000", "182635.320000", "182636.810000", "182638.300000", "182639.790000", "182641.280000", "182642.770000", "182644.260000", "182645.750000", "182647.240000", "182648.730000", "182650.220000", "182651.710000", "182653.200000", "182654.690000", "182656.180000", "182657.670000", "182659.160000", "182700.650000", "182702.140000", "182703.630000", "182705.120000", "182706.610000", "182708.100000", "182709.590000", "182711.080000", "182712.570000", "182714.060000", "182715.550000", "182717.040000", "182718.530000", "182720.020000", "182721.510000", "182723.000000", "182724.490000", "182725.980000", "182727.470000", "182728.960000", "182730.450000", "182731.940000", "182733.430000", "182734.920000", "182736.410000", "182737.900000", "182739.390000", "182740.880000", "182742.370000", "182743.860000", "182745.350000", "182746.840000", "182748.330000", "182749.820000", "182751.310000", "182752.800000", "182754.290000", "182755.780000", "182757.270000", "182758.760000", "182800.250000", "182801.740000", "182803.230000", "182804.720000", "182806.210000", "182807.700000", "182809.190000", "182810.680000", "182812.170000", "182813.660000", "182815.150000", "182816.640000", "182818.130000", "182819.620000", "182821.110000", "182822.600000", "182824.090000", "182825.580000", "182827.070000", "182828.560000", "182830.050000", "182831.540000", "182833.030000", "182834.520000", "182836.010000", "182837.500000", "182838.990000", "182840.480000", "182841.970000", "182843.460000", "182844.950000", "182846.440000", "182847.930000", "182849.420000", "182850.910000", "182852.400000", "182853.890000", "182855.380000", "182856.870000", "182858.360000", "182859.850000", "182901.340000", "182902.830000", "182904.320000", "182905.810000", "182907.300000", "182908.790000", "182910.280000", "182911.770000", "182913.260000", "182914.750000", "182916.240000", "182917.730000", "182919.220000", "182920.710000", "182922.200000", "182923.690000", "182925.180000", "182926.670000", "182928.160000", "182929.650000", "182931.140000", "182932.630000", "182934.120000", "182935.610000", "182937.100000", "182938.590000", "182940.080000", "182941.570000", "182943.060000", "182944.550000", "182946.040000", "182947.530000", "182949.020000", "182950.510000", "182952.000000", "182953.490000", "182954.980000", "182956.470000", "182957.960000", "182959.450000", "183000.940000", "183002.430000", "183003.920000", "183005.410000", "183006.900000", "183008.390000", "183009.880000", "183011.370000", "183012.860000", "183014.350000", "183015.840000", "183017.330000", "183018.820000", "183020.310000", "183021.800000", "183023.290000", "183024.780000", "183026.270000", "183027.760000", "183029.250000", "183030.740000", "183032.230000", "183033.720000", "183035.210000", "183036.700000", "183038.190000", "183039.680000", "183041.170000", "183042.660000", "183044.150000", "183045.640000", "183047.130000", "183048.620000", "183050.110000", "183051.600000", "183053.090000", "183054.580000", "183056.070000", "183057.560000", "183059.050000", "183100.540000", "183102.030000", "183103.520000", "183105.010000", "183106.500000", "183107.990000", "183109.480000", "183110.970000", "183112.460000", "183113.950000", "183115.440000", "183116.930000", "183118.420000", "183119.910000", "183121.400000", "183122.890000", "183124.380000", "183125.870000", "183127.360000", "183128.850000", "183130.340000", "183131.830000", "183133.320000", "183134.810000", "183136.300000", "183137.790000", "183139.280000", "183140.770000", "183142.260000", "183143.750000", "183145.240000", "183146.730000", "183148.220000", "183149.710000", "183151.200000", "183152.690000", "183154.180000", "183155.670000", "183157.160000", "183158.650000", "183200.140000", "183201.630000", "183203.120000", "183204.610000", "183206.100000", "183207.590000", "183209.080000", "183210.570000", "183212.060000", "183213.550000", "183215.040000", "183216.530000", "183218.020000", "183219.510000", "183221.000000", "183222.490000", "183223.980000", "183225.470000", "183226.960000", "183228.450000", "183229.940000", "183231.430000", "183232.920000", "183234.410000", "183235.900000", "183237.390000", "183238.880000", "183240.370000", "183241.860000", "183243.350000", "183244.840000", "183246.330000", "183247.820000", "183249.310000", "183250.800000", "183252.290000", "183253.780000", "183255.270000", "183256.760000", "183258.250000", "183259.740000", "183301.230000", "183302.720000", "183304.210000", "183305.700000", "183307.190000", "183308.680000", "183310.170000", "183311.660000", "183313.150000", "183314.640000", "183316.130000", "183317.620000", "183319.110000", "183320.600000", "183322.090000", "183323.580000", "183325.070000", "183326.560000", "183328.050000", "183329.540000", "183331.030000", "183332.520000", "183334.010000", "183335.500000", "183336.990000", "183338.480000", "183339.970000", "183341.460000", "183342.950000", "183344.440000", "183345.930000", "183347.420000", "183348.910000", "183350.400000", "183351.890000", "183353.380000", "183354.870000", "183356.360000", "183357.850000", "183359.340000", "183400.830000", "183402.320000", "183403.810000", "183405.300000", "183406.790000", "183408.280000", "183409.770000", "183411.260000", "183412.750000", "183414.240000", "183415.730000", "183417.220000", "183418.710000", "183420.200000", "183421.690000", "183423.180000", "183424.670000", "183426.160000", "183427.650000", "183429.140000", "183430.630000", "183432.120000", "183433.610000", "183435.100000", "183436.590000", "183438.080000", "183439.570000", "183441.060000", "183442.550000", "183444.040000", "183445.530000", "183447.020000", "183448.510000", "183450.000000", "183451.490000", "183452.980000", "183454.470000", "183455.960000", "183457.450000", "183458.940000", "183500.430000", "183501.920000", "183503.410000", "183504.900000", "183506.390000", "183507.880000", "183509.370000", "183510.860000", "183512.350000", "183513.840000", "183515.330000", "183516.820000", "183518.310000", "183519.800000", "183521.290000", "183522.780000", "183524.270000", "183525.760000", "183527.250000", "183528.740000", "183530.230000", "183531.720000", "183533.210000", "183534.700000", "183536.190000", "183537.680000", "183539.170000", "183540.660000", "183542.150000", "183543.640000", "183545.130000", "183546.620000", "183548.110000", "183549.600000", "183551.090000", "183552.580000", "183554.070000", "183555.560000", "183557.050000", "183558.540000", "183600.030000", "183601.520000", "183603.010000", "183604.500000", "183605.990000", "183607.480000", "183608.970000", "183610.460000", "183611.950000", "183613.440000", "183614.930000", "183616.420000", "183617.910000", "183619.400000", "183620.890000", "183622.380000", "183623.870000", "183625.360000", "183626.850000", "183628.340000", "183629.830000", "183631.320000", "183632.810000", "183634.300000", "183635.790000", "183637.280000", "183638.770000", "183640.260000", "183641.750000", "183643.240000", "183644.730000", "183646.220000"],
      "ContentTime": ["182509.252000", "182509.255000", "182509.264000", "182509.267000", "182509.269000", "182509.272000", "182509.275000", "182509.278000", "182509.281000", "182509.283000", "182509.286000", "182509.289000", "182509.292000", "182509.295000", "182509.298000", "182509.300000", "182509.303000", "182509.306000", "182509.309000", "182509.312000", "182509.315000", "182509.317000", "182509.320000", "182509.323000", "182509.326000", "182509.329000", "182509.332000", "182509.335000", "182509.337000", "182529.218000", "182529.221000", "182529.224000", "182529.226000", "182529.229000", "182529.232000", "182529.235000", "182529.238000", "182529.248000", "182529.251000", "182529.254000", "182529.257000", "182529.260000", "182529.262000", "182529.265000", "182529.268000", "182529.271000", "182529.274000", "182529.277000", "182529.280000", "182549.219000", "182549.222000", "182549.225000", "182549.227000", "182549.230000", "182549.233000", "182549.236000", "182549.239000", "182549.241000", "182549.244000", "182549.247000", "182549.262000", "182549.265000", "182549.268000", "182549.271000", "182549.274000", "182549.276000", "182549.279000", "182549.282000", "182549.285000", "182609.218000", "182609.221000", "182609.224000", "182609.226000", "182609.229000", "182609.232000", "182609.235000", "182609.238000", "182609.240000", "182609.243000", "182609.246000", "182609.249000", "182609.252000", "182609.255000", "182609.257000", "182609.260000", "182609.263000", "182609.266000", "182609.269000", "182609.271000", "182629.218000", "182629.221000", "182629.224000", "182629.227000", "182629.229000", "182629.232000", "182629.235000", "182629.238000", "182629.241000", "182629.244000", "182629.246000", "182629.249000", "182629.252000", "182629.255000", "182629.258000", "182709.218000", "182709.221000", "182709.224000", "182709.226000", "182709.229000", "182709.240000", "182709.243000", "182709.246000", "182709.248000", "182709.251000", "182709.254000", "182709.257000", "182709.260000", "182709.263000", "182709.265000", "182709.268000", "182709.271000", "182709.274000", "182709.277000", "182709.280000", "182709.283000", "182709.285000", "182709.288000", "182709.291000", "182709.294000", "182709.297000", "182709.299000", "182749.218000", "182749.221000", "182749.224000", "182749.227000", "182749.229000", "182749.232000", "182749.235000", "182749.238000", "182749.241000", "182749.244000", "182749.246000", "182749.249000", "182749.252000", "182749.255000", "182749.258000", "182749.270000", "182749.272000", "182749.275000", "182749.278000", "182749.281000", "182749.284000", "182749.287000", "182749.289000", "182749.292000", "182749.295000", "182749.298000", "182749.301000", "182829.218000", "182829.221000", "182829.224000", "182829.227000", "182829.229000", "182829.232000", "182829.235000", "182829.238000", "182829.241000", "182829.244000", "182829.247000", "182829.249000", "182829.252000", "182829.255000", "182829.258000", "182829.265000", "182829.268000", "182829.270000", "182829.273000", "182829.276000", "182829.279000", "182829.282000", "182829.285000", "182829.287000", "182829.290000", "182829.293000", "182829.296000", "182909.218000", "182909.221000", "182909.224000", "182909.226000", "182909.229000", "182909.232000", "182909.235000", "182909.238000", "182909.241000", "182909.243000", "182909.246000", "182909.249000", "182909.252000", "182909.255000", "182909.258000", "182909.261000", "182909.263000", "182909.266000", "182909.269000", "182909.272000", "182909.275000", "182909.278000", "182909.280000", "182909.283000", "182909.286000", "182909.289000", "182909.292000", "182949.218000", "182949.221000", "182949.224000", "182949.227000", "182949.229000", "182949.232000", "182949.235000", "182949.238000", "182949.241000", "182949.244000", "182949.247000", "182949.249000", "182949.252000", "182949.255000", "182949.258000", "182949.261000", "182949.264000", "182949.266000", "182949.269000", "182949.272000", "182949.275000", "182949.278000", "182949.280000", "182949.283000", "182949.286000", "182949.289000", "183029.219000", "183029.222000", "183029.225000", "183029.228000", "183029.230000", "183029.233000", "183029.236000", "183029.239000", "183029.242000", "183029.245000", "183029.247000", "183029.250000", "183029.253000", "183029.256000", "183029.259000", "183029.262000", "183029.265000", "183029.267000", "183029.270000", "183029.273000", "183029.276000", "183029.279000", "183029.281000", "183029.284000", "183029.287000", "183029.290000", "183029.293000", "183109.218000", "183109.221000", "183109.224000", "183109.227000", "183109.229000", "183109.232000", "183109.235000", "183109.238000", "183109.241000", "183109.244000", "183109.247000", "183109.249000", "183109.252000", "183109.255000", "183109.258000", "183109.261000", "183109.264000", "183109.266000", "183109.269000", "183109.272000", "183109.275000", "183109.278000", "183109.281000", "183109.283000", "183109.286000", "183109.289000", "183109.292000", "183149.218000", "183149.221000", "183149.224000", "183149.227000", "183149.230000", "183149.232000", "183149.235000", "183149.238000", "183149.241000", "183149.244000", "183149.247000", "183149.249000", "183149.252000", "183149.255000", "183149.258000", "183149.261000", "183149.264000", "183149.267000", "183149.269000", "183149.272000", "183149.275000", "183149.278000", "183149.281000", "183149.284000", "183149.287000", "183149.289000", "183149.292000", "183229.218000", "183229.221000", "183229.224000", "183229.227000", "183229.230000", "183229.232000", "183229.235000", "183229.238000", "183229.241000", "183229.244000", "183229.246000", "183229.249000", "183229.252000", "183229.255000", "183229.258000", "183229.261000", "183229.277000", "183229.280000", "183229.283000", "183229.285000", "183229.288000", "183229.291000", "183229.294000", "183229.297000", "183229.300000", "183229.302000", "183229.305000", "183309.218000", "183309.221000", "183309.224000", "183309.227000", "183309.229000", "183309.232000", "183309.235000", "183309.238000", "183309.241000", "183309.244000", "183309.247000", "183309.249000", "183309.252000", "183309.255000", "183309.258000", "183309.261000", "183309.264000", "183309.266000", "183309.269000", "183309.272000", "183309.275000", "183309.278000", "183309.281000", "183309.283000", "183309.286000", "183309.289000", "183309.292000", "183349.218000", "183349.221000", "183349.224000", "183349.227000", "183349.230000", "183349.232000", "183349.236000", "183349.238000", "183349.241000", "183349.244000", "183349.247000", "183349.250000", "183349.253000", "183349.256000", "183349.258000", "183349.261000", "183349.264000", "183349.267000", "183349.270000", "183349.273000", "183349.276000", "183349.279000", "183349.281000", "183349.284000", "183349.287000", "183349.290000", "183429.218000", "183429.221000", "183429.224000", "183429.227000", "183429.230000", "183429.233000", "183429.235000", "183429.238000", "183429.241000", "183429.244000", "183429.247000", "183429.250000", "183429.253000", "183429.255000", "183429.258000", "183429.261000", "183429.264000", "183429.267000", "183429.270000", "183429.273000", "183429.275000", "183429.278000", "183429.281000", "183429.284000", "183429.287000", "183429.290000", "183429.292000", "183509.219000", "183509.222000", "183509.225000", "183509.228000", "183509.231000", "183509.234000", "183509.236000", "183509.239000", "183509.242000", "183509.245000", "183509.248000", "183509.251000", "183509.254000", "183509.257000", "183509.259000", "183509.262000", "183509.265000", "183509.268000", "183509.271000", "183509.274000", "183509.276000", "183509.279000", "183509.282000", "183509.285000", "183509.288000", "183509.291000", "183509.294000", "183549.218000", "183549.221000", "183549.224000", "183549.227000", "183549.230000", "183549.233000", "183549.235000", "183549.238000", "183549.241000", "183549.244000", "183549.247000", "183549.249000", "183549.252000", "183549.255000", "183549.258000", "183549.261000", "183549.264000", "183549.267000", "183549.269000", "183549.272000", "183549.275000", "183549.278000", "183549.281000", "183549.284000", "183549.287000", "183549.289000", "183549.292000", "183629.218000", "183629.221000", "183629.224000", "183629.227000", "183629.230000", "183629.232000", "183629.235000", "183629.238000", "183629.241000", "183629.244000", "183629.247000", "183629.250000", "183629.252000", "183629.255000", "183629.258000", "183629.261000", "183629.264000", "183629.267000", "183629.270000", "183629.273000", "183629.275000", "183629.278000", "183629.281000", "183629.284000", "183629.287000", "183629.290000", "183629.293000", "183648.149000", "183648.152000", "183648.162000", "183648.166000", "183648.169000", "183648.172000", "183648.175000", "183648.178000", "183648.182000", "183648.185000", "183648.188000", "183648.191000", "183648.194000"],
