{
  "AcquisitionMatrixPE": 104,
  "AcquisitionNumber": 1,
  "AcquisitionTime": "09:20:1.557500",
  "BandwidthPerPixelPhaseEncode": 17.17,
  "BaseResolution": 104,
  "BodyPartExamined": "BRAIN",
  "CoilString": "HC1-7;NC1_2",
  "ConsistencyInfo": "N4_VE11C_LATEST_20160120",
  "ConversionSoftware": "dcm2niix",
  "ConversionSoftwareVersion": "v1.0.20200427",
  "DerivedVendorReportedEchoSpacing": 0.000560011,
  "DeviceSerialNumber": "167006",
  "DwellTime": 2.1e-06,
  "EchoTime": 0.037,
  "EchoTrainLength": 104,
  "EffectiveEchoSpacing": 0.000560011,
  "FlipAngle": 52,
  "ImageComments": "Unaliased_MB4_PE3_LB",
  "ImageOrientationPatientDICOM": [0.999955, 0.0016744, -0.0093637, -0.00610851, 0.867624, -0.497184],
  "ImageType": [
    "ORIGINAL",
    "PRIMARY",
    "M",
    "MB",
    "ND",
    "MOSAIC"
],
  "ImagingFrequency": 123.259,
  "InPlanePhaseEncodingDirectionDICOM": "COL",
  "InstitutionAddress": "Chemin_Queen-Mary_4565_Montreal_District_CA_H3W_1W5",
  "InstitutionName": "IUGM",
  "InstitutionalDepartmentName": "Department",
  "MRAcquisitionType": "2D",
  "MagneticFieldStrength": 3,
  "Manufacturer": "Siemens",
  "ManufacturersModelName": "Prisma_fit",
  "Modality": "MR",
  "MultibandAccelerationFactor": 4,
  "PartialFourier": 1,
  "PatientPosition": "HFS",
  "PercentPhaseFOV": 100,
  "PercentSampling": 100,
  "PhaseEncodingDirection": "j",
  "PhaseEncodingSteps": 104,
  "PhaseResolution": 1,
  "PixelBandwidth": 2290,
  "ProcedureStepDescription": "video_friends",
  "ProtocolName": "func_task-friends-s03e08b",
  "PulseSequenceDetails": "%CustomerSeq%_cmrr_mbep2d_bold",
  "ReceiveCoilActiveElements": "HC1-7;NC1,2",
  "ReceiveCoilName": "HeadNeck_64",
  "ReconMatrixPE": 104,
  "RepetitionTime": 1.49,
  "SAR": 0.0348413,
  "ScanOptions": "FS",
  "ScanningSequence": "EP",
  "SequenceName": "epfid2d1_104",
  "SequenceVariant": "SK_SS",
  "SeriesDescription": "func_task-friends-s03e08b",
  "SeriesNumber": 13,
  "ShimSetting": [629, -7201, -8875, 436, 0, -215, 5, -6],
  "SliceThickness": 2,
  "SliceTiming": [0, 0.785, 0.0975, 0.8825, 0.1975, 0.98, 0.295, 1.0775, 0.3925, 1.1775, 0.49, 1.275, 0.5875, 1.3725, 0.6875, 0, 0.785, 0.0975, 0.8825, 0.1975, 0.98, 0.295, 1.0775, 0.3925, 1.1775, 0.49, 1.275, 0.5875, 1.3725, 0.6875, 0, 0.785, 0.0975, 0.8825, 0.1975, 0.98, 0.295, 1.0775, 0.3925, 1.1775, 0.49, 1.275, 0.5875, 1.3725, 0.6875, 0, 0.785, 0.0975, 0.8825, 0.1975, 0.98, 0.295, 1.0775, 0.3925, 1.1775, 0.49, 1.275, 0.5875, 1.3725, 0.6875],
  "SoftwareVersions": "syngo_MR_E11",
  "SpacingBetweenSlices": 2,
  "StationName": "MRC35049",
  "TaskName": "s03e08b",
  "TotalReadoutTime": 0.0576811,
  "TxRefAmp": 249.505,
  "WipMemBlock": "eb496cf9-1e2f-4a38-8b0a-5e7cde05f7e6||Sequence: R016 ve11c/master r/e634e98; Dec 19 2017 11:00:25 by eja",
  "dcmmeta_affine": [
    [-1.999909520149231, -0.012217015027999878, -0.014583352021872997, 103.57823181152344],
    [-0.003348807105794549, 1.735247254371643, -0.9944373965263367, -59.57598876953125],
    [-0.018727390095591545, 0.9943679571151733, 1.7351891994476318, -103.15665435791016],
    [0.0, 0.0, 0.0, 1.0]
],
  "dcmmeta_reorient_transform": [
    [0.0, -1.0, 0.0, 103.0],
    [1.0, 0.0, 0.0, 0.0],
    [0.0, 0.0, 1.0, 0.0],
    [0.0, 0.0, 0.0, 1.0]
],
  "dcmmeta_shape": [104, 104, 60, 460],
  "dcmmeta_slice_dim": 2,
  "dcmmeta_version": 0.6,
  "global": {
    "const": {
      "AcquisitionMatrix": [104, 0, 0, 104],
      "AngioFlag": "N",
      "BitsAllocated": 16,
      "BitsStored": 16,
      "BodyPartExamined": "BRAIN",
      "Columns": 832,
      "EchoNumbers": 1,
      "EchoTime": 37.0,
      "EchoTrainLength": 104,
      "FlipAngle": 52.0,
      "HighBit": 15,
      "ImageOrientationPatient": [0.99995475777389, 0.00167440354521, -0.0093636946834, -0.0061085074571, 0.86762363671148, -0.4971839811943],
      "ImagePositionPatient": [-825.83994845626, -752.00345370072, 368.02995316495],
      "ImageType": [
        "ORIGINAL",
        "PRIMARY",
        "M",
        "MB",
        "ND",
        "MOSAIC"
],
      "ImagedNucleus": "1H",
      "ImagingFrequency": 123.259081,
      "InPlanePhaseEncodingDirection": "COL",
      "MRAcquisitionType": "2D",
      "MagneticFieldStrength": 3.0,
      "Manufacturer": "SIEMENS",
      "ManufacturerModelName": "Prisma_fit",
      "Modality": "MR",
      "NumberOfAverages": 1.0,
      "NumberOfPhaseEncodingSteps": 104,
      "PercentPhaseFieldOfView": 100.0,
      "PercentSampling": 100.0,
      "PerformedProcedureStepStartTime": "084907.541000",
      "PhotometricInterpretation": "MONOCHROME2",
      "PixelBandwidth": 2290.0,
      "PixelRepresentation": 0,
      "PixelSpacing": [2.0, 2.0],
      "ProtocolName": "func_task-friends-s03e08b",
      "RepetitionTime": 1490.0,
      "Rows": 832,
      "SAR": 0.03484131180152,
      "SamplesPerPixel": 1,
      "ScanOptions": "FS",
      "ScanningSequence": "EP",
      "SequenceName": "epfid2d1_104",
      "SequenceVariant": [
        "SK",
        "SS"
],
      "SeriesDescription": "func_task-friends-s03e08b",
      "SeriesNumber": 13,
      "SeriesTime": "092104.432000",
      "SliceLocation": -60.631122115649,
      "SliceThickness": 2.0,
      "SmallestImagePixelValue": 0,
      "SoftwareVersions": "syngo MR E11",
      "SpacingBetweenSlices": 2.0000000023192,
      "SpecificCharacterSet": "ISO_IR 100",
      "StudyID": "1",
      "StudyTime": "084907.411000",
      "TransmitCoilName": "Body",
      "VariableFlipAngleFlag": "N",
      "WindowCenterWidthExplanation": "Algo1",
      "dBdt": 0.0},
    "slices": {}
  },
  "time": {
    "samples": {
      "AcquisitionNumber": [1, 2, 3, 4, 5, 6, 7, 8, 9, 10, 11, 12, 13, 14, 15, 16, 17, 18, 19, 20, 21, 22, 23, 24, 25, 26, 27, 28, 29, 30, 31, 32, 33, 34, 35, 36, 37, 38, 39, 40, 41, 42, 43, 44, 45, 46, 47, 48, 49, 50, 51, 52, 53, 54, 55, 56, 57, 58, 59, 60, 61, 62, 63, 64, 65, 66, 67, 68, 69, 70, 71, 72, 73, 74, 75, 76, 77, 78, 79, 80, 81, 82, 83, 84, 85, 86, 87, 88, 89, 90, 91, 92, 93, 94, 95, 96, 97, 98, 99, 100, 101, 102, 103, 104, 105, 106, 107, 108, 109, 110, 111, 112, 113, 114, 115, 116, 117, 118, 119, 120, 121, 122, 123, 124, 125, 126, 127, 128, 129, 130, 131, 132, 133, 134, 135, 136, 137, 138, 139, 140, 141, 142, 143, 144, 145, 146, 147, 148, 149, 150, 151, 152, 153, 154, 155, 156, 157, 158, 159, 160, 161, 162, 163, 164, 165, 166, 167, 168, 169, 170, 171, 172, 173, 174, 175, 176, 177, 178, 179, 180, 181, 182, 183, 184, 185, 186, 187, 188, 189, 190, 191, 192, 193, 194, 195, 196, 197, 198, 199, 200, 201, 202, 203, 204, 205, 206, 207, 208, 209, 210, 211, 212, 213, 214, 215, 216, 217, 218, 219, 220, 221, 222, 223, 224, 225, 226, 227, 228, 229, 230, 231, 232, 233, 234, 235, 236, 237, 238, 239, 240, 241, 242, 243, 244, 245, 246, 247, 248, 249, 250, 251, 252, 253, 254, 255, 256, 257, 258, 259, 260, 261, 262, 263, 264, 265, 266, 267, 268, 269, 270, 271, 272, 273, 274, 275, 276, 277, 278, 279, 280, 281, 282, 283, 284, 285, 286, 287, 288, 289, 290, 291, 292, 293, 294, 295, 296, 297, 298, 299, 300, 301, 302, 303, 304, 305, 306, 307, 308, 309, 310, 311, 312, 313, 314, 315, 316, 317, 318, 319, 320, 321, 322, 323, 324, 325, 326, 327, 328, 329, 330, 331, 332, 333, 334, 335, 336, 337, 338, 339, 340, 341, 342, 343, 344, 345, 346, 347, 348, 349, 350, 351, 352, 353, 354, 355, 356, 357, 358, 359, 360, 361, 362, 363, 364, 365, 366, 367, 368, 369, 370, 371, 372, 373, 374, 375, 376, 377, 378, 379, 380, 381, 382, 383, 384, 385, 386, 387, 388, 389, 390, 391, 392, 393, 394, 395, 396, 397, 398, 399, 400, 401, 402, 403, 404, 405, 406, 407, 408, 409, 410, 411, 412, 413, 414, 415, 416, 417, 418, 419, 420, 421, 422, 423, 424, 425, 426, 427, 428, 429, 430, 431, 432, 433, 434, 435, 436, 437, 438, 439, 440, 441, 442, 443, 444, 445, 446, 447, 448, 449, 450, 451, 452, 453, 454, 455, 456, 457, 458, 459, 460],
      "AcquisitionTime": ["092001.557500", "092003.047500", "092004.537500", "092006.027500", "092007.517500", "092009.007500", "092010.497500", "092011.987500", "092013.477500", "092014.967500", "092016.457500", "092017.947500", "092019.437500", "092020.927500", "092022.417500", "092023.907500", "092025.397500", "092026.887500", "092028.377500", "092029.867500", "092031.357500", "092032.847500", "092034.337500", "092035.827500", "092037.317500", "092038.807500", "092040.297500", "092041.787500", "092043.277500", "092044.767500", "092046.257500", "092047.747500", "092049.237500", "092050.727500", "092052.217500", "092053.707500", "092055.197500", "092056.687500", "092058.177500", "092059.667500", "092101.157500", "092102.647500", "092104.137500", "092105.627500", "092107.117500", "092108.607500", "092110.097500", "092111.587500", "092113.077500", "092114.567500", "092116.057500", "092117.547500", "092119.037500", "092120.527500", "092122.017500", "092123.507500", "092124.997500", "092126.487500", "092127.977500", "092129.467500", "092130.957500", "092132.447500", "092133.937500", "092135.427500", "092136.917500", "092138.407500", "092139.897500", "092141.387500", "092142.877500", "092144.367500", "092145.857500", "092147.347500", "092148.837500", "092150.327500", "092151.817500", "092153.307500", "092154.797500", "092156.287500", "092157.777500", "092159.267500", "092200.757500", "092202.247500", "092203.737500", "092205.227500", "092206.717500", "092208.207500", "092209.697500", "092211.187500", "092212.677500", "092214.167500", "092215.657500", "092217.147500", "092218.637500", "092220.127500", "092221.617500", "092223.107500", "092224.597500", "092226.087500", "092227.577500", "092229.067500", "092230.557500", "092232.047500", "092233.537500", "092235.027500", "092236.517500", "092238.007500", "092239.497500", "092240.987500", "092242.477500", "092243.967500", "092245.457500", "092246.947500", "092248.437500", "092249.927500", "092251.417500", "092252.907500", "092254.397500", "092255.887500", "092257.377500", "092258.867500", "092300.357500", "092301.847500", "092303.337500", "092304.827500", "092306.317500", "092307.807500", "092309.297500", "092310.787500", "092312.277500", "092313.767500", "092315.257500", "092316.747500", "092318.237500", "092319.727500", "092321.217500", "092322.707500", "092324.197500", "092325.687500", "092327.177500", "092328.667500", "092330.157500", "092331.647500", "092333.137500", "092334.627500", "092336.117500", "092337.607500", "092339.097500", "092340.587500", "092342.077500", "092343.567500", "092345.057500", "092346.547500", "092348.037500", "092349.527500", "092351.017500", "092352.507500", "092353.997500", "092355.487500", "092356.977500", "092358.467500", "092359.957500", "092401.447500", "092402.937500", "092404.427500", "092405.917500", "092407.407500", "092408.897500", "092410.387500", "092411.877500", "092413.367500", "092414.857500", "092416.347500", "092417.837500", "092419.327500", "092420.817500", "092422.307500", "092423.797500", "092425.287500", "092426.777500", "092428.267500", "092429.757500", "092431.247500", "092432.737500", "092434.227500", "092435.717500", "092437.207500", "092438.697500", "092440.187500", "092441.677500", "092443.167500", "092444.657500", "092446.147500", "092447.637500", "092449.127500", "092450.617500", "092452.107500", "092453.597500", "092455.087500", "092456.577500", "092458.067500", "092459.557500", "092501.047500", "092502.537500", "092504.027500", "092505.517500", "092507.007500", "092508.497500", "092509.987500", "092511.477500", "092512.967500", "092514.457500", "092515.947500", "092517.437500", "092518.927500", "092520.417500", "092521.907500", "092523.397500", "092524.887500", "092526.377500", "092527.867500", "092529.357500", "092530.847500", "092532.337500", "092533.827500", "092535.317500", "092536.807500", "092538.297500", "092539.787500", "092541.277500", "092542.767500", "092544.257500", "092545.747500", "092547.237500", "092548.727500", "092550.217500", "092551.707500", "092553.197500", "092554.687500", "092556.177500", "092557.667500", "092559.157500", "092600.647500", "092602.137500", "092603.627500", "092605.117500", "092606.607500", "092608.097500", "092609.587500", "092611.077500", "092612.567500", "092614.057500", "092615.547500", "092617.037500", "092618.527500", "092620.017500", "092621.507500", "092622.997500", "092624.487500", "092625.977500", "092627.467500", "092628.957500", "092630.447500", "092631.937500", "092633.427500", "092634.917500", "092636.407500", "092637.897500", "092639.387500", "092640.877500", "092642.367500", "092643.857500", "092645.347500", "092646.837500", "092648.327500", "092649.817500", "092651.307500", "092652.797500", "092654.287500", "092655.777500", "092657.267500", "092658.757500", "092700.247500", "092701.737500", "092703.227500", "092704.717500", "092706.207500", "092707.697500", "092709.187500", "092710.677500", "092712.167500", "092713.657500", "092715.147500", "092716.637500", "092718.127500", "092719.617500", "092721.107500", "092722.597500", "092724.087500", "092725.577500", "092727.067500", "092728.557500", "092730.047500", "092731.537500", "092733.027500", "092734.517500", "092736.007500", "092737.497500", "092738.987500", "092740.477500", "092741.967500", "092743.457500", "092744.947500", "092746.437500", "092747.927500", "092749.417500", "092750.907500", "092752.397500", "092753.887500", "092755.377500", "092756.867500", "092758.357500", "092759.847500", "092801.337500", "092802.827500", "092804.317500", "092805.807500", "092807.297500", "092808.787500", "092810.277500", "092811.767500", "092813.257500", "092814.747500", "092816.237500", "092817.727500", "092819.217500", "092820.707500", "092822.197500", "092823.687500", "092825.177500", "092826.667500", "092828.157500", "092829.647500", "092831.137500", "092832.627500", "092834.117500", "092835.607500", "092837.097500", "092838.587500", "092840.077500", "092841.567500", "092843.057500", "092844.547500", "092846.037500", "092847.527500", "092849.017500", "092850.507500", "092851.997500", "092853.487500", "092854.977500", "092856.467500", "092857.957500", "092859.447500", "092900.937500", "092902.427500", "092903.917500", "092905.407500", "092906.897500", "092908.387500", "092909.877500", "092911.367500", "092912.857500", "092914.347500", "092915.837500", "092917.327500", "092918.817500", "092920.307500", "092921.797500", "092923.287500", "092924.777500", "092926.267500", "092927.757500", "092929.247500", "092930.737500", "092932.227500", "092933.717500", "092935.207500", "092936.697500", "092938.187500", "092939.677500", "092941.167500", "092942.657500", "092944.147500", "092945.637500", "092947.127500", "092948.617500", "092950.107500", "092951.597500", "092953.087500", "092954.577500", "092956.067500", "092957.557500", "092959.047500", "093000.537500", "093002.027500", "093003.517500", "093005.007500", "093006.497500", "093007.987500", "093009.477500", "093010.967500", "093012.457500", "093013.947500", "093015.437500", "093016.927500", "093018.417500", "093019.907500", "093021.397500", "093022.887500", "093024.377500", "093025.867500", "093027.357500", "093028.847500", "093030.337500", "093031.827500", "093033.317500", "093034.807500", "093036.297500", "093037.787500", "093039.277500", "093040.767500", "093042.257500", "093043.747500", "093045.237500", "093046.727500", "093048.217500", "093049.707500", "093051.197500", "093052.687500", "093054.177500", "093055.667500", "093057.157500", "093058.647500", "093100.137500", "093101.627500", "093103.117500", "093104.607500", "093106.097500", "093107.587500", "093109.077500", "093110.567500", "093112.057500", "093113.547500", "093115.037500", "093116.527500", "093118.017500", "093119.507500", "093120.997500", "093122.487500", "093123.977500", "093125.467500"],
      "ContentTime": ["092104.434000", "092104.438000", "092104.441000", "092104.443000", "092104.446000", "092104.449000", "092104.452000", "092104.455000", "092104.458000", "092104.461000", "092124.395000", "092124.398000", "092124.401000", "092124.404000", "092124.406000", "092124.409000", "092124.412000", "092124.421000", "092124.424000", "092124.427000", "092124.430000", "092124.433000", "092124.436000", "092124.439000", "092124.441000", "092124.451000", "092124.454000", "092124.457000", "092124.459000", "092124.462000", "092144.395000", "092144.398000", "092144.409000", "092144.411000", "092144.414000", "092144.417000", "092144.420000", "092144.423000", "092144.426000", "092144.429000", "092144.431000", "092144.434000", "092144.437000", "092144.440000", "092144.443000", "092144.446000", "092144.448000", "092144.451000", "092144.454000", "092144.457000", "092204.395000", "092204.399000", "092204.402000", "092204.411000", "092204.414000", "092204.417000", "092204.420000", "092204.423000", "092204.426000", "092204.428000", "092204.431000", "092204.434000", "092204.437000", "092204.440000", "092204.443000", "092204.446000", "092204.449000", "092204.451000", "092204.454000", "092204.457000", "092224.395000", "092224.398000", "092224.401000", "092224.404000", "092224.406000", "092224.409000", "092224.412000", "092224.415000", "092224.418000", "092224.421000", "092224.424000", "092224.427000", "092224.429000", "092224.432000", "092224.435000", "092224.438000", "092224.441000", "092224.444000", "092224.446000", "092224.449000", "092224.452000", "092304.394000", "092304.397000", "092304.400000", "092304.403000", "092304.406000", "092304.408000", "092304.411000", "092304.414000", "092304.417000", "092304.420000", "092304.423000", "092304.425000", "092304.429000", "092304.431000", "092304.434000", "092304.437000", "092304.440000", "092304.443000", "092304.446000", "092304.448000", "092304.451000", "092304.454000", "092304.457000", "092304.460000", "092304.463000", "092304.466000", "092304.468000", "092304.471000", "092304.474000", "092304.477000", "092304.480000", "092344.395000", "092344.398000", "092344.401000", "092344.404000", "092344.407000", "092344.409000", "092344.412000", "092344.415000", "092344.418000", "092344.421000", "092344.424000", "092344.427000", "092344.429000", "092344.432000", "092344.435000", "092344.438000", "092344.441000", "092344.444000", "092344.446000", "092344.449000", "092344.452000", "092344.455000", "092344.458000", "092344.461000", "092344.464000", "092344.466000", "092344.469000", "092424.395000", "092424.398000", "092424.401000", "092424.404000", "092424.407000", "092424.409000", "092424.413000", "092424.415000", "092424.418000", "092424.421000", "092424.424000", "092424.427000", "092424.430000", "092424.432000", "092424.435000", "092424.438000", "092424.441000", "092424.444000", "092424.447000", "092424.450000", "092424.453000", "092424.455000", "092424.458000", "092424.461000", "092424.464000", "092424.467000", "092424.470000", "092504.394000", "092504.397000", "092504.400000", "092504.403000", "092504.406000", "092504.409000", "092504.412000", "092504.415000", "092504.418000", "092504.421000", "092504.424000", "092504.426000", "092504.429000", "092504.432000", "092504.435000", "092504.438000", "092504.441000", "092504.444000", "092504.446000", "092504.449000", "092504.452000", "092504.455000", "092504.458000", "092504.461000", "092504.464000", "092504.467000", "092504.469000", "092544.394000", "092544.407000", "092544.410000", "092544.413000", "092544.416000", "092544.419000", "092544.422000", "092544.425000", "092544.428000", "092544.430000", "092544.433000", "092544.436000", "092544.439000", "092544.442000", "092544.445000", "092544.448000", "092544.451000", "092544.453000", "092544.456000", "092544.459000", "092544.462000", "092544.465000", "092544.468000", "092544.472000", "092544.475000", "092544.477000", "092624.395000", "092624.398000", "092624.401000", "092624.404000", "092624.407000", "092624.410000", "092624.413000", "092624.416000", "092624.418000", "092624.421000", "092624.424000", "092624.427000", "092624.430000", "092624.433000", "092624.436000", "092624.439000", "092624.441000", "092624.444000", "092624.447000", "092624.450000", "092624.453000", "092624.456000", "092624.459000", "092624.462000", "092624.465000", "092624.467000", "092624.470000", "092704.395000", "092704.398000", "092704.401000", "092704.404000", "092704.407000", "092704.410000", "092704.413000", "092704.416000", "092704.418000", "092704.421000", "092704.424000", "092704.427000", "092704.430000", "092704.433000", "092704.436000", "092704.438000", "092704.441000", "092704.444000", "092704.447000", "092704.450000", "092704.453000", "092704.456000", "092704.459000", "092704.461000", "092704.464000", "092704.467000", "092704.470000", "092744.394000", "092744.397000", "092744.400000", "092744.403000", "092744.406000", "092744.409000", "092744.411000", "092744.414000", "092744.417000", "092744.420000", "092744.423000", "092744.426000", "092744.429000", "092744.431000", "092744.434000", "092744.437000", "092744.440000", "092744.443000", "092744.446000", "092744.449000", "092744.452000", "092744.455000", "092744.457000", "092744.460000", "092744.463000", "092744.466000", "092744.469000", "092824.395000", "092824.398000", "092824.401000", "092824.404000", "092824.407000", "092824.410000", "092824.413000", "092824.416000", "092824.419000", "092824.421000", "092824.424000", "092824.427000", "092824.430000", "092824.433000", "092824.436000", "092824.439000", "092824.442000", "092824.444000", "092824.447000", "092824.450000", "092824.453000", "092824.456000", "092824.459000", "092824.462000", "092824.465000", "092824.471000", "092824.474000", "092904.395000", "092904.398000", "092904.401000", "092904.404000", "092904.407000", "092904.410000", "092904.417000", "092904.419000", "092904.422000", "092904.425000", "092904.428000", "092904.431000", "092904.434000", "092904.437000", "092904.440000", "092904.443000", "092904.445000", "092904.448000", "092904.451000", "092904.454000", "092904.457000", "092904.460000", "092904.463000", "092904.465000", "092904.468000", "092904.471000", "092904.474000", "092944.394000", "092944.397000", "092944.400000", "092944.403000", "092944.406000", "092944.409000", "092944.412000", "092944.415000", "092944.418000", "092944.420000", "092944.423000", "092944.426000", "092944.429000", "092944.432000", "092944.435000", "092944.438000", "092944.441000", "092944.444000", "092944.446000", "092944.449000", "092944.452000", "092944.455000", "092944.458000", "092944.461000", "092944.464000", "092944.467000", "093004.394000", "093004.397000", "093004.400000", "093004.403000", "093004.406000", "093004.409000", "093004.412000", "093004.415000", "093004.417000", "093004.420000", "093004.423000", "093004.426000", "093004.429000", "093004.432000", "093044.395000", "093044.398000", "093044.401000", "093044.404000", "093044.407000", "093044.410000", "093044.413000", "093044.416000", "093044.419000", "093044.422000", "093044.424000", "093044.427000", "093044.430000", "093044.433000", "093044.436000", "093044.439000", "093044.442000", "093044.445000", "093044.448000", "093044.450000", "093044.453000", "093044.456000", "093044.459000", "093044.462000", "093044.465000", "093044.468000", "093044.471000", "093124.395000", "093124.398000", "093124.401000", "093124.404000", "093124.407000", "093124.410000", "093124.413000", "093124.415000", "093124.418000", "093124.421000", "093124.424000", "093124.427000", "093124.430000", "093124.433000", "093124.436000", "093124.439000", "093124.442000", "093124.444000", "093124.447000", "093124.450000", "093124.453000", "093124.456000", "093124.459000", "093124.462000", "093124.465000", "093124.467000", "093124.470000", "093127.341000", "093127.344000"],
