{
  "AcquisitionMatrixPE": 104,
  "AcquisitionNumber": 1,
  "AcquisitionTime": "09:08:8.067500",
  "BandwidthPerPixelPhaseEncode": 17.17,
  "BaseResolution": 104,
  "BodyPartExamined": "BRAIN",
  "CoilString": "HC1-7;NC1_2",
  "ConsistencyInfo": "N4_VE11C_LATEST_20160120",
  "ConversionSoftware": "dcm2niix",
  "ConversionSoftwareVersion": "v1.0.20200427",
  "DerivedVendorReportedEchoSpacing": 0.000560011,
  "DeviceSerialNumber": "167006",
  "DwellTime": 2.1e-06,
  "EchoTime": 0.037,
  "EchoTrainLength": 104,
  "EffectiveEchoSpacing": 0.000560011,
  "FlipAngle": 52,
  "ImageComments": "Unaliased_MB4_PE3_LB",
  "ImageOrientationPatientDICOM": [0.999955, 0.0016744, -0.0093637, -0.00610851, 0.867624, -0.497184],
  "ImageType": [
    "ORIGINAL",
    "PRIMARY",
    "M",
    "MB",
    "ND",
    "MOSAIC"
],
  "ImagingFrequency": 123.259,
  "InPlanePhaseEncodingDirectionDICOM": "COL",
  "InstitutionAddress": "Chemin_Queen-Mary_4565_Montreal_District_CA_H3W_1W5",
  "InstitutionName": "IUGM",
  "InstitutionalDepartmentName": "Department",
  "MRAcquisitionType": "2D",
  "MagneticFieldStrength": 3,
  "Manufacturer": "Siemens",
  "ManufacturersModelName": "Prisma_fit",
  "Modality": "MR",
  "MultibandAccelerationFactor": 4,
  "PartialFourier": 1,
  "PatientPosition": "HFS",
  "PercentPhaseFOV": 100,
  "PercentSampling": 100,
  "PhaseEncodingDirection": "j",
  "PhaseEncodingSteps": 104,
  "PhaseResolution": 1,
  "PixelBandwidth": 2290,
  "ProcedureStepDescription": "video_friends",
  "ProtocolName": "func_task-friends-s03e08a",
  "PulseSequenceDetails": "%CustomerSeq%_cmrr_mbep2d_bold",
  "ReceiveCoilActiveElements": "HC1-7;NC1,2",
  "ReceiveCoilName": "HeadNeck_64",
  "ReconMatrixPE": 104,
  "RepetitionTime": 1.49,
  "SAR": 0.0348413,
  "ScanOptions": "FS",
  "ScanningSequence": "EP",
  "SequenceName": "epfid2d1_104",
  "SequenceVariant": "SK_SS",
  "SeriesDescription": "func_task-friends-s03e08a",
  "SeriesNumber": 11,
  "ShimSetting": [629, -7201, -8875, 436, 0, -215, 5, -6],
  "SliceThickness": 2,
  "SliceTiming": [0, 0.785, 0.1, 0.8825, 0.1975, 0.98, 0.295, 1.08, 0.3925, 1.1775, 0.49, 1.275, 0.59, 1.3725, 0.6875, 0, 0.785, 0.1, 0.8825, 0.1975, 0.98, 0.295, 1.08, 0.3925, 1.1775, 0.49, 1.275, 0.59, 1.3725, 0.6875, 0, 0.785, 0.1, 0.8825, 0.1975, 0.98, 0.295, 1.08, 0.3925, 1.1775, 0.49, 1.275, 0.59, 1.3725, 0.6875, 0, 0.785, 0.1, 0.8825, 0.1975, 0.98, 0.295, 1.08, 0.3925, 1.1775, 0.49, 1.275, 0.59, 1.3725, 0.6875],
  "SoftwareVersions": "syngo_MR_E11",
  "SpacingBetweenSlices": 2,
  "StationName": "MRC35049",
  "TaskName": "s03e08a",
  "TotalReadoutTime": 0.0576811,
  "TxRefAmp": 249.505,
  "WipMemBlock": "0f5f6deb-e7cd-428a-83c5-22e79a18bc10||Sequence: R016 ve11c/master r/e634e98; Dec 19 2017 11:00:25 by eja",
  "dcmmeta_affine": [
    [-1.999909520149231, -0.012217015027999878, -0.014583352021872997, 103.57823181152344],
    [-0.003348807105794549, 1.735247254371643, -0.9944373965263367, -59.57598876953125],
    [-0.018727390095591545, 0.9943679571151733, 1.7351891994476318, -103.15665435791016],
    [0.0, 0.0, 0.0, 1.0]
],
  "dcmmeta_reorient_transform": [
    [0.0, -1.0, 0.0, 103.0],
    [1.0, 0.0, 0.0, 0.0],
    [0.0, 0.0, 1.0, 0.0],
    [0.0, 0.0, 0.0, 1.0]
],
  "dcmmeta_shape": [104, 104, 60, 460],
  "dcmmeta_slice_dim": 2,
  "dcmmeta_version": 0.6,
  "global": {
    "const": {
      "AcquisitionMatrix": [104, 0, 0, 104],
      "AngioFlag": "N",
      "BitsAllocated": 16,
      "BitsStored": 16,
      "BodyPartExamined": "BRAIN",
      "Columns": 832,
      "EchoNumbers": 1,
      "EchoTime": 37.0,
      "EchoTrainLength": 104,
      "FlipAngle": 52.0,
      "HighBit": 15,
      "ImageOrientationPatient": [0.99995475777389, 0.00167440354521, -0.0093636946834, -0.0061085074571, 0.86762363671148, -0.4971839811943],
      "ImagePositionPatient": [-825.83994845626, -752.00345370072, 368.02995316495],
      "ImageType": [
        "ORIGINAL",
        "PRIMARY",
        "M",
        "MB",
        "ND",
        "MOSAIC"
],
      "ImagedNucleus": "1H",
      "ImagingFrequency": 123.259066,
      "InPlanePhaseEncodingDirection": "COL",
      "MRAcquisitionType": "2D",
      "MagneticFieldStrength": 3.0,
      "Manufacturer": "SIEMENS",
      "ManufacturerModelName": "Prisma_fit",
      "Modality": "MR",
      "NumberOfAverages": 1.0,
      "NumberOfPhaseEncodingSteps": 104,
      "PercentPhaseFieldOfView": 100.0,
      "PercentSampling": 100.0,
      "PerformedProcedureStepStartTime": "084907.541000",
      "PhotometricInterpretation": "MONOCHROME2",
      "PixelBandwidth": 2290.0,
      "PixelRepresentation": 0,
      "PixelSpacing": [2.0, 2.0],
      "ProtocolName": "func_task-friends-s03e08a",
      "RepetitionTime": 1490.0,
      "Rows": 832,
      "SAR": 0.03484131180152,
      "SamplesPerPixel": 1,
      "ScanOptions": "FS",
      "ScanningSequence": "EP",
      "SequenceName": "epfid2d1_104",
      "SequenceVariant": [
        "SK",
        "SS"
],
      "SeriesDescription": "func_task-friends-s03e08a",
      "SeriesNumber": 11,
      "SeriesTime": "090944.564000",
      "SliceLocation": -60.631122115649,
      "SliceThickness": 2.0,
      "SmallestImagePixelValue": 0,
      "SoftwareVersions": "syngo MR E11",
      "SpacingBetweenSlices": 2.0000000023192,
      "SpecificCharacterSet": "ISO_IR 100",
      "StudyID": "1",
      "StudyTime": "084907.411000",
      "TransmitCoilName": "Body",
      "VariableFlipAngleFlag": "N",
      "WindowCenterWidthExplanation": "Algo1",
      "dBdt": 0.0},
    "slices": {}
  },
  "time": {
    "samples": {
      "AcquisitionNumber": [1, 2, 3, 4, 5, 6, 7, 8, 9, 10, 11, 12, 13, 14, 15, 16, 17, 18, 19, 20, 21, 22, 23, 24, 25, 26, 27, 28, 29, 30, 31, 32, 33, 34, 35, 36, 37, 38, 39, 40, 41, 42, 43, 44, 45, 46, 47, 48, 49, 50, 51, 52, 53, 54, 55, 56, 57, 58, 59, 60, 61, 62, 63, 64, 65, 66, 67, 68, 69, 70, 71, 72, 73, 74, 75, 76, 77, 78, 79, 80, 81, 82, 83, 84, 85, 86, 87, 88, 89, 90, 91, 92, 93, 94, 95, 96, 97, 98, 99, 100, 101, 102, 103, 104, 105, 106, 107, 108, 109, 110, 111, 112, 113, 114, 115, 116, 117, 118, 119, 120, 121, 122, 123, 124, 125, 126, 127, 128, 129, 130, 131, 132, 133, 134, 135, 136, 137, 138, 139, 140, 141, 142, 143, 144, 145, 146, 147, 148, 149, 150, 151, 152, 153, 154, 155, 156, 157, 158, 159, 160, 161, 162, 163, 164, 165, 166, 167, 168, 169, 170, 171, 172, 173, 174, 175, 176, 177, 178, 179, 180, 181, 182, 183, 184, 185, 186, 187, 188, 189, 190, 191, 192, 193, 194, 195, 196, 197, 198, 199, 200, 201, 202, 203, 204, 205, 206, 207, 208, 209, 210, 211, 212, 213, 214, 215, 216, 217, 218, 219, 220, 221, 222, 223, 224, 225, 226, 227, 228, 229, 230, 231, 232, 233, 234, 235, 236, 237, 238, 239, 240, 241, 242, 243, 244, 245, 246, 247, 248, 249, 250, 251, 252, 253, 254, 255, 256, 257, 258, 259, 260, 261, 262, 263, 264, 265, 266, 267, 268, 269, 270, 271, 272, 273, 274, 275, 276, 277, 278, 279, 280, 281, 282, 283, 284, 285, 286, 287, 288, 289, 290, 291, 292, 293, 294, 295, 296, 297, 298, 299, 300, 301, 302, 303, 304, 305, 306, 307, 308, 309, 310, 311, 312, 313, 314, 315, 316, 317, 318, 319, 320, 321, 322, 323, 324, 325, 326, 327, 328, 329, 330, 331, 332, 333, 334, 335, 336, 337, 338, 339, 340, 341, 342, 343, 344, 345, 346, 347, 348, 349, 350, 351, 352, 353, 354, 355, 356, 357, 358, 359, 360, 361, 362, 363, 364, 365, 366, 367, 368, 369, 370, 371, 372, 373, 374, 375, 376, 377, 378, 379, 380, 381, 382, 383, 384, 385, 386, 387, 388, 389, 390, 391, 392, 393, 394, 395, 396, 397, 398, 399, 400, 401, 402, 403, 404, 405, 406, 407, 408, 409, 410, 411, 412, 413, 414, 415, 416, 417, 418, 419, 420, 421, 422, 423, 424, 425, 426, 427, 428, 429, 430, 431, 432, 433, 434, 435, 436, 437, 438, 439, 440, 441, 442, 443, 444, 445, 446, 447, 448, 449, 450, 451, 452, 453, 454, 455, 456, 457, 458, 459, 460],
      "AcquisitionTime": ["090808.067500", "090809.557500", "090811.047500", "090812.537500", "090814.027500", "090815.517500", "090817.007500", "090818.497500", "090819.987500", "090821.477500", "090822.967500", "090824.457500", "090825.947500", "090827.437500", "090828.927500", "090830.417500", "090831.907500", "090833.397500", "090834.887500", "090836.377500", "090837.867500", "090839.357500", "090840.847500", "090842.337500", "090843.827500", "090845.317500", "090846.807500", "090848.297500", "090849.787500", "090851.277500", "090852.767500", "090854.257500", "090855.747500", "090857.237500", "090858.727500", "090900.217500", "090901.707500", "090903.197500", "090904.687500", "090906.177500", "090907.667500", "090909.157500", "090910.647500", "090912.137500", "090913.627500", "090915.117500", "090916.607500", "090918.097500", "090919.587500", "090921.077500", "090922.567500", "090924.057500", "090925.547500", "090927.037500", "090928.527500", "090930.017500", "090931.507500", "090932.997500", "090934.487500", "090935.977500", "090937.467500", "090938.957500", "090940.447500", "090941.937500", "090943.427500", "090944.917500", "090946.407500", "090947.897500", "090949.387500", "090950.877500", "090952.367500", "090953.857500", "090955.347500", "090956.837500", "090958.327500", "090959.817500", "091001.307500", "091002.797500", "091004.287500", "091005.777500", "091007.267500", "091008.757500", "091010.247500", "091011.737500", "091013.227500", "091014.717500", "091016.207500", "091017.697500", "091019.187500", "091020.677500", "091022.167500", "091023.657500", "091025.147500", "091026.637500", "091028.127500", "091029.617500", "091031.107500", "091032.597500", "091034.087500", "091035.577500", "091037.067500", "091038.557500", "091040.047500", "091041.537500", "091043.027500", "091044.517500", "091046.007500", "091047.497500", "091048.987500", "091050.477500", "091051.967500", "091053.457500", "091054.947500", "091056.437500", "091057.927500", "091059.417500", "091100.907500", "091102.397500", "091103.887500", "091105.377500", "091106.867500", "091108.357500", "091109.847500", "091111.337500", "091112.827500", "091114.317500", "091115.807500", "091117.297500", "091118.787500", "091120.277500", "091121.767500", "091123.257500", "091124.747500", "091126.237500", "091127.727500", "091129.217500", "091130.707500", "091132.197500", "091133.687500", "091135.177500", "091136.667500", "091138.157500", "091139.647500", "091141.137500", "091142.627500", "091144.117500", "091145.607500", "091147.097500", "091148.587500", "091150.077500", "091151.567500", "091153.057500", "091154.547500", "091156.037500", "091157.527500", "091159.017500", "091200.507500", "091201.997500", "091203.487500", "091204.977500", "091206.467500", "091207.957500", "091209.447500", "091210.937500", "091212.427500", "091213.917500", "091215.407500", "091216.897500", "091218.387500", "091219.877500", "091221.367500", "091222.857500", "091224.347500", "091225.837500", "091227.327500", "091228.817500", "091230.307500", "091231.797500", "091233.287500", "091234.777500", "091236.267500", "091237.757500", "091239.247500", "091240.737500", "091242.227500", "091243.717500", "091245.207500", "091246.697500", "091248.187500", "091249.677500", "091251.167500", "091252.657500", "091254.147500", "091255.637500", "091257.127500", "091258.617500", "091300.107500", "091301.597500", "091303.087500", "091304.577500", "091306.067500", "091307.557500", "091309.047500", "091310.537500", "091312.027500", "091313.517500", "091315.007500", "091316.497500", "091317.987500", "091319.477500", "091320.967500", "091322.457500", "091323.947500", "091325.437500", "091326.927500", "091328.417500", "091329.907500", "091331.397500", "091332.887500", "091334.377500", "091335.867500", "091337.357500", "091338.847500", "091340.337500", "091341.827500", "091343.317500", "091344.807500", "091346.297500", "091347.787500", "091349.277500", "091350.767500", "091352.257500", "091353.747500", "091355.237500", "091356.727500", "091358.217500", "091359.707500", "091401.197500", "091402.687500", "091404.177500", "091405.667500", "091407.157500", "091408.647500", "091410.137500", "091411.627500", "091413.117500", "091414.607500", "091416.097500", "091417.587500", "091419.077500", "091420.567500", "091422.057500", "091423.547500", "091425.037500", "091426.527500", "091428.017500", "091429.507500", "091430.997500", "091432.487500", "091433.977500", "091435.467500", "091436.957500", "091438.447500", "091439.937500", "091441.427500", "091442.917500", "091444.407500", "091445.897500", "091447.387500", "091448.877500", "091450.367500", "091451.857500", "091453.347500", "091454.837500", "091456.327500", "091457.817500", "091459.307500", "091500.797500", "091502.287500", "091503.777500", "091505.267500", "091506.757500", "091508.247500", "091509.737500", "091511.227500", "091512.717500", "091514.207500", "091515.697500", "091517.187500", "091518.677500", "091520.167500", "091521.657500", "091523.147500", "091524.637500", "091526.127500", "091527.617500", "091529.107500", "091530.597500", "091532.087500", "091533.577500", "091535.067500", "091536.557500", "091538.047500", "091539.537500", "091541.027500", "091542.517500", "091544.007500", "091545.497500", "091546.987500", "091548.477500", "091549.967500", "091551.457500", "091552.947500", "091554.437500", "091555.927500", "091557.417500", "091558.907500", "091600.397500", "091601.887500", "091603.377500", "091604.867500", "091606.357500", "091607.847500", "091609.337500", "091610.827500", "091612.317500", "091613.807500", "091615.297500", "091616.787500", "091618.277500", "091619.767500", "091621.257500", "091622.747500", "091624.237500", "091625.727500", "091627.217500", "091628.707500", "091630.197500", "091631.687500", "091633.177500", "091634.667500", "091636.157500", "091637.647500", "091639.137500", "091640.627500", "091642.117500", "091643.607500", "091645.097500", "091646.587500", "091648.077500", "091649.567500", "091651.057500", "091652.547500", "091654.037500", "091655.527500", "091657.017500", "091658.507500", "091659.997500", "091701.487500", "091702.977500", "091704.467500", "091705.957500", "091707.447500", "091708.937500", "091710.427500", "091711.917500", "091713.407500", "091714.897500", "091716.387500", "091717.877500", "091719.367500", "091720.857500", "091722.347500", "091723.837500", "091725.327500", "091726.817500", "091728.307500", "091729.797500", "091731.287500", "091732.777500", "091734.267500", "091735.757500", "091737.247500", "091738.737500", "091740.227500", "091741.717500", "091743.207500", "091744.697500", "091746.187500", "091747.677500", "091749.167500", "091750.657500", "091752.147500", "091753.637500", "091755.127500", "091756.617500", "091758.107500", "091759.597500", "091801.087500", "091802.577500", "091804.067500", "091805.557500", "091807.047500", "091808.537500", "091810.027500", "091811.517500", "091813.007500", "091814.497500", "091815.987500", "091817.477500", "091818.967500", "091820.457500", "091821.947500", "091823.437500", "091824.927500", "091826.417500", "091827.907500", "091829.397500", "091830.887500", "091832.377500", "091833.867500", "091835.357500", "091836.847500", "091838.337500", "091839.827500", "091841.317500", "091842.807500", "091844.297500", "091845.787500", "091847.277500", "091848.767500", "091850.257500", "091851.747500", "091853.237500", "091854.727500", "091856.217500", "091857.707500", "091859.197500", "091900.687500", "091902.177500", "091903.667500", "091905.157500", "091906.647500", "091908.137500", "091909.627500", "091911.117500", "091912.607500", "091914.097500", "091915.587500", "091917.077500", "091918.567500", "091920.057500", "091921.547500", "091923.037500", "091924.527500", "091926.017500", "091927.507500", "091928.997500", "091930.487500", "091931.977500"],
      "ContentTime": ["090944.568000", "090944.572000", "090944.576000", "090944.579000", "090944.582000", "090944.585000", "090944.589000", "090944.595000", "090944.600000", "090944.603000", "090944.618000", "090944.622000", "090944.625000", "090944.628000", "090944.632000", "090944.648000", "090944.667000", "090944.671000", "090944.676000", "090944.679000", "090944.682000", "090944.685000", "090944.699000", "090944.702000", "090944.706000", "090944.710000", "090944.714000", "090944.717000", "090944.720000", "090944.723000", "090944.726000", "090944.729000", "091004.533000", "091004.536000", "091004.546000", "091004.549000", "091004.552000", "091004.555000", "091004.558000", "091004.561000", "091004.563000", "091004.566000", "091004.569000", "091004.572000", "091004.575000", "091004.578000", "091004.581000", "091004.584000", "091004.587000", "091004.590000", "091004.593000", "091004.596000", "091024.533000", "091024.536000", "091024.539000", "091024.542000", "091024.544000", "091024.547000", "091024.550000", "091024.553000", "091024.556000", "091024.559000", "091024.567000", "091024.570000", "091024.573000", "091024.576000", "091024.579000", "091024.581000", "091024.584000", "091024.587000", "091024.590000", "091024.593000", "091044.533000", "091044.541000", "091044.544000", "091044.547000", "091044.549000", "091044.553000", "091044.555000", "091044.558000", "091044.561000", "091044.564000", "091044.567000", "091044.570000", "091044.572000", "091044.575000", "091044.578000", "091044.581000", "091044.584000", "091044.587000", "091044.590000", "091044.593000", "091104.532000", "091104.535000", "091104.538000", "091104.541000", "091104.543000", "091104.546000", "091104.549000", "091104.552000", "091104.562000", "091104.564000", "091104.567000", "091104.586000", "091104.589000", "091104.592000", "091104.595000", "091104.598000", "091104.600000", "091104.603000", "091104.606000", "091104.609000", "091104.612000", "091144.532000", "091144.535000", "091144.538000", "091144.541000", "091144.544000", "091144.547000", "091144.549000", "091144.552000", "091144.555000", "091144.558000", "091144.561000", "091144.564000", "091144.567000", "091144.570000", "091144.572000", "091144.575000", "091144.578000", "091144.581000", "091144.584000", "091144.587000", "091144.590000", "091144.593000", "091144.595000", "091144.598000", "091144.601000", "091144.604000", "091144.607000", "091144.610000", "091144.613000", "091144.616000", "091144.619000", "091224.533000", "091224.536000", "091224.539000", "091224.542000", "091224.545000", "091224.547000", "091224.550000", "091224.553000", "091224.556000", "091224.559000", "091224.562000", "091224.565000", "091224.568000", "091224.571000", "091224.573000", "091224.576000", "091224.585000", "091224.588000", "091224.591000", "091224.594000", "091224.597000", "091224.599000", "091224.602000", "091224.605000", "091224.608000", "091224.611000", "091224.614000", "091304.533000", "091304.536000", "091304.539000", "091304.542000", "091304.544000", "091304.547000", "091304.550000", "091304.553000", "091304.556000", "091304.559000", "091304.562000", "091304.565000", "091304.568000", "091304.571000", "091304.574000", "091304.577000", "091304.579000", "091304.582000", "091304.585000", "091304.588000", "091304.591000", "091304.594000", "091304.597000", "091304.599000", "091304.602000", "091304.605000", "091304.608000", "091344.532000", "091344.535000", "091344.538000", "091344.541000", "091344.543000", "091344.547000", "091344.549000", "091344.552000", "091344.555000", "091344.558000", "091344.561000", "091344.564000", "091344.567000", "091344.570000", "091344.572000", "091344.575000", "091344.578000", "091344.581000", "091344.584000", "091344.587000", "091344.590000", "091344.593000", "091344.595000", "091344.604000", "091344.607000", "091344.610000", "091344.613000", "091424.533000", "091424.536000", "091424.539000", "091424.542000", "091424.545000", "091424.547000", "091424.550000", "091424.553000", "091424.556000", "091424.559000", "091424.562000", "091424.565000", "091424.568000", "091424.571000", "091424.573000", "091424.576000", "091424.579000", "091424.582000", "091424.585000", "091424.588000", "091424.591000", "091424.594000", "091424.597000", "091424.599000", "091424.602000", "091424.605000", "091424.608000", "091504.533000", "091504.536000", "091504.539000", "091504.542000", "091504.545000", "091504.548000", "091504.550000", "091504.553000", "091504.556000", "091504.560000", "091504.563000", "091504.566000", "091504.569000", "091504.572000", "091504.575000", "091504.577000", "091504.580000", "091504.583000", "091504.586000", "091504.589000", "091504.592000", "091504.595000", "091504.598000", "091504.600000", "091504.603000", "091504.606000", "091544.532000", "091544.535000", "091544.538000", "091544.541000", "091544.544000", "091544.547000", "091544.550000", "091544.552000", "091544.555000", "091544.558000", "091544.561000", "091544.564000", "091544.567000", "091544.570000", "091544.573000", "091544.576000", "091544.579000", "091544.582000", "091544.584000", "091544.587000", "091544.590000", "091544.593000", "091544.607000", "091544.610000", "091544.612000", "091544.615000", "091544.618000", "091624.532000", "091624.535000", "091624.538000", "091624.541000", "091624.544000", "091624.546000", "091624.549000", "091624.552000", "091624.555000", "091624.558000", "091624.561000", "091624.564000", "091624.567000", "091624.570000", "091624.573000", "091624.575000", "091624.578000", "091624.581000", "091624.584000", "091624.587000", "091624.590000", "091624.593000", "091624.596000", "091624.599000", "091624.602000", "091624.604000", "091624.607000", "091704.533000", "091704.536000", "091704.539000", "091704.542000", "091704.545000", "091704.547000", "091704.550000", "091704.553000", "091704.556000", "091704.559000", "091704.562000", "091704.565000", "091704.568000", "091704.571000", "091704.574000", "091704.577000", "091704.579000", "091704.582000", "091704.585000", "091704.588000", "091704.591000", "091704.594000", "091704.597000", "091704.600000", "091704.603000", "091704.605000", "091704.608000", "091744.533000", "091744.536000", "091744.539000", "091744.542000", "091744.545000", "091744.548000", "091744.551000", "091744.553000", "091744.556000", "091744.559000", "091744.562000", "091744.565000", "091744.568000", "091744.571000", "091744.574000", "091744.577000", "091744.579000", "091744.582000", "091744.585000", "091744.588000", "091744.591000", "091744.594000", "091744.597000", "091744.600000", "091744.602000", "091744.605000", "091744.608000", "091824.532000", "091824.535000", "091824.538000", "091824.541000", "091824.544000", "091824.547000", "091824.549000", "091824.552000", "091824.555000", "091824.558000", "091824.561000", "091824.564000", "091824.567000", "091824.570000", "091824.572000", "091824.575000", "091824.578000", "091824.581000", "091824.584000", "091824.587000", "091824.590000", "091824.593000", "091824.596000", "091824.598000", "091824.601000", "091824.604000", "091824.607000", "091904.534000", "091904.538000", "091904.540000", "091904.543000", "091904.547000", "091904.550000", "091904.553000", "091904.555000", "091904.558000", "091904.561000", "091904.564000", "091904.567000", "091904.570000", "091904.573000", "091904.576000", "091904.578000", "091904.581000", "091904.584000", "091904.587000", "091904.590000", "091904.593000", "091904.596000", "091904.599000", "091904.602000", "091904.605000", "091904.607000", "091904.610000", "091934.367000", "091934.371000", "091934.373000", "091934.376000", "091934.379000", "091934.382000", "091934.385000", "091934.388000", "091934.391000", "091934.394000", "091934.397000", "091934.400000", "091934.402000", "091934.405000", "091934.408000", "091934.412000", "091934.415000", "091934.418000", "091934.421000", "091934.423000"],
