{
  "AcquisitionMatrixPE": 104,
  "AcquisitionNumber": 1,
  "AcquisitionTime": "09:31:53.660000",
  "BandwidthPerPixelPhaseEncode": 17.17,
  "BaseResolution": 104,
  "BodyPartExamined": "BRAIN",
  "CoilString": "HC1-7;NC1_2",
  "ConsistencyInfo": "N4_VE11C_LATEST_20160120",
  "ConversionSoftware": "dcm2niix",
  "ConversionSoftwareVersion": "v1.0.20200427",
  "DerivedVendorReportedEchoSpacing": 0.000560011,
  "DeviceSerialNumber": "167006",
  "DwellTime": 2.1e-06,
  "EchoTime": 0.037,
  "EchoTrainLength": 104,
  "EffectiveEchoSpacing": 0.000560011,
  "FlipAngle": 52,
  "ImageComments": "Unaliased_MB4_PE3_LB",
  "ImageOrientationPatientDICOM": [0.999955, 0.0016744, -0.0093637, -0.00610851, 0.867624, -0.497184],
  "ImageType": [
    "ORIGINAL",
    "PRIMARY",
    "M",
    "MB",
    "ND",
    "MOSAIC"
],
  "ImagingFrequency": 123.259,
  "InPlanePhaseEncodingDirectionDICOM": "COL",
  "InstitutionAddress": "Chemin_Queen-Mary_4565_Montreal_District_CA_H3W_1W5",
  "InstitutionName": "IUGM",
  "InstitutionalDepartmentName": "Department",
  "MRAcquisitionType": "2D",
  "MagneticFieldStrength": 3,
  "Manufacturer": "Siemens",
  "ManufacturersModelName": "Prisma_fit",
  "Modality": "MR",
  "MultibandAccelerationFactor": 4,
  "PartialFourier": 1,
  "PatientPosition": "HFS",
  "PercentPhaseFOV": 100,
  "PercentSampling": 100,
  "PhaseEncodingDirection": "j",
  "PhaseEncodingSteps": 104,
  "PhaseResolution": 1,
  "PixelBandwidth": 2290,
  "ProcedureStepDescription": "video_friends",
  "ProtocolName": "func_task-friends-s03e09a",
  "PulseSequenceDetails": "%CustomerSeq%_cmrr_mbep2d_bold",
  "ReceiveCoilActiveElements": "HC1-7;NC1,2",
  "ReceiveCoilName": "HeadNeck_64",
  "ReconMatrixPE": 104,
  "RepetitionTime": 1.49,
  "SAR": 0.0348513,
  "ScanOptions": "FS",
  "ScanningSequence": "EP",
  "SequenceName": "epfid2d1_104",
  "SequenceVariant": "SK_SS",
  "SeriesDescription": "func_task-friends-s03e09a",
  "SeriesNumber": 15,
  "ShimSetting": [629, -7201, -8875, 436, 0, -215, 5, -6],
  "SliceThickness": 2,
  "SliceTiming": [0, 0.785, 0.0975, 0.8825, 0.1975, 0.98, 0.295, 1.0775, 0.3925, 1.1775, 0.49, 1.275, 0.5875, 1.3725, 0.6875, 0, 0.785, 0.0975, 0.8825, 0.1975, 0.98, 0.295, 1.0775, 0.3925, 1.1775, 0.49, 1.275, 0.5875, 1.3725, 0.6875, 0, 0.785, 0.0975, 0.8825, 0.1975, 0.98, 0.295, 1.0775, 0.3925, 1.1775, 0.49, 1.275, 0.5875, 1.3725, 0.6875, 0, 0.785, 0.0975, 0.8825, 0.1975, 0.98, 0.295, 1.0775, 0.3925, 1.1775, 0.49, 1.275, 0.5875, 1.3725, 0.6875],
  "SoftwareVersions": "syngo_MR_E11",
  "SpacingBetweenSlices": 2,
  "StationName": "MRC35049",
  "TaskName": "s03e09a",
  "TotalReadoutTime": 0.0576811,
  "TxRefAmp": 249.505,
  "WipMemBlock": "076a84b9-070d-47f0-b628-b52bb0ead021||Sequence: R016 ve11c/master r/e634e98; Dec 19 2017 11:00:25 by eja",
  "dcmmeta_affine": [
    [-1.999909520149231, -0.012217015027999878, -0.014583352021872997, 103.57823181152344],
    [-0.003348807105794549, 1.735247254371643, -0.9944373965263367, -59.57598876953125],
    [-0.018727390095591545, 0.9943679571151733, 1.7351891994476318, -103.15665435791016],
    [0.0, 0.0, 0.0, 1.0]
],
  "dcmmeta_reorient_transform": [
    [0.0, -1.0, 0.0, 103.0],
    [1.0, 0.0, 0.0, 0.0],
    [0.0, 0.0, 1.0, 0.0],
    [0.0, 0.0, 0.0, 1.0]
],
  "dcmmeta_shape": [104, 104, 60, 493],
  "dcmmeta_slice_dim": 2,
  "dcmmeta_version": 0.6,
  "global": {
    "const": {
      "AcquisitionMatrix": [104, 0, 0, 104],
      "AngioFlag": "N",
      "BitsAllocated": 16,
      "BitsStored": 16,
      "BodyPartExamined": "BRAIN",
      "Columns": 832,
      "EchoNumbers": 1,
      "EchoTime": 37.0,
      "EchoTrainLength": 104,
      "FlipAngle": 52.0,
      "HighBit": 15,
      "ImageOrientationPatient": [0.99995475777389, 0.00167440354521, -0.0093636946834, -0.0061085074571, 0.86762363671148, -0.4971839811943],
      "ImagePositionPatient": [-825.83994845626, -752.00345370072, 368.02995316495],
      "ImageType": [
        "ORIGINAL",
        "PRIMARY",
        "M",
        "MB",
        "ND",
        "MOSAIC"
],
      "ImagedNucleus": "1H",
      "ImagingFrequency": 123.259086,
      "InPlanePhaseEncodingDirection": "COL",
      "MRAcquisitionType": "2D",
      "MagneticFieldStrength": 3.0,
      "Manufacturer": "SIEMENS",
      "ManufacturerModelName": "Prisma_fit",
      "Modality": "MR",
      "NumberOfAverages": 1.0,
      "NumberOfPhaseEncodingSteps": 104,
      "PercentPhaseFieldOfView": 100.0,
      "PercentSampling": 100.0,
      "PerformedProcedureStepStartTime": "084907.541000",
      "PhotometricInterpretation": "MONOCHROME2",
      "PixelBandwidth": 2290.0,
      "PixelRepresentation": 0,
      "PixelSpacing": [2.0, 2.0],
      "ProtocolName": "func_task-friends-s03e09a",
      "RepetitionTime": 1490.0,
      "Rows": 832,
      "SAR": 0.03485133391257,
      "SamplesPerPixel": 1,
      "ScanOptions": "FS",
      "ScanningSequence": "EP",
      "SequenceName": "epfid2d1_104",
      "SequenceVariant": [
        "SK",
        "SS"
],
      "SeriesDescription": "func_task-friends-s03e09a",
      "SeriesNumber": 15,
      "SeriesTime": "093313.099000",
      "SliceLocation": -60.631122115649,
      "SliceThickness": 2.0,
      "SmallestImagePixelValue": 0,
      "SoftwareVersions": "syngo MR E11",
      "SpacingBetweenSlices": 2.0000000023192,
      "SpecificCharacterSet": "ISO_IR 100",
      "StudyID": "1",
      "StudyTime": "084907.411000",
      "TransmitCoilName": "Body",
      "VariableFlipAngleFlag": "N",
      "WindowCenterWidthExplanation": "Algo1",
      "dBdt": 0.0},
    "slices": {}
  },
  "time": {
    "samples": {
      "AcquisitionNumber": [1, 2, 3, 4, 5, 6, 7, 8, 9, 10, 11, 12, 13, 14, 15, 16, 17, 18, 19, 20, 21, 22, 23, 24, 25, 26, 27, 28, 29, 30, 31, 32, 33, 34, 35, 36, 37, 38, 39, 40, 41, 42, 43, 44, 45, 46, 47, 48, 49, 50, 51, 52, 53, 54, 55, 56, 57, 58, 59, 60, 61, 62, 63, 64, 65, 66, 67, 68, 69, 70, 71, 72, 73, 74, 75, 76, 77, 78, 79, 80, 81, 82, 83, 84, 85, 86, 87, 88, 89, 90, 91, 92, 93, 94, 95, 96, 97, 98, 99, 100, 101, 102, 103, 104, 105, 106, 107, 108, 109, 110, 111, 112, 113, 114, 115, 116, 117, 118, 119, 120, 121, 122, 123, 124, 125, 126, 127, 128, 129, 130, 131, 132, 133, 134, 135, 136, 137, 138, 139, 140, 141, 142, 143, 144, 145, 146, 147, 148, 149, 150, 151, 152, 153, 154, 155, 156, 157, 158, 159, 160, 161, 162, 163, 164, 165, 166, 167, 168, 169, 170, 171, 172, 173, 174, 175, 176, 177, 178, 179, 180, 181, 182, 183, 184, 185, 186, 187, 188, 189, 190, 191, 192, 193, 194, 195, 196, 197, 198, 199, 200, 201, 202, 203, 204, 205, 206, 207, 208, 209, 210, 211, 212, 213, 214, 215, 216, 217, 218, 219, 220, 221, 222, 223, 224, 225, 226, 227, 228, 229, 230, 231, 232, 233, 234, 235, 236, 237, 238, 239, 240, 241, 242, 243, 244, 245, 246, 247, 248, 249, 250, 251, 252, 253, 254, 255, 256, 257, 258, 259, 260, 261, 262, 263, 264, 265, 266, 267, 268, 269, 270, 271, 272, 273, 274, 275, 276, 277, 278, 279, 280, 281, 282, 283, 284, 285, 286, 287, 288, 289, 290, 291, 292, 293, 294, 295, 296, 297, 298, 299, 300, 301, 302, 303, 304, 305, 306, 307, 308, 309, 310, 311, 312, 313, 314, 315, 316, 317, 318, 319, 320, 321, 322, 323, 324, 325, 326, 327, 328, 329, 330, 331, 332, 333, 334, 335, 336, 337, 338, 339, 340, 341, 342, 343, 344, 345, 346, 347, 348, 349, 350, 351, 352, 353, 354, 355, 356, 357, 358, 359, 360, 361, 362, 363, 364, 365, 366, 367, 368, 369, 370, 371, 372, 373, 374, 375, 376, 377, 378, 379, 380, 381, 382, 383, 384, 385, 386, 387, 388, 389, 390, 391, 392, 393, 394, 395, 396, 397, 398, 399, 400, 401, 402, 403, 404, 405, 406, 407, 408, 409, 410, 411, 412, 413, 414, 415, 416, 417, 418, 419, 420, 421, 422, 423, 424, 425, 426, 427, 428, 429, 430, 431, 432, 433, 434, 435, 436, 437, 438, 439, 440, 441, 442, 443, 444, 445, 446, 447, 448, 449, 450, 451, 452, 453, 454, 455, 456, 457, 458, 459, 460, 461, 462, 463, 464, 465, 466, 467, 468, 469, 470, 471, 472, 473, 474, 475, 476, 477, 478, 479, 480, 481, 482, 483, 484, 485, 486, 487, 488, 489, 490, 491, 492, 493],
      "AcquisitionTime": ["093153.660000", "093155.150000", "093156.640000", "093158.130000", "093159.620000", "093201.110000", "093202.600000", "093204.090000", "093205.580000", "093207.070000", "093208.560000", "093210.050000", "093211.540000", "093213.030000", "093214.520000", "093216.010000", "093217.500000", "093218.990000", "093220.480000", "093221.970000", "093223.460000", "093224.950000", "093226.440000", "093227.930000", "093229.420000", "093230.910000", "093232.400000", "093233.890000", "093235.380000", "093236.870000", "093238.360000", "093239.850000", "093241.340000", "093242.830000", "093244.320000", "093245.810000", "093247.300000", "093248.790000", "093250.280000", "093251.770000", "093253.260000", "093254.750000", "093256.240000", "093257.730000", "093259.220000", "093300.710000", "093302.200000", "093303.690000", "093305.180000", "093306.670000", "093308.160000", "093309.650000", "093311.140000", "093312.630000", "093314.120000", "093315.610000", "093317.100000", "093318.590000", "093320.080000", "093321.570000", "093323.060000", "093324.550000", "093326.040000", "093327.530000", "093329.020000", "093330.510000", "093332.000000", "093333.490000", "093334.980000", "093336.470000", "093337.960000", "093339.450000", "093340.940000", "093342.430000", "093343.920000", "093345.410000", "093346.900000", "093348.390000", "093349.880000", "093351.370000", "093352.860000", "093354.350000", "093355.840000", "093357.330000", "093358.820000", "093400.310000", "093401.800000", "093403.290000", "093404.780000", "093406.270000", "093407.760000", "093409.250000", "093410.740000", "093412.230000", "093413.720000", "093415.210000", "093416.700000", "093418.190000", "093419.680000", "093421.170000", "093422.660000", "093424.150000", "093425.640000", "093427.130000", "093428.620000", "093430.110000", "093431.600000", "093433.090000", "093434.580000", "093436.070000", "093437.560000", "093439.050000", "093440.540000", "093442.030000", "093443.520000", "093445.010000", "093446.500000", "093447.990000", "093449.480000", "093450.970000", "093452.460000", "093453.950000", "093455.440000", "093456.930000", "093458.420000", "093459.910000", "093501.400000", "093502.890000", "093504.380000", "093505.870000", "093507.360000", "093508.850000", "093510.340000", "093511.830000", "093513.320000", "093514.810000", "093516.300000", "093517.790000", "093519.280000", "093520.770000", "093522.260000", "093523.750000", "093525.240000", "093526.730000", "093528.220000", "093529.710000", "093531.200000", "093532.690000", "093534.180000", "093535.670000", "093537.160000", "093538.650000", "093540.140000", "093541.630000", "093543.120000", "093544.610000", "093546.100000", "093547.590000", "093549.080000", "093550.570000", "093552.060000", "093553.550000", "093555.040000", "093556.530000", "093558.020000", "093559.510000", "093601.000000", "093602.490000", "093603.980000", "093605.470000", "093606.960000", "093608.450000", "093609.940000", "093611.430000", "093612.920000", "093614.410000", "093615.900000", "093617.390000", "093618.880000", "093620.370000", "093621.860000", "093623.350000", "093624.840000", "093626.330000", "093627.820000", "093629.310000", "093630.800000", "093632.290000", "093633.780000", "093635.270000", "093636.760000", "093638.250000", "093639.740000", "093641.230000", "093642.720000", "093644.210000", "093645.700000", "093647.190000", "093648.680000", "093650.170000", "093651.660000", "093653.150000", "093654.640000", "093656.130000", "093657.620000", "093659.110000", "093700.600000", "093702.090000", "093703.580000", "093705.070000", "093706.560000", "093708.050000", "093709.540000", "093711.030000", "093712.520000", "093714.010000", "093715.500000", "093716.990000", "093718.480000", "093719.970000", "093721.460000", "093722.950000", "093724.440000", "093725.930000", "093727.420000", "093728.910000", "093730.400000", "093731.890000", "093733.380000", "093734.870000", "093736.360000", "093737.850000", "093739.340000", "093740.830000", "093742.320000", "093743.810000", "093745.300000", "093746.790000", "093748.280000", "093749.770000", "093751.260000", "093752.750000", "093754.240000", "093755.730000", "093757.220000", "093758.710000", "093800.200000", "093801.690000", "093803.180000", "093804.670000", "093806.160000", "093807.650000", "093809.140000", "093810.630000", "093812.120000", "093813.610000", "093815.100000", "093816.590000", "093818.080000", "093819.570000", "093821.060000", "093822.550000", "093824.040000", "093825.530000", "093827.020000", "093828.510000", "093830.000000", "093831.490000", "093832.980000", "093834.470000", "093835.960000", "093837.450000", "093838.940000", "093840.430000", "093841.920000", "093843.410000", "093844.900000", "093846.390000", "093847.880000", "093849.370000", "093850.860000", "093852.350000", "093853.840000", "093855.330000", "093856.820000", "093858.310000", "093859.800000", "093901.290000", "093902.780000", "093904.270000", "093905.760000", "093907.250000", "093908.740000", "093910.230000", "093911.720000", "093913.210000", "093914.700000", "093916.190000", "093917.680000", "093919.170000", "093920.660000", "093922.150000", "093923.640000", "093925.130000", "093926.620000", "093928.110000", "093929.600000", "093931.090000", "093932.580000", "093934.070000", "093935.560000", "093937.050000", "093938.540000", "093940.030000", "093941.520000", "093943.010000", "093944.500000", "093945.990000", "093947.480000", "093948.970000", "093950.460000", "093951.950000", "093953.440000", "093954.930000", "093956.420000", "093957.910000", "093959.400000", "094000.890000", "094002.380000", "094003.870000", "094005.360000", "094006.850000", "094008.340000", "094009.830000", "094011.320000", "094012.810000", "094014.300000", "094015.790000", "094017.280000", "094018.770000", "094020.260000", "094021.750000", "094023.240000", "094024.730000", "094026.220000", "094027.710000", "094029.200000", "094030.690000", "094032.180000", "094033.670000", "094035.160000", "094036.650000", "094038.140000", "094039.630000", "094041.120000", "094042.610000", "094044.100000", "094045.590000", "094047.080000", "094048.570000", "094050.060000", "094051.550000", "094053.040000", "094054.530000", "094056.020000", "094057.510000", "094059.000000", "094100.490000", "094101.980000", "094103.470000", "094104.960000", "094106.450000", "094107.940000", "094109.430000", "094110.920000", "094112.410000", "094113.900000", "094115.390000", "094116.880000", "094118.370000", "094119.860000", "094121.350000", "094122.840000", "094124.330000", "094125.820000", "094127.310000", "094128.800000", "094130.290000", "094131.780000", "094133.270000", "094134.760000", "094136.250000", "094137.740000", "094139.230000", "094140.720000", "094142.210000", "094143.700000", "094145.190000", "094146.680000", "094148.170000", "094149.660000", "094151.150000", "094152.640000", "094154.130000", "094155.620000", "094157.110000", "094158.600000", "094200.090000", "094201.580000", "094203.070000", "094204.560000", "094206.050000", "094207.540000", "094209.030000", "094210.520000", "094212.010000", "094213.500000", "094214.990000", "094216.480000", "094217.970000", "094219.460000", "094220.950000", "094222.440000", "094223.930000", "094225.420000", "094226.910000", "094228.400000", "094229.890000", "094231.380000", "094232.870000", "094234.360000", "094235.850000", "094237.340000", "094238.830000", "094240.320000", "094241.810000", "094243.300000", "094244.790000", "094246.280000", "094247.770000", "094249.260000", "094250.750000", "094252.240000", "094253.730000", "094255.220000", "094256.710000", "094258.200000", "094259.690000", "094301.180000", "094302.670000", "094304.160000", "094305.650000", "094307.140000", "094308.630000", "094310.120000", "094311.610000", "094313.100000", "094314.590000", "094316.080000", "094317.570000", "094319.060000", "094320.550000", "094322.040000", "094323.530000", "094325.020000", "094326.510000", "094328.000000", "094329.490000", "094330.980000", "094332.470000", "094333.960000", "094335.450000", "094336.940000", "094338.430000", "094339.920000", "094341.410000", "094342.900000", "094344.390000", "094345.880000", "094347.370000", "094348.860000", "094350.350000", "094351.840000", "094353.330000", "094354.820000", "094356.310000", "094357.800000", "094359.290000", "094400.780000", "094402.270000", "094403.760000", "094405.250000", "094406.740000"],
      "ContentTime": ["093313.101000", "093313.105000", "093313.108000", "093313.110000", "093313.113000", "093313.116000", "093313.119000", "093313.122000", "093313.125000", "093313.127000", "093313.130000", "093313.133000", "093313.136000", "093313.139000", "093313.147000", "093313.150000", "093313.152000", "093313.155000", "093313.158000", "093313.161000", "093313.164000", "093313.167000", "093313.170000", "093313.172000", "093313.184000", "093313.187000", "093313.190000", "093313.193000", "093333.069000", "093333.072000", "093333.075000", "093333.078000", "093333.081000", "093333.084000", "093333.096000", "093333.099000", "093333.102000", "093333.105000", "093333.108000", "093333.111000", "093333.113000", "093333.116000", "093333.119000", "093333.122000", "093333.125000", "093333.128000", "093333.131000", "093333.133000", "093353.069000", "093353.072000", "093353.075000", "093353.078000", "093353.080000", "093353.083000", "093353.086000", "093353.089000", "093353.092000", "093353.095000", "093353.098000", "093353.100000", "093353.103000", "093353.115000", "093353.117000", "093353.120000", "093353.123000", "093353.126000", "093353.129000", "093353.132000", "093413.070000", "093413.073000", "093413.080000", "093413.083000", "093413.086000", "093413.089000", "093413.091000", "093413.095000", "093413.097000", "093413.100000", "093413.103000", "093413.106000", "093413.109000", "093413.112000", "093413.114000", "093413.118000", "093413.120000", "093413.123000", "093413.126000", "093413.129000", "093413.132000", "093453.069000", "093453.083000", "093453.086000", "093453.089000", "093453.092000", "093453.094000", "093453.097000", "093453.100000", "093453.109000", "093453.112000", "093453.115000", "093453.118000", "093453.121000", "093453.123000", "093453.126000", "093453.129000", "093453.132000", "093453.135000", "093453.138000", "093453.141000", "093453.144000", "093453.146000", "093453.149000", "093453.152000", "093453.155000", "093453.158000", "093453.161000", "093453.163000", "093453.166000", "093453.169000", "093453.172000", "093533.069000", "093533.072000", "093533.075000", "093533.078000", "093533.081000", "093533.084000", "093533.087000", "093533.090000", "093533.092000", "093533.095000", "093533.098000", "093533.101000", "093533.104000", "093533.107000", "093533.110000", "093533.113000", "093533.116000", "093533.119000", "093533.122000", "093533.124000", "093533.127000", "093533.130000", "093533.133000", "093533.137000", "093533.140000", "093533.143000", "093533.146000", "093613.069000", "093613.072000", "093613.075000", "093613.077000", "093613.080000", "093613.083000", "093613.086000", "093613.089000", "093613.092000", "093613.095000", "093613.098000", "093613.101000", "093613.104000", "093613.107000", "093613.110000", "093613.113000", "093613.116000", "093613.119000", "093613.121000", "093613.124000", "093613.127000", "093613.130000", "093613.133000", "093613.136000", "093613.139000", "093613.142000", "093653.070000", "093653.073000", "093653.076000", "093653.078000", "093653.081000", "093653.084000", "093653.087000", "093653.090000", "093653.093000", "093653.096000", "093653.099000", "093653.102000", "093653.105000", "093653.107000", "093653.110000", "093653.113000", "093653.116000", "093653.119000", "093653.122000", "093653.125000", "093653.128000", "093653.131000", "093653.134000", "093653.136000", "093653.139000", "093653.142000", "093653.145000", "093733.069000", "093733.072000", "093733.075000", "093733.078000", "093733.081000", "093733.083000", "093733.086000", "093733.089000", "093733.092000", "093733.095000", "093733.098000", "093733.101000", "093733.104000", "093733.106000", "093733.109000", "093733.112000", "093733.115000", "093733.118000", "093733.121000", "093733.124000", "093733.127000", "093733.130000", "093733.133000", "093733.136000", "093733.139000", "093733.141000", "093733.151000", "093813.069000", "093813.072000", "093813.075000", "093813.078000", "093813.081000", "093813.083000", "093813.086000", "093813.089000", "093813.092000", "093813.095000", "093813.098000", "093813.101000", "093813.104000", "093813.107000", "093813.110000", "093813.112000", "093813.115000", "093813.118000", "093813.121000", "093813.124000", "093813.127000", "093813.130000", "093813.133000", "093813.136000", "093813.138000", "093813.147000", "093813.150000", "093853.070000", "093853.073000", "093853.076000", "093853.079000", "093853.082000", "093853.085000", "093853.088000", "093853.090000", "093853.093000", "093853.096000", "093853.099000", "093853.102000", "093853.105000", "093853.108000", "093853.111000", "093853.114000", "093853.116000", "093853.120000", "093853.122000", "093853.125000", "093853.128000", "093853.131000", "093853.134000", "093853.137000", "093853.140000", "093853.143000", "093853.146000", "093933.069000", "093933.072000", "093933.075000", "093933.078000", "093933.081000", "093933.084000", "093933.086000", "093933.089000", "093933.092000", "093933.095000", "093933.098000", "093933.101000", "093933.104000", "093933.107000", "093933.109000", "093933.112000", "093933.115000", "093933.118000", "093933.121000", "093933.124000", "093933.127000", "093933.130000", "093933.132000", "093933.135000", "093933.138000", "093933.141000", "093933.144000", "093953.069000", "093953.072000", "093953.075000", "093953.078000", "093953.081000", "093953.084000", "093953.086000", "093953.089000", "093953.092000", "093953.095000", "093953.098000", "093953.101000", "093953.104000", "094033.069000", "094033.072000", "094033.075000", "094033.077000", "094033.081000", "094033.083000", "094033.086000", "094033.089000", "094033.092000", "094033.095000", "094033.098000", "094033.101000", "094033.104000", "094033.107000", "094033.109000", "094033.112000", "094033.115000", "094033.118000", "094033.121000", "094033.124000", "094033.127000", "094033.130000", "094033.132000", "094033.135000", "094033.138000", "094033.141000", "094033.144000", "094113.070000", "094113.073000", "094113.076000", "094113.079000", "094113.082000", "094113.085000", "094113.087000", "094113.090000", "094113.093000", "094113.096000", "094113.099000", "094113.102000", "094113.105000", "094113.107000", "094113.110000", "094113.113000", "094113.116000", "094113.119000", "094113.122000", "094113.125000", "094113.128000", "094113.130000", "094113.133000", "094113.136000", "094113.139000", "094113.142000", "094113.145000", "094153.069000", "094153.072000", "094153.080000", "094153.083000", "094153.085000", "094153.088000", "094153.091000", "094153.094000", "094153.097000", "094153.100000", "094153.103000", "094153.106000", "094153.108000", "094153.111000", "094153.114000", "094153.117000", "094153.120000", "094153.123000", "094153.126000", "094153.129000", "094153.132000", "094153.135000", "094153.138000", "094153.140000", "094153.143000", "094153.146000", "094153.149000", "094233.069000", "094233.072000", "094233.075000", "094233.078000", "094233.081000", "094233.083000", "094233.086000", "094233.089000", "094233.092000", "094233.095000", "094233.098000", "094233.101000", "094233.104000", "094233.107000", "094233.110000", "094233.113000", "094233.116000", "094233.119000", "094233.121000", "094233.124000", "094233.127000", "094233.130000", "094233.133000", "094233.136000", "094233.139000", "094233.141000", "094313.069000", "094313.072000", "094313.075000", "094313.078000", "094313.081000", "094313.083000", "094313.086000", "094313.089000", "094313.092000", "094313.095000", "094313.098000", "094313.101000", "094313.104000", "094313.107000", "094313.110000", "094313.113000", "094313.115000", "094313.118000", "094313.121000", "094313.124000", "094313.127000", "094313.130000", "094313.133000", "094313.136000", "094313.138000", "094313.141000", "094313.144000", "094353.070000", "094353.073000", "094353.076000", "094353.079000", "094353.082000", "094353.085000", "094353.088000", "094353.090000", "094353.093000", "094353.096000", "094353.099000", "094353.102000", "094353.105000", "094353.107000", "094353.110000", "094353.113000", "094353.116000", "094353.119000", "094353.122000", "094353.125000", "094353.128000", "094353.130000", "094353.133000", "094353.136000", "094353.139000", "094353.142000", "094353.145000", "094408.587000", "094408.591000", "094408.594000", "094408.597000", "094408.600000", "094408.603000", "094408.606000", "094408.608000", "094408.611000", "094408.614000", "094408.617000"],
