{
  "AcquisitionMatrixPE": 104,
  "AcquisitionNumber": 1,
  "AcquisitionTime": "16:43:25.505000",
  "BandwidthPerPixelPhaseEncode": 17.17,
  "BaseResolution": 104,
  "BodyPartExamined": "BRAIN",
  "CoilString": "HC1-7;NC1_2",
  "ConsistencyInfo": "N4_VE11C_LATEST_20160120",
  "ConversionSoftware": "dcm2niix",
  "ConversionSoftwareVersion": "v1.0.20190720  (JP2:OpenJPEG) GCC7.3.0",
  "DerivedVendorReportedEchoSpacing": 0.000560011,
  "DeviceSerialNumber": "167006",
  "DwellTime": 2.1e-06,
  "EchoTime": 0.037,
  "EchoTrainLength": 104,
  "EffectiveEchoSpacing": 0.000560011,
  "FlipAngle": 52,
  "ImageComments": "Unaliased_MB4_PE3_LB",
  "ImageOrientationPatientDICOM": [0.999893, -0.0112482, 0.00939063, 0.0136129, 0.950216, -0.311294],
  "ImageType": [
    "ORIGINAL",
    "PRIMARY",
    "M",
    "MB",
    "ND",
    "MOSAIC"
],
  "ImagingFrequency": 123.259,
  "InPlanePhaseEncodingDirectionDICOM": "COL",
  "InstitutionAddress": "Chemin_Queen-Mary_4565_Montreal_District_CA_H3W_1W5",
  "InstitutionName": "IUGM",
  "InstitutionalDepartmentName": "Department",
  "MRAcquisitionType": "2D",
  "MagneticFieldStrength": 3,
  "Manufacturer": "Siemens",
  "ManufacturersModelName": "Prisma_fit",
  "Modality": "MR",
  "MultibandAccelerationFactor": 4,
  "PartialFourier": 1,
  "PatientPosition": "HFS",
  "PercentPhaseFOV": 100,
  "PhaseEncodingDirection": "j",
  "PhaseEncodingSteps": 104,
  "PhaseResolution": 1,
  "PixelBandwidth": 2290,
  "ProcedureStepDescription": "video_friends",
  "ProtocolName": "func_task-s01e09b",
  "PulseSequenceDetails": "%CustomerSeq%_cmrr_mbep2d_bold",
  "ReceiveCoilActiveElements": "HC1-7;NC1,2",
  "ReceiveCoilName": "HeadNeck_64",
  "ReconMatrixPE": 104,
  "RepetitionTime": 1.49,
  "SAR": 0.03288,
  "ScanOptions": "FS",
  "ScanningSequence": "EP",
  "SequenceName": "epfid2d1_104",
  "SequenceVariant": "SK_SS",
  "SeriesDescription": "func_task-s01e09b",
  "SeriesNumber": 10,
  "ShimSetting": [619, -7216, -8778, 705, 2, -13, 9, 1],
  "SliceThickness": 2,
  "SliceTiming": [0, 0.7825, 0.0975, 0.8825, 0.195, 0.98, 0.2925, 1.0775, 0.3925, 1.175, 0.49, 1.2725, 0.5875, 1.3725, 0.685, 0, 0.7825, 0.0975, 0.8825, 0.195, 0.98, 0.2925, 1.0775, 0.3925, 1.175, 0.49, 1.2725, 0.5875, 1.3725, 0.685, 0, 0.7825, 0.0975, 0.8825, 0.195, 0.98, 0.2925, 1.0775, 0.3925, 1.175, 0.49, 1.2725, 0.5875, 1.3725, 0.685, 0, 0.7825, 0.0975, 0.8825, 0.195, 0.98, 0.2925, 1.0775, 0.3925, 1.175, 0.49, 1.2725, 0.5875, 1.3725, 0.685],
  "SoftwareVersions": "syngo_MR_E11",
  "SpacingBetweenSlices": 2,
  "StationName": "MRC35049",
  "TaskName": "friends",
  "TotalReadoutTime": 0.0576811,
  "TxRefAmp": 211.386,
  "WipMemBlock": "9302a585-0acf-41bc-98ec-3624f5e609da||Sequence: R016 ve11c/master r/e634e98; Dec 19 2017 11:00:25 by eja",
  "dcmmeta_affine": [
    [-1.999785304069519, 0.027225898578763008, 0.010843256488442421, 102.93949127197266],
    [0.02249644696712494, 1.9004325866699219, -0.6227760314941406, -80.87501525878906],
    [0.018781257793307304, 0.6225872039794922, 1.900534749031067, -59.21025848388672],
    [0.0, 0.0, 0.0, 1.0]
],
  "dcmmeta_reorient_transform": [
    [0.0, -1.0, 0.0, 103.0],
    [1.0, 0.0, 0.0, 0.0],
    [0.0, 0.0, 1.0, 0.0],
    [0.0, 0.0, 0.0, 1.0]
],
  "dcmmeta_shape": [104, 104, 60, 468],
  "dcmmeta_slice_dim": 2,
  "dcmmeta_version": 0.6,
  "global": {
    "const": {
      "AcquisitionMatrix": [104, 0, 0, 104],
      "AngioFlag": "N",
      "BitsAllocated": 16,
      "BitsStored": 16,
      "BodyPartExamined": "BRAIN",
      "Columns": 832,
      "EchoNumbers": 1,
      "EchoTime": 37.0,
      "EchoTrainLength": 104,
      "FlipAngle": 52.0,
      "HighBit": 15,
      "ImageOrientationPatient": [0.99989264101932, -0.011248223321, 0.00939062870808, 0.01361294900372, 0.95021628333166, -0.3112935953578],
      "ImagePositionPatient": [-843.57582764339, -798.43828765371, 224.7015807068],
      "ImageType": [
        "ORIGINAL",
        "PRIMARY",
        "M",
        "MB",
        "ND",
        "MOSAIC"
],
      "ImagedNucleus": "1H",
      "ImagingFrequency": 123.259178,
      "InPlanePhaseEncodingDirection": "COL",
      "MRAcquisitionType": "2D",
      "MagneticFieldStrength": 3.0,
      "Manufacturer": "SIEMENS",
      "ManufacturerModelName": "Prisma_fit",
      "Modality": "MR",
      "NumberOfAverages": 1.0,
      "NumberOfPhaseEncodingSteps": 104,
      "PercentPhaseFieldOfView": 100.0,
      "PercentSampling": 100.0,
      "PerformedProcedureStepStartTime": "161344.504000",
      "PhotometricInterpretation": "MONOCHROME2",
      "PixelBandwidth": 2290.0,
      "PixelRepresentation": 0,
      "PixelSpacing": [2.0, 2.0],
      "ProtocolName": "func_task-s01e09b",
      "RepetitionTime": 1490.0,
      "Rows": 832,
      "SAR": 0.03288004852328,
      "SamplesPerPixel": 1,
      "ScanOptions": "FS",
      "ScanningSequence": "EP",
      "SequenceName": "epfid2d1_104",
      "SequenceVariant": [
        "SK",
        "SS"
],
      "SeriesDescription": "func_task-s01e09b",
      "SeriesNumber": 10,
      "SeriesTime": "164500.759000",
      "SliceLocation": -30.52396953141,
      "SliceThickness": 2.0,
      "SmallestImagePixelValue": 0,
      "SoftwareVersions": "syngo MR E11",
      "SpacingBetweenSlices": 1.9999999883757,
      "SpecificCharacterSet": "ISO_IR 100",
      "StudyID": "1",
      "StudyTime": "161344.443000",
      "TransmitCoilName": "Body",
      "VariableFlipAngleFlag": "N",
      "WindowCenterWidthExplanation": "Algo1",
      "dBdt": 0.0},
    "slices": {}
  },
  "time": {
    "samples": {
      "AcquisitionNumber": [1, 2, 3, 4, 5, 6, 7, 8, 9, 10, 11, 12, 13, 14, 15, 16, 17, 18, 19, 20, 21, 22, 23, 24, 25, 26, 27, 28, 29, 30, 31, 32, 33, 34, 35, 36, 37, 38, 39, 40, 41, 42, 43, 44, 45, 46, 47, 48, 49, 50, 51, 52, 53, 54, 55, 56, 57, 58, 59, 60, 61, 62, 63, 64, 65, 66, 67, 68, 69, 70, 71, 72, 73, 74, 75, 76, 77, 78, 79, 80, 81, 82, 83, 84, 85, 86, 87, 88, 89, 90, 91, 92, 93, 94, 95, 96, 97, 98, 99, 100, 101, 102, 103, 104, 105, 106, 107, 108, 109, 110, 111, 112, 113, 114, 115, 116, 117, 118, 119, 120, 121, 122, 123, 124, 125, 126, 127, 128, 129, 130, 131, 132, 133, 134, 135, 136, 137, 138, 139, 140, 141, 142, 143, 144, 145, 146, 147, 148, 149, 150, 151, 152, 153, 154, 155, 156, 157, 158, 159, 160, 161, 162, 163, 164, 165, 166, 167, 168, 169, 170, 171, 172, 173, 174, 175, 176, 177, 178, 179, 180, 181, 182, 183, 184, 185, 186, 187, 188, 189, 190, 191, 192, 193, 194, 195, 196, 197, 198, 199, 200, 201, 202, 203, 204, 205, 206, 207, 208, 209, 210, 211, 212, 213, 214, 215, 216, 217, 218, 219, 220, 221, 222, 223, 224, 225, 226, 227, 228, 229, 230, 231, 232, 233, 234, 235, 236, 237, 238, 239, 240, 241, 242, 243, 244, 245, 246, 247, 248, 249, 250, 251, 252, 253, 254, 255, 256, 257, 258, 259, 260, 261, 262, 263, 264, 265, 266, 267, 268, 269, 270, 271, 272, 273, 274, 275, 276, 277, 278, 279, 280, 281, 282, 283, 284, 285, 286, 287, 288, 289, 290, 291, 292, 293, 294, 295, 296, 297, 298, 299, 300, 301, 302, 303, 304, 305, 306, 307, 308, 309, 310, 311, 312, 313, 314, 315, 316, 317, 318, 319, 320, 321, 322, 323, 324, 325, 326, 327, 328, 329, 330, 331, 332, 333, 334, 335, 336, 337, 338, 339, 340, 341, 342, 343, 344, 345, 346, 347, 348, 349, 350, 351, 352, 353, 354, 355, 356, 357, 358, 359, 360, 361, 362, 363, 364, 365, 366, 367, 368, 369, 370, 371, 372, 373, 374, 375, 376, 377, 378, 379, 380, 381, 382, 383, 384, 385, 386, 387, 388, 389, 390, 391, 392, 393, 394, 395, 396, 397, 398, 399, 400, 401, 402, 403, 404, 405, 406, 407, 408, 409, 410, 411, 412, 413, 414, 415, 416, 417, 418, 419, 420, 421, 422, 423, 424, 425, 426, 427, 428, 429, 430, 431, 432, 433, 434, 435, 436, 437, 438, 439, 440, 441, 442, 443, 444, 445, 446, 447, 448, 449, 450, 451, 452, 453, 454, 455, 456, 457, 458, 459, 460, 461, 462, 463, 464, 465, 466, 467, 468],
      "AcquisitionTime": ["164325.505000", "164326.995000", "164328.485000", "164329.975000", "164331.465000", "164332.955000", "164334.445000", "164335.935000", "164337.425000", "164338.915000", "164340.405000", "164341.895000", "164343.385000", "164344.875000", "164346.365000", "164347.855000", "164349.345000", "164350.835000", "164352.325000", "164353.815000", "164355.305000", "164356.795000", "164358.285000", "164359.775000", "164401.265000", "164402.755000", "164404.245000", "164405.735000", "164407.225000", "164408.715000", "164410.205000", "164411.695000", "164413.185000", "164414.675000", "164416.165000", "164417.655000", "164419.145000", "164420.635000", "164422.125000", "164423.615000", "164425.105000", "164426.595000", "164428.085000", "164429.575000", "164431.065000", "164432.555000", "164434.045000", "164435.535000", "164437.025000", "164438.515000", "164440.005000", "164441.495000", "164442.985000", "164444.475000", "164445.965000", "164447.455000", "164448.945000", "164450.435000", "164451.925000", "164453.415000", "164454.905000", "164456.395000", "164457.885000", "164459.375000", "164500.865000", "164502.355000", "164503.845000", "164505.335000", "164506.825000", "164508.315000", "164509.805000", "164511.295000", "164512.785000", "164514.275000", "164515.765000", "164517.255000", "164518.745000", "164520.235000", "164521.725000", "164523.215000", "164524.705000", "164526.195000", "164527.685000", "164529.175000", "164530.665000", "164532.155000", "164533.645000", "164535.135000", "164536.625000", "164538.115000", "164539.605000", "164541.095000", "164542.585000", "164544.075000", "164545.565000", "164547.055000", "164548.545000", "164550.035000", "164551.525000", "164553.015000", "164554.505000", "164555.995000", "164557.485000", "164558.975000", "164600.465000", "164601.955000", "164603.445000", "164604.935000", "164606.425000", "164607.915000", "164609.405000", "164610.895000", "164612.385000", "164613.875000", "164615.365000", "164616.855000", "164618.345000", "164619.835000", "164621.325000", "164622.815000", "164624.305000", "164625.795000", "164627.285000", "164628.775000", "164630.265000", "164631.755000", "164633.245000", "164634.735000", "164636.225000", "164637.715000", "164639.205000", "164640.695000", "164642.185000", "164643.675000", "164645.165000", "164646.655000", "164648.145000", "164649.635000", "164651.125000", "164652.615000", "164654.105000", "164655.595000", "164657.085000", "164658.575000", "164700.065000", "164701.555000", "164703.045000", "164704.535000", "164706.025000", "164707.515000", "164709.005000", "164710.495000", "164711.985000", "164713.475000", "164714.965000", "164716.455000", "164717.945000", "164719.435000", "164720.925000", "164722.415000", "164723.905000", "164725.395000", "164726.885000", "164728.375000", "164729.865000", "164731.355000", "164732.845000", "164734.335000", "164735.825000", "164737.315000", "164738.805000", "164740.295000", "164741.785000", "164743.275000", "164744.765000", "164746.255000", "164747.745000", "164749.235000", "164750.725000", "164752.215000", "164753.705000", "164755.195000", "164756.685000", "164758.175000", "164759.665000", "164801.155000", "164802.645000", "164804.135000", "164805.625000", "164807.115000", "164808.605000", "164810.095000", "164811.585000", "164813.075000", "164814.565000", "164816.055000", "164817.545000", "164819.035000", "164820.525000", "164822.015000", "164823.505000", "164824.995000", "164826.485000", "164827.975000", "164829.465000", "164830.955000", "164832.445000", "164833.935000", "164835.425000", "164836.915000", "164838.405000", "164839.895000", "164841.385000", "164842.875000", "164844.365000", "164845.855000", "164847.345000", "164848.835000", "164850.325000", "164851.815000", "164853.305000", "164854.795000", "164856.285000", "164857.775000", "164859.265000", "164900.755000", "164902.245000", "164903.735000", "164905.225000", "164906.715000", "164908.205000", "164909.695000", "164911.185000", "164912.675000", "164914.165000", "164915.655000", "164917.145000", "164918.635000", "164920.125000", "164921.615000", "164923.105000", "164924.595000", "164926.085000", "164927.575000", "164929.065000", "164930.555000", "164932.045000", "164933.535000", "164935.025000", "164936.515000", "164938.005000", "164939.495000", "164940.985000", "164942.475000", "164943.965000", "164945.455000", "164946.945000", "164948.435000", "164949.925000", "164951.415000", "164952.905000", "164954.395000", "164955.885000", "164957.375000", "164958.865000", "165000.355000", "165001.845000", "165003.335000", "165004.825000", "165006.315000", "165007.805000", "165009.295000", "165010.785000", "165012.275000", "165013.765000", "165015.255000", "165016.745000", "165018.235000", "165019.725000", "165021.215000", "165022.705000", "165024.195000", "165025.685000", "165027.175000", "165028.665000", "165030.155000", "165031.645000", "165033.135000", "165034.625000", "165036.115000", "165037.605000", "165039.095000", "165040.585000", "165042.075000", "165043.565000", "165045.055000", "165046.545000", "165048.035000", "165049.525000", "165051.015000", "165052.505000", "165053.995000", "165055.485000", "165056.975000", "165058.465000", "165059.955000", "165101.445000", "165102.935000", "165104.425000", "165105.915000", "165107.405000", "165108.895000", "165110.385000", "165111.875000", "165113.365000", "165114.855000", "165116.345000", "165117.835000", "165119.325000", "165120.815000", "165122.305000", "165123.795000", "165125.285000", "165126.775000", "165128.265000", "165129.755000", "165131.245000", "165132.735000", "165134.225000", "165135.715000", "165137.205000", "165138.695000", "165140.185000", "165141.675000", "165143.165000", "165144.655000", "165146.145000", "165147.635000", "165149.125000", "165150.615000", "165152.105000", "165153.595000", "165155.085000", "165156.575000", "165158.065000", "165159.555000", "165201.045000", "165202.535000", "165204.025000", "165205.515000", "165207.005000", "165208.495000", "165209.985000", "165211.475000", "165212.965000", "165214.455000", "165215.945000", "165217.435000", "165218.925000", "165220.415000", "165221.905000", "165223.395000", "165224.885000", "165226.375000", "165227.865000", "165229.355000", "165230.845000", "165232.335000", "165233.825000", "165235.315000", "165236.805000", "165238.295000", "165239.785000", "165241.275000", "165242.765000", "165244.255000", "165245.745000", "165247.235000", "165248.725000", "165250.215000", "165251.705000", "165253.195000", "165254.685000", "165256.175000", "165257.665000", "165259.155000", "165300.645000", "165302.135000", "165303.625000", "165305.115000", "165306.605000", "165308.095000", "165309.585000", "165311.075000", "165312.565000", "165314.055000", "165315.545000", "165317.035000", "165318.525000", "165320.015000", "165321.505000", "165322.995000", "165324.485000", "165325.975000", "165327.465000", "165328.955000", "165330.445000", "165331.935000", "165333.425000", "165334.915000", "165336.405000", "165337.895000", "165339.385000", "165340.875000", "165342.365000", "165343.855000", "165345.345000", "165346.835000", "165348.325000", "165349.815000", "165351.305000", "165352.795000", "165354.285000", "165355.775000", "165357.265000", "165358.755000", "165400.245000", "165401.735000", "165403.225000", "165404.715000", "165406.205000", "165407.695000", "165409.185000", "165410.675000", "165412.165000", "165413.655000", "165415.145000", "165416.635000", "165418.125000", "165419.615000", "165421.105000", "165422.595000", "165424.085000", "165425.575000", "165427.065000", "165428.555000", "165430.045000", "165431.535000", "165433.025000", "165434.515000", "165436.005000", "165437.495000", "165438.985000", "165440.475000", "165441.965000", "165443.455000", "165444.945000", "165446.435000", "165447.925000", "165449.415000", "165450.905000", "165452.395000", "165453.885000", "165455.375000", "165456.865000", "165458.355000", "165459.845000", "165501.335000"],
      "ContentTime": ["164500.762000", "164500.765000", "164500.768000", "164500.771000", "164500.774000", "164500.777000", "164500.780000", "164500.783000", "164500.786000", "164500.789000", "164500.792000", "164500.795000", "164500.798000", "164500.801000", "164500.804000", "164500.807000", "164500.810000", "164500.819000", "164500.822000", "164500.824000", "164500.827000", "164500.830000", "164500.833000", "164500.836000", "164500.839000", "164500.842000", "164500.845000", "164500.848000", "164500.850000", "164500.853000", "164500.856000", "164500.859000", "164500.862000", "164500.865000", "164500.868000", "164500.871000", "164500.873000", "164500.876000", "164520.726000", "164520.729000", "164520.732000", "164520.735000", "164520.738000", "164520.747000", "164520.750000", "164520.753000", "164520.756000", "164520.759000", "164520.762000", "164520.765000", "164520.767000", "164520.771000", "164520.773000", "164520.776000", "164520.779000", "164520.782000", "164520.785000", "164520.788000", "164520.791000", "164540.726000", "164540.729000", "164540.732000", "164540.735000", "164540.738000", "164540.751000", "164540.754000", "164540.757000", "164540.759000", "164540.762000", "164540.765000", "164540.768000", "164540.771000", "164540.774000", "164540.777000", "164540.780000", "164540.783000", "164540.786000", "164540.788000", "164540.791000", "164600.726000", "164600.729000", "164600.732000", "164600.735000", "164600.738000", "164600.741000", "164600.743000", "164600.746000", "164600.749000", "164600.752000", "164600.755000", "164600.758000", "164600.761000", "164600.764000", "164600.767000", "164600.770000", "164600.773000", "164600.776000", "164600.779000", "164600.781000", "164640.726000", "164640.729000", "164640.732000", "164640.735000", "164640.738000", "164640.741000", "164640.744000", "164640.746000", "164640.749000", "164640.752000", "164640.755000", "164640.758000", "164640.761000", "164640.764000", "164640.767000", "164640.769000", "164640.772000", "164640.775000", "164640.778000", "164640.781000", "164640.784000", "164640.787000", "164640.790000", "164640.793000", "164640.796000", "164640.799000", "164640.801000", "164640.811000", "164640.814000", "164640.817000", "164640.820000", "164720.726000", "164720.729000", "164720.732000", "164720.735000", "164720.738000", "164720.741000", "164720.744000", "164720.746000", "164720.749000", "164720.752000", "164720.755000", "164720.758000", "164720.761000", "164720.764000", "164720.767000", "164720.770000", "164720.773000", "164720.776000", "164720.779000", "164720.782000", "164720.785000", "164720.787000", "164720.790000", "164720.793000", "164720.796000", "164720.799000", "164720.802000", "164800.726000", "164800.729000", "164800.732000", "164800.735000", "164800.738000", "164800.741000", "164800.743000", "164800.746000", "164800.749000", "164800.752000", "164800.755000", "164800.758000", "164800.761000", "164800.764000", "164800.767000", "164800.770000", "164800.790000", "164800.793000", "164800.796000", "164800.803000", "164800.806000", "164800.809000", "164800.812000", "164800.815000", "164800.817000", "164800.820000", "164800.823000", "164840.726000", "164840.729000", "164840.732000", "164840.735000", "164840.738000", "164840.741000", "164840.744000", "164840.747000", "164840.750000", "164840.752000", "164840.755000", "164840.758000", "164840.761000", "164840.764000", "164840.767000", "164840.770000", "164840.773000", "164840.776000", "164840.779000", "164840.782000", "164840.784000", "164840.787000", "164840.790000", "164840.793000", "164840.796000", "164840.799000", "164840.802000", "164920.726000", "164920.729000", "164920.732000", "164920.735000", "164920.738000", "164920.741000", "164920.744000", "164920.747000", "164920.749000", "164920.752000", "164920.755000", "164920.758000", "164920.761000", "164920.764000", "164920.768000", "164920.771000", "164920.774000", "164920.777000", "164920.779000", "164920.782000", "164920.785000", "164920.788000", "164920.791000", "164920.794000", "164920.797000", "164920.800000", "164940.726000", "164940.729000", "164940.732000", "164940.735000", "164940.738000", "164940.741000", "164940.744000", "164940.747000", "164940.749000", "164940.752000", "164940.755000", "164940.758000", "164940.761000", "164940.764000", "165020.726000", "165020.729000", "165020.732000", "165020.735000", "165020.738000", "165020.741000", "165020.743000", "165020.746000", "165020.749000", "165020.767000", "165020.770000", "165020.773000", "165020.776000", "165020.779000", "165020.782000", "165020.785000", "165020.788000", "165020.791000", "165020.794000", "165020.796000", "165020.799000", "165020.802000", "165020.805000", "165020.808000", "165020.811000", "165020.814000", "165020.817000", "165100.726000", "165100.729000", "165100.733000", "165100.736000", "165100.739000", "165100.741000", "165100.744000", "165100.747000", "165100.750000", "165100.753000", "165100.756000", "165100.759000", "165100.762000", "165100.765000", "165100.768000", "165100.771000", "165100.774000", "165100.776000", "165100.779000", "165100.782000", "165100.785000", "165100.788000", "165100.791000", "165100.794000", "165100.797000", "165100.800000", "165140.726000", "165140.729000", "165140.732000", "165140.735000", "165140.738000", "165140.741000", "165140.744000", "165140.746000", "165140.749000", "165140.752000", "165140.755000", "165140.758000", "165140.761000", "165140.764000", "165140.767000", "165140.770000", "165140.773000", "165140.776000", "165140.779000", "165140.782000", "165140.784000", "165140.787000", "165140.790000", "165140.793000", "165140.796000", "165140.799000", "165140.802000", "165220.726000", "165220.729000", "165220.732000", "165220.735000", "165220.738000", "165220.741000", "165220.744000", "165220.747000", "165220.750000", "165220.752000", "165220.755000", "165220.758000", "165220.761000", "165220.764000", "165220.767000", "165220.770000", "165220.773000", "165220.776000", "165220.779000", "165220.781000", "165220.784000", "165220.787000", "165220.790000", "165220.793000", "165220.796000", "165220.799000", "165220.802000", "165300.726000", "165300.729000", "165300.732000", "165300.735000", "165300.738000", "165300.741000", "165300.744000", "165300.747000", "165300.750000", "165300.752000", "165300.755000", "165300.758000", "165300.761000", "165300.764000", "165300.767000", "165300.879000", "165300.882000", "165300.885000", "165300.887000", "165300.891000", "165300.894000", "165300.896000", "165300.899000", "165300.902000", "165300.905000", "165300.908000", "165300.911000", "165340.726000", "165340.729000", "165340.732000", "165340.735000", "165340.738000", "165340.741000", "165340.744000", "165340.747000", "165340.750000", "165340.752000", "165340.755000", "165340.758000", "165340.761000", "165340.764000", "165340.767000", "165340.770000", "165340.773000", "165340.776000", "165340.779000", "165340.782000", "165340.784000", "165340.787000", "165340.790000", "165340.793000", "165340.796000", "165340.799000", "165340.802000", "165420.726000", "165420.729000", "165420.732000", "165420.735000", "165420.738000", "165420.741000", "165420.744000", "165420.747000", "165420.749000", "165420.752000", "165420.755000", "165420.758000", "165420.761000", "165420.764000", "165420.767000", "165420.770000", "165420.773000", "165420.776000", "165420.778000", "165420.797000", "165420.800000", "165420.803000", "165420.806000", "165420.809000", "165420.811000", "165420.814000", "165420.817000", "165500.726000", "165500.729000", "165500.732000", "165500.735000", "165500.738000", "165500.741000", "165500.744000", "165500.747000", "165500.750000", "165500.753000", "165500.756000", "165500.758000", "165500.761000", "165500.764000", "165500.767000", "165500.770000", "165500.773000", "165500.776000", "165500.779000", "165500.782000", "165500.785000", "165500.788000", "165500.791000", "165500.794000", "165500.796000", "165500.799000", "165500.802000", "165503.670000", "165503.674000"],
