{
  "AcquisitionMatrixPE": 104,
  "AcquisitionNumber": 1,
  "AcquisitionTime": "11:17:26.397500",
  "BandwidthPerPixelPhaseEncode": 17.17,
  "BaseResolution": 104,
  "BodyPartExamined": "BRAIN",
  "CoilCombinationMethod": "Sum of Squares",
  "ConsistencyInfo": "N4_VE11C_LATEST_20160120",
  "ConversionSoftware": "dcm2niix",
  "ConversionSoftwareVersion": "v1.0.20211006",
  "DerivedVendorReportedEchoSpacing": 0.000560011,
  "DeviceSerialNumber": "167006",
  "DwellTime": 2.1e-06,
  "EchoTime": 0.037,
  "EchoTrainLength": 104,
  "EffectiveEchoSpacing": 0.000560011,
  "FlipAngle": 52,
  "HeudiconvVersion": "0.11.3.post9+gc939bf8",
  "ImageComments": "Unaliased MB4/PE3/LB",
  "ImageOrientationPatientDICOM": [0.999894, 0.000263402, -0.0145832, -0.00471195, 0.952059, -0.305877],
  "ImageOrientationText": "Tra>Cor(-17.8)>Sag(-0.8)",
  "ImageType": [
    "ORIGINAL",
    "PRIMARY",
    "M",
    "MB",
    "ND",
    "MOSAIC"
],
  "ImagingFrequency": 123.259,
  "InPlanePhaseEncodingDirectionDICOM": "COL",
  "InstitutionAddress": "Chemin Queen-Mary 4565,Montreal,District,CA,H3W 1W5",
  "InstitutionName": "IUGM",
  "InstitutionalDepartmentName": "Department",
  "MRAcquisitionType": "2D",
  "MagneticFieldStrength": 3,
  "Manufacturer": "Siemens",
  "ManufacturersModelName": "Prisma_fit",
  "MatrixCoilMode": "SENSE",
  "Modality": "MR",
  "MultibandAccelerationFactor": 4,
  "PartialFourier": 1,
  "PatientPosition": "HFS",
  "PercentPhaseFOV": 100,
  "PercentSampling": 100,
  "PhaseEncodingDirection": "j",
  "PhaseEncodingSteps": 104,
  "PhaseResolution": 1,
  "PixelBandwidth": 2290,
  "ProcedureStepDescription": "video^friends",
  "ProtocolName": "func_task-friends-s06e22a",
  "PulseSequenceDetails": "%CustomerSeq%\\cmrr_mbep2d_bold",
  "ReceiveCoilActiveElements": "HC1-7;NC1,2",
  "ReceiveCoilName": "HeadNeck_64",
  "ReconMatrixPE": 104,
  "RepetitionTime": 1.49,
  "SAR": 0.0571827,
  "ScanOptions": "FS",
  "ScanningSequence": "EP",
  "SequenceName": "epfid2d1_104",
  "SequenceVariant": "SK\\SS",
  "SeriesDescription": "func_task-friends-s06e22a",
  "SeriesNumber": 10,
  "ShimSetting": [620, -7208, -8777, 677, 41, 36, 31, -15],
  "SliceThickness": 2,
  "SliceTiming": [0, 0.7825, 0.0975, 0.88, 0.195, 0.98, 0.2925, 1.0775, 0.39, 1.175, 0.49, 1.2725, 0.5875, 1.37, 0.685, 0, 0.7825, 0.0975, 0.88, 0.195, 0.98, 0.2925, 1.0775, 0.39, 1.175, 0.49, 1.2725, 0.5875, 1.37, 0.685, 0, 0.7825, 0.0975, 0.88, 0.195, 0.98, 0.2925, 1.0775, 0.39, 1.175, 0.49, 1.2725, 0.5875, 1.37, 0.685, 0, 0.7825, 0.0975, 0.88, 0.195, 0.98, 0.2925, 1.0775, 0.39, 1.175, 0.49, 1.2725, 0.5875, 1.37, 0.685],
  "SoftwareVersions": "syngo MR E11",
  "SpacingBetweenSlices": 2,
  "StationName": "MRC35049",
  "TaskName": "s06e22a",
  "TotalReadoutTime": 0.0576811,
  "TxRefAmp": 246.724,
  "WipMemBlock": "439e2941-0be7-46e1-bf72-e124e09c6d38||Sequence: R016 ve11c/master r/e634e98; Dec 19 2017 11:00:25 by eja",
  "dcmmeta_affine": [
    [-1.9997872114181519, -0.009423903189599514, -0.027607053518295288, 105.83163452148438],
    [-0.000526804244145751, 1.9041186571121216, -0.6118267178535461, -79.34619140625],
    [-0.0291664507240057, 0.6117544174194336, 1.9039185047149658, -61.57820510864258],
    [0.0, 0.0, 0.0, 1.0]
],
  "dcmmeta_reorient_transform": [
    [0.0, -1.0, 0.0, 103.0],
    [1.0, 0.0, 0.0, 0.0],
    [0.0, 0.0, 1.0, 0.0],
    [0.0, 0.0, 0.0, 1.0]
],
  "dcmmeta_shape": [104, 104, 60, 452],
  "dcmmeta_slice_dim": 2,
  "dcmmeta_version": 0.6,
  "global": {
    "const": {
      "AcquisitionMatrix": [104, 0, 0, 104],
      "AngioFlag": "N",
      "BitsAllocated": 16,
      "BitsStored": 16,
      "BodyPartExamined": "BRAIN",
      "Columns": 832,
      "EchoNumbers": 1,
      "EchoTime": 37.0,
      "EchoTrainLength": 104,
      "FlipAngle": 52.0,
      "HighBit": 15,
      "ImageOrientationPatient": [0.9998936244275, 0.00026340210978, -0.0145832249029, -0.004711951608, 0.95205931463821, -0.3058771958199],
      "ImagePositionPatient": [-829.35323021412, -810.06896578843, 234.72768239184],
      "ImageType": [
        "ORIGINAL",
        "PRIMARY",
        "M",
        "MB",
        "ND",
        "MOSAIC"
],
      "ImagedNucleus": "1H",
      "ImagingFrequency": 123.258809,
      "InPlanePhaseEncodingDirection": "COL",
      "MRAcquisitionType": "2D",
      "MagneticFieldStrength": 3.0,
      "Manufacturer": "SIEMENS",
      "ManufacturerModelName": "Prisma_fit",
      "Modality": "MR",
      "NumberOfAverages": 1.0,
      "NumberOfPhaseEncodingSteps": 104,
      "PercentPhaseFieldOfView": 100.0,
      "PercentSampling": 100.0,
      "PerformedProcedureStepStartTime": "111345.940000",
      "PhotometricInterpretation": "MONOCHROME2",
      "PixelBandwidth": 2290.0,
      "PixelRepresentation": 0,
      "PixelSpacing": [2.0, 2.0],
      "ProtocolName": "func_task-friends-s06e22a",
      "RepetitionTime": 1490.0,
      "Rows": 832,
      "SAR": 0.05718265312917,
      "SamplesPerPixel": 1,
      "ScanOptions": "FS",
      "ScanningSequence": "EP",
      "SequenceName": "epfid2d1_104",
      "SequenceVariant": [
        "SK",
        "SS"
],
      "SeriesDescription": "func_task-friends-s06e22a",
      "SeriesNumber": 10,
      "SeriesTime": "111852.512000",
      "SliceLocation": -35.807733724626,
      "SliceThickness": 2.0,
      "SmallestImagePixelValue": 0,
      "SoftwareVersions": "syngo MR E11",
      "SpacingBetweenSlices": 1.9999999836297,
      "SpecificCharacterSet": "ISO_IR 100",
      "StudyID": "1",
      "StudyTime": "111345.869000",
      "TransmitCoilName": "Body",
      "VariableFlipAngleFlag": "N",
      "WindowCenterWidthExplanation": "Algo1",
      "dBdt": 0.0},
    "slices": {}
  },
  "time": {
    "samples": {
      "AcquisitionNumber": [1, 2, 3, 4, 5, 6, 7, 8, 9, 10, 11, 12, 13, 14, 15, 16, 17, 18, 19, 20, 21, 22, 23, 24, 25, 26, 27, 28, 29, 30, 31, 32, 33, 34, 35, 36, 37, 38, 39, 40, 41, 42, 43, 44, 45, 46, 47, 48, 49, 50, 51, 52, 53, 54, 55, 56, 57, 58, 59, 60, 61, 62, 63, 64, 65, 66, 67, 68, 69, 70, 71, 72, 73, 74, 75, 76, 77, 78, 79, 80, 81, 82, 83, 84, 85, 86, 87, 88, 89, 90, 91, 92, 93, 94, 95, 96, 97, 98, 99, 100, 101, 102, 103, 104, 105, 106, 107, 108, 109, 110, 111, 112, 113, 114, 115, 116, 117, 118, 119, 120, 121, 122, 123, 124, 125, 126, 127, 128, 129, 130, 131, 132, 133, 134, 135, 136, 137, 138, 139, 140, 141, 142, 143, 144, 145, 146, 147, 148, 149, 150, 151, 152, 153, 154, 155, 156, 157, 158, 159, 160, 161, 162, 163, 164, 165, 166, 167, 168, 169, 170, 171, 172, 173, 174, 175, 176, 177, 178, 179, 180, 181, 182, 183, 184, 185, 186, 187, 188, 189, 190, 191, 192, 193, 194, 195, 196, 197, 198, 199, 200, 201, 202, 203, 204, 205, 206, 207, 208, 209, 210, 211, 212, 213, 214, 215, 216, 217, 218, 219, 220, 221, 222, 223, 224, 225, 226, 227, 228, 229, 230, 231, 232, 233, 234, 235, 236, 237, 238, 239, 240, 241, 242, 243, 244, 245, 246, 247, 248, 249, 250, 251, 252, 253, 254, 255, 256, 257, 258, 259, 260, 261, 262, 263, 264, 265, 266, 267, 268, 269, 270, 271, 272, 273, 274, 275, 276, 277, 278, 279, 280, 281, 282, 283, 284, 285, 286, 287, 288, 289, 290, 291, 292, 293, 294, 295, 296, 297, 298, 299, 300, 301, 302, 303, 304, 305, 306, 307, 308, 309, 310, 311, 312, 313, 314, 315, 316, 317, 318, 319, 320, 321, 322, 323, 324, 325, 326, 327, 328, 329, 330, 331, 332, 333, 334, 335, 336, 337, 338, 339, 340, 341, 342, 343, 344, 345, 346, 347, 348, 349, 350, 351, 352, 353, 354, 355, 356, 357, 358, 359, 360, 361, 362, 363, 364, 365, 366, 367, 368, 369, 370, 371, 372, 373, 374, 375, 376, 377, 378, 379, 380, 381, 382, 383, 384, 385, 386, 387, 388, 389, 390, 391, 392, 393, 394, 395, 396, 397, 398, 399, 400, 401, 402, 403, 404, 405, 406, 407, 408, 409, 410, 411, 412, 413, 414, 415, 416, 417, 418, 419, 420, 421, 422, 423, 424, 425, 426, 427, 428, 429, 430, 431, 432, 433, 434, 435, 436, 437, 438, 439, 440, 441, 442, 443, 444, 445, 446, 447, 448, 449, 450, 451, 452],
      "AcquisitionTime": ["111726.397500", "111727.887500", "111729.377500", "111730.867500", "111732.357500", "111733.847500", "111735.337500", "111736.827500", "111738.317500", "111739.807500", "111741.297500", "111742.787500", "111744.277500", "111745.767500", "111747.257500", "111748.747500", "111750.237500", "111751.727500", "111753.217500", "111754.707500", "111756.197500", "111757.687500", "111759.177500", "111800.667500", "111802.157500", "111803.647500", "111805.137500", "111806.627500", "111808.117500", "111809.607500", "111811.097500", "111812.587500", "111814.077500", "111815.567500", "111817.057500", "111818.547500", "111820.037500", "111821.527500", "111823.017500", "111824.507500", "111825.997500", "111827.487500", "111828.977500", "111830.467500", "111831.957500", "111833.447500", "111834.937500", "111836.427500", "111837.917500", "111839.407500", "111840.897500", "111842.387500", "111843.877500", "111845.367500", "111846.857500", "111848.347500", "111849.837500", "111851.327500", "111852.817500", "111854.307500", "111855.797500", "111857.287500", "111858.777500", "111900.267500", "111901.757500", "111903.247500", "111904.737500", "111906.227500", "111907.717500", "111909.207500", "111910.697500", "111912.187500", "111913.677500", "111915.167500", "111916.657500", "111918.147500", "111919.637500", "111921.127500", "111922.617500", "111924.107500", "111925.597500", "111927.087500", "111928.577500", "111930.067500", "111931.557500", "111933.047500", "111934.537500", "111936.027500", "111937.517500", "111939.007500", "111940.497500", "111941.987500", "111943.477500", "111944.967500", "111946.457500", "111947.947500", "111949.437500", "111950.927500", "111952.417500", "111953.907500", "111955.397500", "111956.887500", "111958.377500", "111959.867500", "112001.357500", "112002.847500", "112004.337500", "112005.827500", "112007.317500", "112008.807500", "112010.297500", "112011.787500", "112013.277500", "112014.767500", "112016.257500", "112017.747500", "112019.237500", "112020.727500", "112022.217500", "112023.707500", "112025.197500", "112026.687500", "112028.177500", "112029.667500", "112031.157500", "112032.647500", "112034.137500", "112035.627500", "112037.117500", "112038.607500", "112040.097500", "112041.587500", "112043.077500", "112044.567500", "112046.057500", "112047.547500", "112049.037500", "112050.527500", "112052.017500", "112053.507500", "112054.997500", "112056.487500", "112057.977500", "112059.467500", "112100.957500", "112102.447500", "112103.937500", "112105.427500", "112106.917500", "112108.407500", "112109.897500", "112111.387500", "112112.877500", "112114.367500", "112115.857500", "112117.347500", "112118.837500", "112120.327500", "112121.817500", "112123.307500", "112124.797500", "112126.287500", "112127.777500", "112129.267500", "112130.757500", "112132.247500", "112133.737500", "112135.227500", "112136.717500", "112138.207500", "112139.697500", "112141.187500", "112142.677500", "112144.167500", "112145.657500", "112147.147500", "112148.637500", "112150.127500", "112151.617500", "112153.107500", "112154.597500", "112156.087500", "112157.577500", "112159.067500", "112200.557500", "112202.047500", "112203.537500", "112205.027500", "112206.517500", "112208.007500", "112209.497500", "112210.987500", "112212.477500", "112213.967500", "112215.457500", "112216.947500", "112218.437500", "112219.927500", "112221.417500", "112222.907500", "112224.397500", "112225.887500", "112227.377500", "112228.867500", "112230.357500", "112231.847500", "112233.337500", "112234.827500", "112236.317500", "112237.807500", "112239.297500", "112240.787500", "112242.277500", "112243.767500", "112245.257500", "112246.747500", "112248.237500", "112249.727500", "112251.217500", "112252.707500", "112254.197500", "112255.687500", "112257.177500", "112258.667500", "112300.157500", "112301.647500", "112303.137500", "112304.627500", "112306.117500", "112307.607500", "112309.097500", "112310.587500", "112312.077500", "112313.567500", "112315.057500", "112316.547500", "112318.037500", "112319.527500", "112321.017500", "112322.507500", "112323.997500", "112325.487500", "112326.977500", "112328.467500", "112329.957500", "112331.447500", "112332.937500", "112334.427500", "112335.917500", "112337.407500", "112338.897500", "112340.387500", "112341.877500", "112343.367500", "112344.857500", "112346.347500", "112347.837500", "112349.327500", "112350.817500", "112352.307500", "112353.797500", "112355.287500", "112356.777500", "112358.267500", "112359.757500", "112401.247500", "112402.737500", "112404.227500", "112405.717500", "112407.207500", "112408.697500", "112410.187500", "112411.677500", "112413.167500", "112414.657500", "112416.147500", "112417.637500", "112419.127500", "112420.617500", "112422.107500", "112423.597500", "112425.087500", "112426.577500", "112428.067500", "112429.557500", "112431.047500", "112432.537500", "112434.027500", "112435.517500", "112437.007500", "112438.497500", "112439.987500", "112441.477500", "112442.967500", "112444.457500", "112445.947500", "112447.437500", "112448.927500", "112450.417500", "112451.907500", "112453.397500", "112454.887500", "112456.377500", "112457.867500", "112459.357500", "112500.847500", "112502.337500", "112503.827500", "112505.317500", "112506.807500", "112508.297500", "112509.787500", "112511.277500", "112512.767500", "112514.257500", "112515.747500", "112517.237500", "112518.727500", "112520.217500", "112521.707500", "112523.197500", "112524.687500", "112526.177500", "112527.667500", "112529.157500", "112530.647500", "112532.137500", "112533.627500", "112535.117500", "112536.607500", "112538.097500", "112539.587500", "112541.077500", "112542.567500", "112544.057500", "112545.547500", "112547.037500", "112548.527500", "112550.017500", "112551.507500", "112552.997500", "112554.487500", "112555.977500", "112557.467500", "112558.957500", "112600.447500", "112601.937500", "112603.427500", "112604.917500", "112606.407500", "112607.897500", "112609.387500", "112610.877500", "112612.367500", "112613.857500", "112615.347500", "112616.837500", "112618.327500", "112619.817500", "112621.307500", "112622.797500", "112624.287500", "112625.777500", "112627.267500", "112628.757500", "112630.247500", "112631.737500", "112633.227500", "112634.717500", "112636.207500", "112637.697500", "112639.187500", "112640.677500", "112642.167500", "112643.657500", "112645.147500", "112646.637500", "112648.127500", "112649.617500", "112651.107500", "112652.597500", "112654.087500", "112655.577500", "112657.067500", "112658.557500", "112700.047500", "112701.537500", "112703.027500", "112704.517500", "112706.007500", "112707.497500", "112708.987500", "112710.477500", "112711.967500", "112713.457500", "112714.947500", "112716.437500", "112717.927500", "112719.417500", "112720.907500", "112722.397500", "112723.887500", "112725.377500", "112726.867500", "112728.357500", "112729.847500", "112731.337500", "112732.827500", "112734.317500", "112735.807500", "112737.297500", "112738.787500", "112740.277500", "112741.767500", "112743.257500", "112744.747500", "112746.237500", "112747.727500", "112749.217500", "112750.707500", "112752.197500", "112753.687500", "112755.177500", "112756.667500", "112758.157500", "112759.647500", "112801.137500", "112802.627500", "112804.117500", "112805.607500", "112807.097500", "112808.587500", "112810.077500", "112811.567500", "112813.057500", "112814.547500", "112816.037500", "112817.527500", "112819.017500", "112820.507500", "112821.997500", "112823.487500", "112824.977500", "112826.467500", "112827.957500", "112829.447500", "112830.937500", "112832.427500", "112833.917500", "112835.407500", "112836.897500", "112838.387500"],
      "ContentTime": ["111852.515000", "111852.518000", "111852.521000", "111852.524000", "111852.527000", "111852.530000", "111852.532000", "111852.535000", "111852.538000", "111852.541000", "111852.544000", "111852.547000", "111852.549000", "111852.552000", "111852.555000", "111852.558000", "111852.561000", "111852.564000", "111852.566000", "111852.569000", "111852.572000", "111852.575000", "111852.578000", "111852.586000", "111852.589000", "111852.591000", "111852.594000", "111852.597000", "111852.600000", "111852.603000", "111912.478000", "111912.481000", "111912.484000", "111912.487000", "111912.489000", "111912.492000", "111912.495000", "111912.498000", "111912.501000", "111912.504000", "111912.507000", "111912.510000", "111912.512000", "111912.515000", "111912.518000", "111912.521000", "111912.524000", "111912.527000", "111912.530000", "111912.532000", "111932.477000", "111932.480000", "111932.483000", "111932.486000", "111932.489000", "111932.491000", "111932.494000", "111932.497000", "111932.500000", "111932.503000", "111932.511000", "111932.514000", "111932.517000", "111932.520000", "111932.539000", "111932.542000", "111932.545000", "111932.548000", "111932.551000", "111932.554000", "111932.556000", "111952.477000", "111952.480000", "111952.484000", "111952.487000", "111952.489000", "111952.492000", "111952.495000", "111952.498000", "111952.501000", "111952.504000", "111952.506000", "111952.509000", "111952.512000", "111952.516000", "111952.518000", "111952.521000", "111952.524000", "111952.527000", "111952.530000", "111952.533000", "112012.478000", "112012.481000", "112012.484000", "112012.486000", "112012.489000", "112012.492000", "112012.495000", "112012.498000", "112012.501000", "112012.504000", "112012.507000", "112012.509000", "112012.512000", "112012.515000", "112012.518000", "112012.521000", "112012.524000", "112012.527000", "112012.530000", "112012.532000", "112052.478000", "112052.481000", "112052.484000", "112052.487000", "112052.490000", "112052.492000", "112052.495000", "112052.498000", "112052.501000", "112052.504000", "112052.507000", "112052.510000", "112052.513000", "112052.515000", "112052.518000", "112052.521000", "112052.524000", "112052.527000", "112052.530000", "112052.533000", "112052.535000", "112052.539000", "112052.542000", "112052.544000", "112052.547000", "112052.550000", "112132.478000", "112132.481000", "112132.484000", "112132.486000", "112132.489000", "112132.492000", "112132.495000", "112132.498000", "112132.501000", "112132.503000", "112132.506000", "112132.509000", "112132.512000", "112132.515000", "112132.518000", "112132.520000", "112132.523000", "112132.526000", "112132.529000", "112132.532000", "112132.535000", "112132.537000", "112132.547000", "112132.550000", "112132.552000", "112132.555000", "112132.558000", "112212.477000", "112212.484000", "112212.487000", "112212.490000", "112212.493000", "112212.496000", "112212.499000", "112212.501000", "112212.504000", "112212.507000", "112212.510000", "112212.513000", "112212.516000", "112212.519000", "112212.522000", "112212.524000", "112212.527000", "112212.530000", "112212.533000", "112212.536000", "112212.538000", "112212.541000", "112212.544000", "112212.547000", "112212.550000", "112212.552000", "112212.555000", "112252.478000", "112252.481000", "112252.484000", "112252.487000", "112252.490000", "112252.493000", "112252.495000", "112252.498000", "112252.501000", "112252.504000", "112252.507000", "112252.510000", "112252.513000", "112252.515000", "112252.518000", "112252.521000", "112252.524000", "112252.527000", "112252.530000", "112252.532000", "112252.535000", "112252.538000", "112252.541000", "112252.544000", "112252.547000", "112252.550000", "112252.552000", "112332.478000", "112332.481000", "112332.483000", "112332.487000", "112332.489000", "112332.492000", "112332.495000", "112332.498000", "112332.501000", "112332.504000", "112332.507000", "112332.510000", "112332.513000", "112332.515000", "112332.518000", "112332.521000", "112332.524000", "112332.527000", "112332.530000", "112332.533000", "112332.535000", "112332.538000", "112332.541000", "112332.544000", "112332.547000", "112332.549000", "112332.552000", "112412.477000", "112412.480000", "112412.499000", "112412.502000", "112412.505000", "112412.507000", "112412.510000", "112412.513000", "112412.516000", "112412.519000", "112412.522000", "112412.524000", "112412.527000", "112412.530000", "112412.533000", "112412.536000", "112412.539000", "112412.541000", "112412.544000", "112412.547000", "112412.550000", "112412.553000", "112412.555000", "112412.558000", "112412.561000", "112412.564000", "112412.567000", "112452.478000", "112452.481000", "112452.484000", "112452.487000", "112452.489000", "112452.492000", "112452.495000", "112452.498000", "112452.501000", "112452.504000", "112452.507000", "112452.510000", "112452.512000", "112452.515000", "112452.518000", "112452.521000", "112452.524000", "112452.527000", "112452.530000", "112452.532000", "112452.535000", "112452.538000", "112452.541000", "112452.544000", "112452.546000", "112452.549000", "112532.478000", "112532.481000", "112532.484000", "112532.486000", "112532.489000", "112532.492000", "112532.495000", "112532.498000", "112532.501000", "112532.503000", "112532.506000", "112532.509000", "112532.512000", "112532.515000", "112532.518000", "112532.521000", "112532.524000", "112532.526000", "112532.529000", "112532.532000", "112532.535000", "112532.538000", "112532.541000", "112532.543000", "112532.546000", "112532.549000", "112532.552000", "112612.478000", "112612.481000", "112612.484000", "112612.487000", "112612.489000", "112612.492000", "112612.495000", "112612.498000", "112612.501000", "112612.504000", "112612.507000", "112612.510000", "112612.512000", "112612.515000", "112612.518000", "112612.521000", "112612.524000", "112612.527000", "112612.529000", "112612.532000", "112612.535000", "112612.538000", "112612.541000", "112612.544000", "112612.546000", "112612.549000", "112612.552000", "112652.477000", "112652.480000", "112652.483000", "112652.486000", "112652.488000", "112652.491000", "112652.494000", "112652.497000", "112652.500000", "112652.503000", "112652.505000", "112652.508000", "112652.511000", "112652.514000", "112652.517000", "112652.520000", "112652.522000", "112652.525000", "112652.528000", "112652.531000", "112652.534000", "112652.537000", "112652.539000", "112652.542000", "112652.545000", "112652.548000", "112652.551000", "112732.478000", "112732.481000", "112732.484000", "112732.487000", "112732.489000", "112732.492000", "112732.495000", "112732.498000", "112732.501000", "112732.504000", "112732.506000", "112732.509000", "112732.512000", "112732.515000", "112732.518000", "112732.521000", "112732.523000", "112732.526000", "112732.529000", "112732.532000", "112732.535000", "112732.537000", "112732.540000", "112732.543000", "112732.546000", "112732.549000", "112732.552000", "112812.478000", "112812.481000", "112812.484000", "112812.487000", "112812.489000", "112812.492000", "112812.495000", "112812.498000", "112812.501000", "112812.504000", "112812.506000", "112812.509000", "112812.512000", "112812.515000", "112812.518000", "112812.521000", "112812.524000", "112812.526000", "112812.529000", "112812.532000", "112812.535000", "112812.538000", "112812.541000", "112812.543000", "112812.546000", "112812.568000", "112812.571000", "112840.607000", "112840.610000", "112840.613000", "112840.616000", "112840.619000", "112840.622000", "112840.624000", "112840.627000", "112840.630000", "112840.633000", "112840.636000", "112840.639000", "112840.642000", "112840.645000", "112840.648000", "112840.651000", "112840.654000", "112840.656000", "112840.659000"],
