{
  "AcquisitionMatrixPE": 104,
  "AcquisitionNumber": 1,
  "AcquisitionTime": "11:31:44.020000",
  "BandwidthPerPixelPhaseEncode": 17.17,
  "BaseResolution": 104,
  "BodyPartExamined": "BRAIN",
  "CoilString": "HC1-7;NC1_2",
  "ConsistencyInfo": "N4_VE11C_LATEST_20160120",
  "ConversionSoftware": "dcm2niix",
  "ConversionSoftwareVersion": "v1.0.20190720  (JP2:OpenJPEG) GCC7.3.0",
  "DerivedVendorReportedEchoSpacing": 0.000560011,
  "DeviceSerialNumber": "167006",
  "DwellTime": 2.1e-06,
  "EchoTime": 0.037,
  "EchoTrainLength": 104,
  "EffectiveEchoSpacing": 0.000560011,
  "FlipAngle": 52,
  "ImageComments": "Unaliased_MB4_PE3_LB",
  "ImageOrientationPatientDICOM": [0.998138, 0.0537461, 0.0288354, -0.0416599, 0.946061, -0.321298],
  "ImageType": [
    "ORIGINAL",
    "PRIMARY",
    "M",
    "MB",
    "ND",
    "MOSAIC"
],
  "ImagingFrequency": 123.259,
  "InPlanePhaseEncodingDirectionDICOM": "COL",
  "InstitutionAddress": "Chemin_Queen-Mary_4565_Montreal_District_CA_H3W_1W5",
  "InstitutionName": "IUGM",
  "InstitutionalDepartmentName": "Department",
  "MRAcquisitionType": "2D",
  "MagneticFieldStrength": 3,
  "Manufacturer": "Siemens",
  "ManufacturersModelName": "Prisma_fit",
  "Modality": "MR",
  "MultibandAccelerationFactor": 4,
  "PartialFourier": 1,
  "PatientPosition": "HFS",
  "PercentPhaseFOV": 100,
  "PhaseEncodingDirection": "j",
  "PhaseEncodingSteps": 104,
  "PhaseResolution": 1,
  "PixelBandwidth": 2290,
  "ProcedureStepDescription": "video_friends",
  "ProtocolName": "func_task-friends-s01e06a",
  "PulseSequenceDetails": "%CustomerSeq%_cmrr_mbep2d_bold",
  "ReceiveCoilActiveElements": "HC1-7;NC1,2",
  "ReceiveCoilName": "HeadNeck_64",
  "ReconMatrixPE": 104,
  "RepetitionTime": 1.49,
  "SAR": 0.0379786,
  "ScanOptions": "FS",
  "ScanningSequence": "EP",
  "SequenceName": "epfid2d1_104",
  "SequenceVariant": "SK_SS",
  "SeriesDescription": "func_task-friends-s01e06a",
  "SeriesNumber": 13,
  "ShimSetting": [634, -7191, -8835, 741, 114, 43, 35, -11],
  "SliceThickness": 2,
  "SliceTiming": [0, 0.785, 0.0975, 0.8825, 0.1975, 0.98, 0.295, 1.0775, 0.3925, 1.175, 0.49, 1.275, 0.5875, 1.3725, 0.6875, 0, 0.785, 0.0975, 0.8825, 0.1975, 0.98, 0.295, 1.0775, 0.3925, 1.175, 0.49, 1.275, 0.5875, 1.3725, 0.6875, 0, 0.785, 0.0975, 0.8825, 0.1975, 0.98, 0.295, 1.0775, 0.3925, 1.175, 0.49, 1.275, 0.5875, 1.3725, 0.6875, 0, 0.785, 0.0975, 0.8825, 0.1975, 0.98, 0.295, 1.0775, 0.3925, 1.175, 0.49, 1.275, 0.5875, 1.3725, 0.6875],
  "SoftwareVersions": "syngo_MR_E11",
  "SpacingBetweenSlices": 2,
  "StationName": "MRC35049",
  "TaskName": "friends",
  "TotalReadoutTime": 0.0576811,
  "TxRefAmp": 246.642,
  "WipMemBlock": "62f86d42-b557-4a9d-a7a4-9ff50b95b28a||Sequence: R016 ve11c/master r/e634e98; Dec 19 2017 11:00:25 by eja",
  "dcmmeta_affine": [
    [-1.9962763786315918, -0.083319753408432, 0.08909720182418823, 105.36856842041016],
    [-0.10749214142560959, 1.892122745513916, -0.6389967799186707, -65.36427307128906],
    [0.05767089128494263, 0.6425957083702087, 1.893078088760376, -65.26132202148438],
    [0.0, 0.0, 0.0, 1.0]
],
  "dcmmeta_reorient_transform": [
    [0.0, -1.0, 0.0, 103.0],
    [1.0, 0.0, 0.0, 0.0],
    [0.0, 0.0, 1.0, 0.0],
    [0.0, 0.0, 0.0, 1.0]
],
  "dcmmeta_shape": [104, 104, 60, 592],
  "dcmmeta_slice_dim": 2,
  "dcmmeta_version": 0.6,
  "global": {
    "const": {
      "AcquisitionMatrix": [104, 0, 0, 104],
      "AngioFlag": "N",
      "BitsAllocated": 16,
      "BitsStored": 16,
      "BodyPartExamined": "BRAIN",
      "Columns": 832,
      "EchoNumbers": 1,
      "EchoTime": 37.0,
      "EchoTrainLength": 104,
      "FlipAngle": 52.0,
      "HighBit": 15,
      "ImageOrientationPatient": [0.99813820526705, 0.05374607226032, 0.02883544525163, -0.0416598783322, 0.94606137980162, -0.3212978683172],
      "ImagePositionPatient": [-793.10285901623, -857.38419556231, 213.83868090635],
      "ImageType": [
        "ORIGINAL",
        "PRIMARY",
        "M",
        "MB",
        "ND",
        "MOSAIC"
],
      "ImagedNucleus": "1H",
      "ImagingFrequency": 123.259449,
      "InPlanePhaseEncodingDirection": "COL",
      "MRAcquisitionType": "2D",
      "MagneticFieldStrength": 3.0,
      "Manufacturer": "SIEMENS",
      "ManufacturerModelName": "Prisma_fit",
      "Modality": "MR",
      "NumberOfAverages": 1.0,
      "NumberOfPhaseEncodingSteps": 104,
      "PercentPhaseFieldOfView": 100.0,
      "PercentSampling": 100.0,
      "PerformedProcedureStepStartTime": "105642.942000",
      "PhotometricInterpretation": "MONOCHROME2",
      "PixelBandwidth": 2290.0,
      "PixelRepresentation": 0,
      "PixelSpacing": [2.0, 2.0],
      "ProtocolName": "func_task-friends-s01e06a",
      "RepetitionTime": 1490.0,
      "Rows": 832,
      "SAR": 0.03797859985395,
      "SamplesPerPixel": 1,
      "ScanOptions": "FS",
      "ScanningSequence": "EP",
      "SequenceName": "epfid2d1_104",
      "SequenceVariant": [
        "SK",
        "SS"
],
      "SeriesDescription": "func_task-friends-s01e06a",
      "SeriesNumber": 13,
      "SeriesTime": "113246.284000",
      "SliceLocation": -36.19458942094,
      "SliceThickness": 2.0,
      "SmallestImagePixelValue": 0,
      "SoftwareVersions": "syngo MR E11",
      "SpacingBetweenSlices": 1.9999999781009,
      "SpecificCharacterSet": "ISO_IR 100",
      "StudyID": "1",
      "StudyTime": "105642.867000",
      "TransmitCoilName": "Body",
      "VariableFlipAngleFlag": "N",
      "WindowCenterWidthExplanation": "Algo1",
      "dBdt": 0.0},
    "slices": {}
  },
  "time": {
    "samples": {
      "AcquisitionNumber": [1, 2, 3, 4, 5, 6, 7, 8, 9, 10, 11, 12, 13, 14, 15, 16, 17, 18, 19, 20, 21, 22, 23, 24, 25, 26, 27, 28, 29, 30, 31, 32, 33, 34, 35, 36, 37, 38, 39, 40, 41, 42, 43, 44, 45, 46, 47, 48, 49, 50, 51, 52, 53, 54, 55, 56, 57, 58, 59, 60, 61, 62, 63, 64, 65, 66, 67, 68, 69, 70, 71, 72, 73, 74, 75, 76, 77, 78, 79, 80, 81, 82, 83, 84, 85, 86, 87, 88, 89, 90, 91, 92, 93, 94, 95, 96, 97, 98, 99, 100, 101, 102, 103, 104, 105, 106, 107, 108, 109, 110, 111, 112, 113, 114, 115, 116, 117, 118, 119, 120, 121, 122, 123, 124, 125, 126, 127, 128, 129, 130, 131, 132, 133, 134, 135, 136, 137, 138, 139, 140, 141, 142, 143, 144, 145, 146, 147, 148, 149, 150, 151, 152, 153, 154, 155, 156, 157, 158, 159, 160, 161, 162, 163, 164, 165, 166, 167, 168, 169, 170, 171, 172, 173, 174, 175, 176, 177, 178, 179, 180, 181, 182, 183, 184, 185, 186, 187, 188, 189, 190, 191, 192, 193, 194, 195, 196, 197, 198, 199, 200, 201, 202, 203, 204, 205, 206, 207, 208, 209, 210, 211, 212, 213, 214, 215, 216, 217, 218, 219, 220, 221, 222, 223, 224, 225, 226, 227, 228, 229, 230, 231, 232, 233, 234, 235, 236, 237, 238, 239, 240, 241, 242, 243, 244, 245, 246, 247, 248, 249, 250, 251, 252, 253, 254, 255, 256, 257, 258, 259, 260, 261, 262, 263, 264, 265, 266, 267, 268, 269, 270, 271, 272, 273, 274, 275, 276, 277, 278, 279, 280, 281, 282, 283, 284, 285, 286, 287, 288, 289, 290, 291, 292, 293, 294, 295, 296, 297, 298, 299, 300, 301, 302, 303, 304, 305, 306, 307, 308, 309, 310, 311, 312, 313, 314, 315, 316, 317, 318, 319, 320, 321, 322, 323, 324, 325, 326, 327, 328, 329, 330, 331, 332, 333, 334, 335, 336, 337, 338, 339, 340, 341, 342, 343, 344, 345, 346, 347, 348, 349, 350, 351, 352, 353, 354, 355, 356, 357, 358, 359, 360, 361, 362, 363, 364, 365, 366, 367, 368, 369, 370, 371, 372, 373, 374, 375, 376, 377, 378, 379, 380, 381, 382, 383, 384, 385, 386, 387, 388, 389, 390, 391, 392, 393, 394, 395, 396, 397, 398, 399, 400, 401, 402, 403, 404, 405, 406, 407, 408, 409, 410, 411, 412, 413, 414, 415, 416, 417, 418, 419, 420, 421, 422, 423, 424, 425, 426, 427, 428, 429, 430, 431, 432, 433, 434, 435, 436, 437, 438, 439, 440, 441, 442, 443, 444, 445, 446, 447, 448, 449, 450, 451, 452, 453, 454, 455, 456, 457, 458, 459, 460, 461, 462, 463, 464, 465, 466, 467, 468, 469, 470, 471, 472, 473, 474, 475, 476, 477, 478, 479, 480, 481, 482, 483, 484, 485, 486, 487, 488, 489, 490, 491, 492, 493, 494, 495, 496, 497, 498, 499, 500, 501, 502, 503, 504, 505, 506, 507, 508, 509, 510, 511, 512, 513, 514, 515, 516, 517, 518, 519, 520, 521, 522, 523, 524, 525, 526, 527, 528, 529, 530, 531, 532, 533, 534, 535, 536, 537, 538, 539, 540, 541, 542, 543, 544, 545, 546, 547, 548, 549, 550, 551, 552, 553, 554, 555, 556, 557, 558, 559, 560, 561, 562, 563, 564, 565, 566, 567, 568, 569, 570, 571, 572, 573, 574, 575, 576, 577, 578, 579, 580, 581, 582, 583, 584, 585, 586, 587, 588, 589, 590, 591, 592],
      "AcquisitionTime": ["113144.020000", "113145.510000", "113147.000000", "113148.490000", "113149.980000", "113151.470000", "113152.960000", "113154.450000", "113155.940000", "113157.430000", "113158.920000", "113200.410000", "113201.900000", "113203.390000", "113204.880000", "113206.370000", "113207.860000", "113209.350000", "113210.840000", "113212.330000", "113213.820000", "113215.310000", "113216.800000", "113218.290000", "113219.780000", "113221.270000", "113222.760000", "113224.250000", "113225.740000", "113227.230000", "113228.720000", "113230.210000", "113231.700000", "113233.190000", "113234.680000", "113236.170000", "113237.660000", "113239.150000", "113240.640000", "113242.130000", "113243.620000", "113245.110000", "113246.600000", "113248.090000", "113249.580000", "113251.070000", "113252.560000", "113254.050000", "113255.540000", "113257.030000", "113258.520000", "113300.010000", "113301.500000", "113302.990000", "113304.480000", "113305.970000", "113307.460000", "113308.950000", "113310.440000", "113311.930000", "113313.420000", "113314.910000", "113316.400000", "113317.890000", "113319.380000", "113320.870000", "113322.360000", "113323.850000", "113325.340000", "113326.830000", "113328.320000", "113329.810000", "113331.300000", "113332.790000", "113334.280000", "113335.770000", "113337.260000", "113338.750000", "113340.240000", "113341.730000", "113343.220000", "113344.710000", "113346.200000", "113347.690000", "113349.180000", "113350.670000", "113352.160000", "113353.650000", "113355.140000", "113356.630000", "113358.120000", "113359.610000", "113401.100000", "113402.590000", "113404.080000", "113405.570000", "113407.060000", "113408.550000", "113410.040000", "113411.530000", "113413.020000", "113414.510000", "113416.000000", "113417.490000", "113418.980000", "113420.470000", "113421.960000", "113423.450000", "113424.940000", "113426.430000", "113427.920000", "113429.410000", "113430.900000", "113432.390000", "113433.880000", "113435.370000", "113436.860000", "113438.350000", "113439.840000", "113441.330000", "113442.820000", "113444.310000", "113445.800000", "113447.290000", "113448.780000", "113450.270000", "113451.760000", "113453.250000", "113454.740000", "113456.230000", "113457.720000", "113459.210000", "113500.700000", "113502.190000", "113503.680000", "113505.170000", "113506.660000", "113508.150000", "113509.640000", "113511.130000", "113512.620000", "113514.110000", "113515.600000", "113517.090000", "113518.580000", "113520.070000", "113521.560000", "113523.050000", "113524.540000", "113526.030000", "113527.520000", "113529.010000", "113530.500000", "113531.990000", "113533.480000", "113534.970000", "113536.460000", "113537.950000", "113539.440000", "113540.930000", "113542.420000", "113543.910000", "113545.400000", "113546.890000", "113548.380000", "113549.870000", "113551.360000", "113552.850000", "113554.340000", "113555.830000", "113557.320000", "113558.810000", "113600.300000", "113601.790000", "113603.280000", "113604.770000", "113606.260000", "113607.750000", "113609.240000", "113610.730000", "113612.220000", "113613.710000", "113615.200000", "113616.690000", "113618.180000", "113619.670000", "113621.160000", "113622.650000", "113624.140000", "113625.630000", "113627.120000", "113628.610000", "113630.100000", "113631.590000", "113633.080000", "113634.570000", "113636.060000", "113637.550000", "113639.040000", "113640.530000", "113642.020000", "113643.510000", "113645.000000", "113646.490000", "113647.980000", "113649.470000", "113650.960000", "113652.450000", "113653.940000", "113655.430000", "113656.920000", "113658.410000", "113659.900000", "113701.390000", "113702.880000", "113704.370000", "113705.860000", "113707.350000", "113708.840000", "113710.330000", "113711.820000", "113713.310000", "113714.800000", "113716.290000", "113717.780000", "113719.270000", "113720.760000", "113722.250000", "113723.740000", "113725.230000", "113726.720000", "113728.210000", "113729.700000", "113731.190000", "113732.680000", "113734.170000", "113735.660000", "113737.150000", "113738.640000", "113740.130000", "113741.620000", "113743.110000", "113744.600000", "113746.090000", "113747.580000", "113749.070000", "113750.560000", "113752.050000", "113753.540000", "113755.030000", "113756.520000", "113758.010000", "113759.500000", "113800.990000", "113802.480000", "113803.970000", "113805.460000", "113806.950000", "113808.440000", "113809.930000", "113811.420000", "113812.910000", "113814.400000", "113815.890000", "113817.380000", "113818.870000", "113820.360000", "113821.850000", "113823.340000", "113824.830000", "113826.320000", "113827.810000", "113829.300000", "113830.790000", "113832.280000", "113833.770000", "113835.260000", "113836.750000", "113838.240000", "113839.730000", "113841.220000", "113842.710000", "113844.200000", "113845.690000", "113847.180000", "113848.670000", "113850.160000", "113851.650000", "113853.140000", "113854.630000", "113856.120000", "113857.610000", "113859.100000", "113900.590000", "113902.080000", "113903.570000", "113905.060000", "113906.550000", "113908.040000", "113909.530000", "113911.020000", "113912.510000", "113914.000000", "113915.490000", "113916.980000", "113918.470000", "113919.960000", "113921.450000", "113922.940000", "113924.430000", "113925.920000", "113927.410000", "113928.900000", "113930.390000", "113931.880000", "113933.370000", "113934.860000", "113936.350000", "113937.840000", "113939.330000", "113940.820000", "113942.310000", "113943.800000", "113945.290000", "113946.780000", "113948.270000", "113949.760000", "113951.250000", "113952.740000", "113954.230000", "113955.720000", "113957.210000", "113958.700000", "114000.190000", "114001.680000", "114003.170000", "114004.660000", "114006.150000", "114007.640000", "114009.130000", "114010.620000", "114012.110000", "114013.600000", "114015.090000", "114016.580000", "114018.070000", "114019.560000", "114021.050000", "114022.540000", "114024.030000", "114025.520000", "114027.010000", "114028.500000", "114029.990000", "114031.480000", "114032.970000", "114034.460000", "114035.950000", "114037.440000", "114038.930000", "114040.420000", "114041.910000", "114043.400000", "114044.890000", "114046.380000", "114047.870000", "114049.360000", "114050.850000", "114052.340000", "114053.830000", "114055.320000", "114056.810000", "114058.300000", "114059.790000", "114101.280000", "114102.770000", "114104.260000", "114105.750000", "114107.240000", "114108.730000", "114110.220000", "114111.710000", "114113.200000", "114114.690000", "114116.180000", "114117.670000", "114119.160000", "114120.650000", "114122.140000", "114123.630000", "114125.120000", "114126.610000", "114128.100000", "114129.590000", "114131.080000", "114132.570000", "114134.060000", "114135.550000", "114137.040000", "114138.530000", "114140.020000", "114141.510000", "114143.000000", "114144.490000", "114145.980000", "114147.470000", "114148.960000", "114150.450000", "114151.940000", "114153.430000", "114154.920000", "114156.410000", "114157.900000", "114159.390000", "114200.880000", "114202.370000", "114203.860000", "114205.350000", "114206.840000", "114208.330000", "114209.820000", "114211.310000", "114212.800000", "114214.290000", "114215.780000", "114217.270000", "114218.760000", "114220.250000", "114221.740000", "114223.230000", "114224.720000", "114226.210000", "114227.700000", "114229.190000", "114230.680000", "114232.170000", "114233.660000", "114235.150000", "114236.640000", "114238.130000", "114239.620000", "114241.110000", "114242.600000", "114244.090000", "114245.580000", "114247.070000", "114248.560000", "114250.050000", "114251.540000", "114253.030000", "114254.520000", "114256.010000", "114257.500000", "114258.990000", "114300.480000", "114301.970000", "114303.460000", "114304.950000", "114306.440000", "114307.930000", "114309.420000", "114310.910000", "114312.400000", "114313.890000", "114315.380000", "114316.870000", "114318.360000", "114319.850000", "114321.340000", "114322.830000", "114324.320000", "114325.810000", "114327.300000", "114328.790000", "114330.280000", "114331.770000", "114333.260000", "114334.750000", "114336.240000", "114337.730000", "114339.220000", "114340.710000", "114342.200000", "114343.690000", "114345.180000", "114346.670000", "114348.160000", "114349.650000", "114351.140000", "114352.630000", "114354.120000", "114355.610000", "114357.100000", "114358.590000", "114400.080000", "114401.570000", "114403.060000", "114404.550000", "114406.040000", "114407.530000", "114409.020000", "114410.510000", "114412.000000", "114413.490000", "114414.980000", "114416.470000", "114417.960000", "114419.450000", "114420.940000", "114422.430000", "114423.920000", "114425.410000", "114426.900000", "114428.390000", "114429.880000", "114431.370000", "114432.860000", "114434.350000", "114435.840000", "114437.330000", "114438.820000", "114440.310000", "114441.800000", "114443.290000", "114444.780000", "114446.270000", "114447.760000", "114449.250000", "114450.740000", "114452.230000", "114453.720000", "114455.210000", "114456.700000", "114458.190000", "114459.680000", "114501.170000", "114502.660000", "114504.150000", "114505.640000", "114507.130000", "114508.620000", "114510.110000", "114511.600000", "114513.090000", "114514.580000", "114516.070000", "114517.560000", "114519.050000", "114520.540000", "114522.030000", "114523.520000", "114525.010000", "114526.500000", "114527.990000", "114529.480000", "114530.970000", "114532.460000", "114533.950000", "114535.440000", "114536.930000", "114538.420000", "114539.910000", "114541.400000", "114542.890000", "114544.380000", "114545.870000", "114547.360000", "114548.850000", "114550.340000", "114551.830000", "114553.320000", "114554.810000", "114556.300000", "114557.790000", "114559.280000", "114600.770000", "114602.260000", "114603.750000", "114605.240000", "114606.730000", "114608.220000", "114609.710000", "114611.200000", "114612.690000", "114614.180000", "114615.670000", "114617.160000", "114618.650000", "114620.140000", "114621.630000", "114623.120000", "114624.610000"],
      "ContentTime": ["113246.286000", "113246.290000", "113246.293000", "113246.295000", "113246.298000", "113246.301000", "113246.304000", "113306.259000", "113306.262000", "113306.265000", "113306.267000", "113306.270000", "113306.273000", "113306.276000", "113306.279000", "113306.281000", "113306.284000", "113306.287000", "113306.305000", "113306.307000", "113306.310000", "113306.313000", "113306.316000", "113306.319000", "113306.321000", "113306.324000", "113306.327000", "113326.259000", "113326.262000", "113326.264000", "113326.267000", "113326.270000", "113326.273000", "113326.276000", "113326.279000", "113326.286000", "113326.289000", "113326.292000", "113326.295000", "113326.298000", "113326.301000", "113326.304000", "113326.307000", "113326.310000", "113326.313000", "113326.315000", "113326.318000", "113346.258000", "113346.261000", "113346.263000", "113346.266000", "113346.270000", "113346.273000", "113346.276000", "113346.278000", "113346.281000", "113346.284000", "113346.287000", "113346.289000", "113346.292000", "113346.295000", "113346.298000", "113346.301000", "113346.303000", "113346.306000", "113346.309000", "113346.312000", "113346.315000", "113406.258000", "113406.261000", "113406.264000", "113406.266000", "113406.269000", "113406.272000", "113406.275000", "113406.278000", "113406.280000", "113406.283000", "113406.286000", "113406.289000", "113406.292000", "113406.295000", "113406.297000", "113406.300000", "113406.303000", "113406.306000", "113406.309000", "113406.311000", "113426.258000", "113426.261000", "113426.264000", "113426.266000", "113426.269000", "113426.272000", "113426.275000", "113426.278000", "113426.280000", "113426.283000", "113426.286000", "113426.289000", "113426.292000", "113426.294000", "113426.297000", "113426.300000", "113426.303000", "113426.306000", "113426.309000", "113426.311000", "113506.258000", "113506.261000", "113506.264000", "113506.273000", "113506.276000", "113506.279000", "113506.282000", "113506.284000", "113506.287000", "113506.290000", "113506.293000", "113506.296000", "113506.298000", "113506.301000", "113506.304000", "113506.307000", "113506.315000", "113506.318000", "113506.320000", "113506.323000", "113506.326000", "113506.329000", "113506.332000", "113506.335000", "113506.338000", "113506.340000", "113506.343000", "113546.259000", "113546.262000", "113546.265000", "113546.267000", "113546.270000", "113546.273000", "113546.276000", "113546.279000", "113546.281000", "113546.284000", "113546.287000", "113546.290000", "113546.292000", "113546.295000", "113546.298000", "113546.301000", "113546.304000", "113546.306000", "113546.309000", "113546.318000", "113546.321000", "113546.324000", "113546.326000", "113546.329000", "113546.332000", "113546.342000", "113546.345000", "113626.259000", "113626.263000", "113626.270000", "113626.273000", "113626.276000", "113626.278000", "113626.281000", "113626.284000", "113626.287000", "113626.290000", "113626.299000", "113626.302000", "113626.305000", "113626.308000", "113626.311000", "113626.313000", "113626.316000", "113626.319000", "113626.322000", "113626.324000", "113626.327000", "113626.330000", "113626.339000", "113626.342000", "113626.345000", "113626.348000", "113706.258000", "113706.261000", "113706.264000", "113706.267000", "113706.269000", "113706.272000", "113706.275000", "113706.278000", "113706.281000", "113706.283000", "113706.286000", "113706.289000", "113706.292000", "113706.295000", "113706.298000", "113706.300000", "113706.303000", "113706.306000", "113706.309000", "113706.312000", "113706.314000", "113706.317000", "113706.320000", "113706.323000", "113706.326000", "113706.328000", "113706.331000", "113746.259000", "113746.262000", "113746.265000", "113746.267000", "113746.270000", "113746.273000", "113746.276000", "113746.279000", "113746.290000", "113746.293000", "113746.296000", "113746.299000", "113746.302000", "113746.305000", "113746.307000", "113746.310000", "113746.313000", "113746.316000", "113746.319000", "113746.322000", "113746.325000", "113746.327000", "113746.330000", "113746.333000", "113746.336000", "113746.339000", "113746.342000", "113826.258000", "113826.261000", "113826.264000", "113826.266000", "113826.282000", "113826.285000", "113826.288000", "113826.291000", "113826.293000", "113826.296000", "113826.299000", "113826.302000", "113826.305000", "113826.307000", "113826.310000", "113826.313000", "113826.316000", "113826.319000", "113826.321000", "113826.324000", "113826.327000", "113826.330000", "113826.333000", "113826.335000", "113826.338000", "113826.341000", "113826.344000", "113906.258000", "113906.261000", "113906.264000", "113906.266000", "113906.269000", "113906.272000", "113906.275000", "113906.278000", "113906.280000", "113906.283000", "113906.286000", "113906.289000", "113906.292000", "113906.295000", "113906.298000", "113906.301000", "113906.303000", "113906.306000", "113906.309000", "113906.312000", "113906.315000", "113906.318000", "113906.320000", "113906.323000", "113906.326000", "113906.329000", "113906.332000", "113946.258000", "113946.261000", "113946.264000", "113946.266000", "113946.269000", "113946.272000", "113946.275000", "113946.278000", "113946.280000", "113946.283000", "113946.286000", "113946.289000", "113946.292000", "113946.295000", "113946.297000", "113946.300000", "113946.303000", "113946.306000", "113946.308000", "113946.311000", "113946.314000", "113946.317000", "113946.320000", "113946.322000", "113946.325000", "113946.328000", "113946.331000", "114026.259000", "114026.262000", "114026.265000", "114026.267000", "114026.270000", "114026.273000", "114026.276000", "114026.279000", "114026.281000", "114026.284000", "114026.287000", "114026.290000", "114026.293000", "114026.296000", "114026.299000", "114026.301000", "114026.304000", "114026.307000", "114026.310000", "114026.313000", "114026.315000", "114026.318000", "114026.321000", "114026.324000", "114026.327000", "114026.339000", "114026.342000", "114106.258000", "114106.261000", "114106.264000", "114106.267000", "114106.269000", "114106.272000", "114106.275000", "114106.278000", "114106.281000", "114106.283000", "114106.286000", "114106.289000", "114106.292000", "114106.295000", "114106.298000", "114106.300000", "114106.303000", "114106.306000", "114106.309000", "114106.312000", "114106.315000", "114106.317000", "114106.320000", "114106.323000", "114106.326000", "114106.329000", "114146.258000", "114146.261000", "114146.264000", "114146.267000", "114146.269000", "114146.272000", "114146.275000", "114146.278000", "114146.281000", "114146.283000", "114146.286000", "114146.289000", "114146.292000", "114146.295000", "114146.298000", "114146.300000", "114146.303000", "114146.306000", "114146.309000", "114146.312000", "114146.314000", "114146.317000", "114146.320000", "114146.334000", "114146.337000", "114146.339000", "114146.342000", "114206.258000", "114206.261000", "114206.264000", "114206.267000", "114206.270000", "114206.272000", "114206.275000", "114206.278000", "114206.281000", "114206.284000", "114206.287000", "114206.289000", "114206.292000", "114206.295000", "114246.259000", "114246.262000", "114246.265000", "114246.267000", "114246.270000", "114246.273000", "114246.276000", "114246.279000", "114246.281000", "114246.284000", "114246.287000", "114246.290000", "114246.293000", "114246.295000", "114246.298000", "114246.301000", "114246.304000", "114246.307000", "114246.309000", "114246.312000", "114246.315000", "114246.318000", "114246.321000", "114246.323000", "114246.326000", "114246.332000", "114246.335000", "114326.258000", "114326.261000", "114326.264000", "114326.266000", "114326.269000", "114326.272000", "114326.275000", "114326.278000", "114326.280000", "114326.283000", "114326.286000", "114326.289000", "114326.292000", "114326.294000", "114326.297000", "114326.300000", "114326.303000", "114326.306000", "114326.309000", "114326.312000", "114326.315000", "114326.318000", "114326.321000", "114326.323000", "114326.326000", "114326.329000", "114406.258000", "114406.261000", "114406.264000", "114406.267000", "114406.270000", "114406.272000", "114406.275000", "114406.278000", "114406.281000", "114406.284000", "114406.286000", "114406.289000", "114406.292000", "114406.295000", "114406.298000", "114406.300000", "114406.312000", "114406.314000", "114406.317000", "114406.320000", "114406.323000", "114406.326000", "114406.329000", "114406.331000", "114406.334000", "114406.337000", "114406.340000", "114446.259000", "114446.262000", "114446.265000", "114446.268000", "114446.270000", "114446.273000", "114446.276000", "114446.279000", "114446.282000", "114446.284000", "114446.287000", "114446.290000", "114446.293000", "114446.296000", "114446.299000", "114446.302000", "114446.305000", "114446.307000", "114446.310000", "114446.313000", "114446.316000", "114446.319000", "114446.321000", "114446.324000", "114446.327000", "114446.330000", "114446.343000", "114526.258000", "114526.261000", "114526.264000", "114526.267000", "114526.269000", "114526.272000", "114526.275000", "114526.278000", "114526.281000", "114526.283000", "114526.286000", "114526.289000", "114526.292000", "114526.295000", "114526.298000", "114526.300000", "114526.303000", "114526.306000", "114526.309000", "114526.312000", "114526.315000", "114526.317000", "114526.320000", "114526.323000", "114526.326000", "114526.328000", "114526.331000", "114606.258000", "114606.261000", "114606.264000", "114606.267000", "114606.270000", "114606.272000", "114606.275000", "114606.278000", "114606.281000", "114606.284000", "114606.286000", "114606.289000", "114606.292000", "114606.295000", "114606.298000", "114606.301000", "114606.303000", "114606.306000", "114606.309000", "114606.312000", "114606.315000", "114606.318000", "114606.320000", "114606.323000", "114606.326000", "114606.329000", "114606.332000", "114626.772000", "114626.775000", "114626.778000", "114626.781000", "114626.784000", "114626.787000", "114626.789000", "114626.792000", "114626.795000", "114626.799000", "114626.802000", "114626.805000", "114626.808000", "114626.811000"],
