{
  "AcquisitionMatrixPE": 104,
  "AcquisitionNumber": 1,
  "AcquisitionTime": "13:29:50.612500",
  "BandwidthPerPixelPhaseEncode": 17.17,
  "BaseResolution": 104,
  "BodyPartExamined": "BRAIN",
  "CoilCombinationMethod": "Sum of Squares",
  "ConsistencyInfo": "N4_VE11C_LATEST_20160120",
  "ConversionSoftware": "dcm2niix",
  "ConversionSoftwareVersion": "v1.0.20211006",
  "DerivedVendorReportedEchoSpacing": 0.000560011,
  "DeviceSerialNumber": "167006",
  "DwellTime": 2.1e-06,
  "EchoTime": 0.037,
  "EchoTrainLength": 104,
  "EffectiveEchoSpacing": 0.000560011,
  "FlipAngle": 52,
  "HeudiconvVersion": "0.11.3.post9+gc939bf8",
  "ImageComments": "Unaliased MB4/PE3/LB",
  "ImageOrientationPatientDICOM": [0.99965, 0.0258627, 0.00551024, -0.0235581, 0.965681, -0.25866],
  "ImageOrientationText": "Tra>Cor(-15.0)>Sag(0.7)",
  "ImageType": [
    "ORIGINAL",
    "PRIMARY",
    "M",
    "MB",
    "ND",
    "MOSAIC"
],
  "ImagingFrequency": 123.259,
  "InPlanePhaseEncodingDirectionDICOM": "COL",
  "InstitutionAddress": "Chemin Queen-Mary 4565,Montreal,District,CA,H3W 1W5",
  "InstitutionName": "IUGM",
  "InstitutionalDepartmentName": "Department",
  "MRAcquisitionType": "2D",
  "MagneticFieldStrength": 3,
  "Manufacturer": "Siemens",
  "ManufacturersModelName": "Prisma_fit",
  "MatrixCoilMode": "SENSE",
  "Modality": "MR",
  "MultibandAccelerationFactor": 4,
  "PartialFourier": 1,
  "PatientPosition": "HFS",
  "PercentPhaseFOV": 100,
  "PercentSampling": 100,
  "PhaseEncodingDirection": "j",
  "PhaseEncodingSteps": 104,
  "PhaseResolution": 1,
  "PixelBandwidth": 2290,
  "ProcedureStepDescription": "video^friends",
  "ProtocolName": "func_task-friends-s06e13a",
  "PulseSequenceDetails": "%CustomerSeq%\\cmrr_mbep2d_bold",
  "ReceiveCoilActiveElements": "HC1-7;NC1,2",
  "ReceiveCoilName": "HeadNeck_64",
  "ReconMatrixPE": 104,
  "RepetitionTime": 1.49,
  "SAR": 0.048928,
  "ScanOptions": "FS",
  "ScanningSequence": "EP",
  "SequenceName": "epfid2d1_104",
  "SequenceVariant": "SK\\SS",
  "SeriesDescription": "func_task-friends-s06e13a",
  "SeriesNumber": 10,
  "ShimSetting": [636, -7215, -8763, 697, 78, -3, 58, -26],
  "SliceThickness": 2,
  "SliceTiming": [0, 0.785, 0.1, 0.8825, 0.1975, 0.98, 0.295, 1.08, 0.3925, 1.1775, 0.49, 1.275, 0.59, 1.3725, 0.6875, 0, 0.785, 0.1, 0.8825, 0.1975, 0.98, 0.295, 1.08, 0.3925, 1.1775, 0.49, 1.275, 0.59, 1.3725, 0.6875, 0, 0.785, 0.1, 0.8825, 0.1975, 0.98, 0.295, 1.08, 0.3925, 1.1775, 0.49, 1.275, 0.59, 1.3725, 0.6875, 0, 0.785, 0.1, 0.8825, 0.1975, 0.98, 0.295, 1.08, 0.3925, 1.1775, 0.49, 1.275, 0.59, 1.3725, 0.6875],
  "SoftwareVersions": "syngo MR E11",
  "SpacingBetweenSlices": 2,
  "StationName": "MRC35049",
  "TaskName": "s06e13a",
  "TotalReadoutTime": 0.0576811,
  "TxRefAmp": 232.655,
  "WipMemBlock": "51f465d8-e254-4db2-b36c-576fde598956||Sequence: R016 ve11c/master r/e634e98; Dec 19 2017 11:00:25 by eja",
  "dcmmeta_affine": [
    [-1.9993005990982056, -0.04711611568927765, 0.024021554738283157, 107.21049499511719],
    [-0.0517253577709198, 1.9313621520996094, -0.5168798565864563, -80.09236145019531],
    [0.011020475998520851, 0.5173203945159912, 1.9319052696228027, -56.22587203979492],
    [0.0, 0.0, 0.0, 1.0]
],
  "dcmmeta_reorient_transform": [
    [0.0, -1.0, 0.0, 103.0],
    [1.0, 0.0, 0.0, 0.0],
    [0.0, 0.0, 1.0, 0.0],
    [0.0, 0.0, 0.0, 1.0]
],
  "dcmmeta_shape": [104, 104, 60, 470],
  "dcmmeta_slice_dim": 2,
  "dcmmeta_version": 0.6,
  "global": {
    "const": {
      "AcquisitionMatrix": [104, 0, 0, 104],
      "AngioFlag": "N",
      "BitsAllocated": 16,
      "BitsStored": 16,
      "BodyPartExamined": "BRAIN",
      "Columns": 832,
      "EchoNumbers": 1,
      "EchoTime": 37.0,
      "EchoTrainLength": 104,
      "FlipAngle": 52.0,
      "HighBit": 15,
      "ImageOrientationPatient": [0.99965031841608, 0.02586267908969, 0.00551023782837, -0.0235580581632, 0.96568106652311, -0.258660193409],
      "ImagePositionPatient": [-812.95269715257, -840.68178831762, 181.35129473558],
      "ImageType": [
        "ORIGINAL",
        "PRIMARY",
        "M",
        "MB",
        "ND",
        "MOSAIC"
],
      "ImagedNucleus": "1H",
      "ImagingFrequency": 123.258823,
      "InPlanePhaseEncodingDirection": "COL",
      "MRAcquisitionType": "2D",
      "MagneticFieldStrength": 3.0,
      "Manufacturer": "SIEMENS",
      "ManufacturerModelName": "Prisma_fit",
      "Modality": "MR",
      "NumberOfAverages": 1.0,
      "NumberOfPhaseEncodingSteps": 104,
      "PercentPhaseFieldOfView": 100.0,
      "PercentSampling": 100.0,
      "PerformedProcedureStepStartTime": "113051.770000",
      "PhotometricInterpretation": "MONOCHROME2",
      "PixelBandwidth": 2290.0,
      "PixelRepresentation": 0,
      "PixelSpacing": [2.0, 2.0],
      "ProtocolName": "func_task-friends-s06e13a",
      "RepetitionTime": 1490.0,
      "Rows": 832,
      "SAR": 0.0489280464619,
      "SamplesPerPixel": 1,
      "ScanOptions": "FS",
      "ScanningSequence": "EP",
      "SequenceName": "epfid2d1_104",
      "SequenceVariant": [
        "SK",
        "SS"
],
      "SeriesDescription": "func_task-friends-s06e13a",
      "SeriesNumber": 10,
      "SeriesTime": "133116.414000",
      "SliceLocation": -32.324786183,
      "SliceThickness": 2.0,
      "SmallestImagePixelValue": 0,
      "SoftwareVersions": "syngo MR E11",
      "SpacingBetweenSlices": 1.9999999799362,
      "SpecificCharacterSet": "ISO_IR 100",
      "StudyID": "1",
      "StudyTime": "113051.698000",
      "TransmitCoilName": "Body",
      "VariableFlipAngleFlag": "N",
      "WindowCenterWidthExplanation": "Algo1",
      "dBdt": 0.0},
    "slices": {}
  },
  "time": {
    "samples": {
      "AcquisitionNumber": [1, 2, 3, 4, 5, 6, 7, 8, 9, 10, 11, 12, 13, 14, 15, 16, 17, 18, 19, 20, 21, 22, 23, 24, 25, 26, 27, 28, 29, 30, 31, 32, 33, 34, 35, 36, 37, 38, 39, 40, 41, 42, 43, 44, 45, 46, 47, 48, 49, 50, 51, 52, 53, 54, 55, 56, 57, 58, 59, 60, 61, 62, 63, 64, 65, 66, 67, 68, 69, 70, 71, 72, 73, 74, 75, 76, 77, 78, 79, 80, 81, 82, 83, 84, 85, 86, 87, 88, 89, 90, 91, 92, 93, 94, 95, 96, 97, 98, 99, 100, 101, 102, 103, 104, 105, 106, 107, 108, 109, 110, 111, 112, 113, 114, 115, 116, 117, 118, 119, 120, 121, 122, 123, 124, 125, 126, 127, 128, 129, 130, 131, 132, 133, 134, 135, 136, 137, 138, 139, 140, 141, 142, 143, 144, 145, 146, 147, 148, 149, 150, 151, 152, 153, 154, 155, 156, 157, 158, 159, 160, 161, 162, 163, 164, 165, 166, 167, 168, 169, 170, 171, 172, 173, 174, 175, 176, 177, 178, 179, 180, 181, 182, 183, 184, 185, 186, 187, 188, 189, 190, 191, 192, 193, 194, 195, 196, 197, 198, 199, 200, 201, 202, 203, 204, 205, 206, 207, 208, 209, 210, 211, 212, 213, 214, 215, 216, 217, 218, 219, 220, 221, 222, 223, 224, 225, 226, 227, 228, 229, 230, 231, 232, 233, 234, 235, 236, 237, 238, 239, 240, 241, 242, 243, 244, 245, 246, 247, 248, 249, 250, 251, 252, 253, 254, 255, 256, 257, 258, 259, 260, 261, 262, 263, 264, 265, 266, 267, 268, 269, 270, 271, 272, 273, 274, 275, 276, 277, 278, 279, 280, 281, 282, 283, 284, 285, 286, 287, 288, 289, 290, 291, 292, 293, 294, 295, 296, 297, 298, 299, 300, 301, 302, 303, 304, 305, 306, 307, 308, 309, 310, 311, 312, 313, 314, 315, 316, 317, 318, 319, 320, 321, 322, 323, 324, 325, 326, 327, 328, 329, 330, 331, 332, 333, 334, 335, 336, 337, 338, 339, 340, 341, 342, 343, 344, 345, 346, 347, 348, 349, 350, 351, 352, 353, 354, 355, 356, 357, 358, 359, 360, 361, 362, 363, 364, 365, 366, 367, 368, 369, 370, 371, 372, 373, 374, 375, 376, 377, 378, 379, 380, 381, 382, 383, 384, 385, 386, 387, 388, 389, 390, 391, 392, 393, 394, 395, 396, 397, 398, 399, 400, 401, 402, 403, 404, 405, 406, 407, 408, 409, 410, 411, 412, 413, 414, 415, 416, 417, 418, 419, 420, 421, 422, 423, 424, 425, 426, 427, 428, 429, 430, 431, 432, 433, 434, 435, 436, 437, 438, 439, 440, 441, 442, 443, 444, 445, 446, 447, 448, 449, 450, 451, 452, 453, 454, 455, 456, 457, 458, 459, 460, 461, 462, 463, 464, 465, 466, 467, 468, 469, 470],
      "AcquisitionTime": ["132950.612500", "132952.102500", "132953.592500", "132955.082500", "132956.572500", "132958.062500", "132959.552500", "133001.042500", "133002.532500", "133004.022500", "133005.512500", "133007.002500", "133008.492500", "133009.982500", "133011.472500", "133012.962500", "133014.452500", "133015.942500", "133017.432500", "133018.922500", "133020.412500", "133021.902500", "133023.392500", "133024.882500", "133026.372500", "133027.862500", "133029.352500", "133030.842500", "133032.332500", "133033.822500", "133035.312500", "133036.802500", "133038.292500", "133039.782500", "133041.272500", "133042.762500", "133044.252500", "133045.742500", "133047.232500", "133048.722500", "133050.212500", "133051.702500", "133053.192500", "133054.682500", "133056.172500", "133057.662500", "133059.152500", "133100.642500", "133102.132500", "133103.622500", "133105.112500", "133106.602500", "133108.092500", "133109.582500", "133111.072500", "133112.562500", "133114.052500", "133115.542500", "133117.032500", "133118.522500", "133120.012500", "133121.502500", "133122.992500", "133124.482500", "133125.972500", "133127.462500", "133128.952500", "133130.442500", "133131.932500", "133133.422500", "133134.912500", "133136.402500", "133137.892500", "133139.382500", "133140.872500", "133142.362500", "133143.852500", "133145.342500", "133146.832500", "133148.322500", "133149.812500", "133151.302500", "133152.792500", "133154.282500", "133155.772500", "133157.262500", "133158.752500", "133200.242500", "133201.732500", "133203.222500", "133204.712500", "133206.202500", "133207.692500", "133209.182500", "133210.672500", "133212.162500", "133213.652500", "133215.142500", "133216.632500", "133218.122500", "133219.612500", "133221.102500", "133222.592500", "133224.082500", "133225.572500", "133227.062500", "133228.552500", "133230.042500", "133231.532500", "133233.022500", "133234.512500", "133236.002500", "133237.492500", "133238.982500", "133240.472500", "133241.962500", "133243.452500", "133244.942500", "133246.432500", "133247.922500", "133249.412500", "133250.902500", "133252.392500", "133253.882500", "133255.372500", "133256.862500", "133258.352500", "133259.842500", "133301.332500", "133302.822500", "133304.312500", "133305.802500", "133307.292500", "133308.782500", "133310.272500", "133311.762500", "133313.252500", "133314.742500", "133316.232500", "133317.722500", "133319.212500", "133320.702500", "133322.192500", "133323.682500", "133325.172500", "133326.662500", "133328.152500", "133329.642500", "133331.132500", "133332.622500", "133334.112500", "133335.602500", "133337.092500", "133338.582500", "133340.072500", "133341.562500", "133343.052500", "133344.542500", "133346.032500", "133347.522500", "133349.012500", "133350.502500", "133351.992500", "133353.482500", "133354.972500", "133356.462500", "133357.952500", "133359.442500", "133400.932500", "133402.422500", "133403.912500", "133405.402500", "133406.892500", "133408.382500", "133409.872500", "133411.362500", "133412.852500", "133414.342500", "133415.832500", "133417.322500", "133418.812500", "133420.302500", "133421.792500", "133423.282500", "133424.772500", "133426.262500", "133427.752500", "133429.242500", "133430.732500", "133432.222500", "133433.712500", "133435.202500", "133436.692500", "133438.182500", "133439.672500", "133441.162500", "133442.652500", "133444.142500", "133445.632500", "133447.122500", "133448.612500", "133450.102500", "133451.592500", "133453.082500", "133454.572500", "133456.062500", "133457.552500", "133459.042500", "133500.532500", "133502.022500", "133503.512500", "133505.002500", "133506.492500", "133507.982500", "133509.472500", "133510.962500", "133512.452500", "133513.942500", "133515.432500", "133516.922500", "133518.412500", "133519.902500", "133521.392500", "133522.882500", "133524.372500", "133525.862500", "133527.352500", "133528.842500", "133530.332500", "133531.822500", "133533.312500", "133534.802500", "133536.292500", "133537.782500", "133539.272500", "133540.762500", "133542.252500", "133543.742500", "133545.232500", "133546.722500", "133548.212500", "133549.702500", "133551.192500", "133552.682500", "133554.172500", "133555.662500", "133557.152500", "133558.642500", "133600.132500", "133601.622500", "133603.112500", "133604.602500", "133606.092500", "133607.582500", "133609.072500", "133610.562500", "133612.052500", "133613.542500", "133615.032500", "133616.522500", "133618.012500", "133619.502500", "133620.992500", "133622.482500", "133623.972500", "133625.462500", "133626.952500", "133628.442500", "133629.932500", "133631.422500", "133632.912500", "133634.402500", "133635.892500", "133637.382500", "133638.872500", "133640.362500", "133641.852500", "133643.342500", "133644.832500", "133646.322500", "133647.812500", "133649.302500", "133650.792500", "133652.282500", "133653.772500", "133655.262500", "133656.752500", "133658.242500", "133659.732500", "133701.222500", "133702.712500", "133704.202500", "133705.692500", "133707.182500", "133708.672500", "133710.162500", "133711.652500", "133713.142500", "133714.632500", "133716.122500", "133717.612500", "133719.102500", "133720.592500", "133722.082500", "133723.572500", "133725.062500", "133726.552500", "133728.042500", "133729.532500", "133731.022500", "133732.512500", "133734.002500", "133735.492500", "133736.982500", "133738.472500", "133739.962500", "133741.452500", "133742.942500", "133744.432500", "133745.922500", "133747.412500", "133748.902500", "133750.392500", "133751.882500", "133753.372500", "133754.862500", "133756.352500", "133757.842500", "133759.332500", "133800.822500", "133802.312500", "133803.802500", "133805.292500", "133806.782500", "133808.272500", "133809.762500", "133811.252500", "133812.742500", "133814.232500", "133815.722500", "133817.212500", "133818.702500", "133820.192500", "133821.682500", "133823.172500", "133824.662500", "133826.152500", "133827.642500", "133829.132500", "133830.622500", "133832.112500", "133833.602500", "133835.092500", "133836.582500", "133838.072500", "133839.562500", "133841.052500", "133842.542500", "133844.032500", "133845.522500", "133847.012500", "133848.502500", "133849.992500", "133851.482500", "133852.972500", "133854.462500", "133855.952500", "133857.442500", "133858.932500", "133900.422500", "133901.912500", "133903.402500", "133904.892500", "133906.382500", "133907.872500", "133909.362500", "133910.852500", "133912.342500", "133913.832500", "133915.322500", "133916.812500", "133918.302500", "133919.792500", "133921.282500", "133922.772500", "133924.262500", "133925.752500", "133927.242500", "133928.732500", "133930.222500", "133931.712500", "133933.202500", "133934.692500", "133936.182500", "133937.672500", "133939.162500", "133940.652500", "133942.142500", "133943.632500", "133945.122500", "133946.612500", "133948.102500", "133949.592500", "133951.082500", "133952.572500", "133954.062500", "133955.552500", "133957.042500", "133958.532500", "134000.022500", "134001.512500", "134003.002500", "134004.492500", "134005.982500", "134007.472500", "134008.962500", "134010.452500", "134011.942500", "134013.432500", "134014.922500", "134016.412500", "134017.902500", "134019.392500", "134020.882500", "134022.372500", "134023.862500", "134025.352500", "134026.842500", "134028.332500", "134029.822500", "134031.312500", "134032.802500", "134034.292500", "134035.782500", "134037.272500", "134038.762500", "134040.252500", "134041.742500", "134043.232500", "134044.722500", "134046.212500", "134047.702500", "134049.192500", "134050.682500", "134052.172500", "134053.662500", "134055.152500", "134056.642500", "134058.132500", "134059.622500", "134101.112500", "134102.602500", "134104.092500", "134105.582500", "134107.072500", "134108.562500", "134110.052500", "134111.542500", "134113.032500", "134114.522500", "134116.012500", "134117.502500", "134118.992500", "134120.482500", "134121.972500", "134123.462500", "134124.952500", "134126.442500", "134127.932500", "134129.422500"],
      "ContentTime": ["133116.416000", "133116.420000", "133116.423000", "133116.426000", "133116.429000", "133116.437000", "133116.440000", "133116.443000", "133116.451000", "133116.453000", "133116.456000", "133116.459000", "133116.462000", "133116.465000", "133116.468000", "133116.471000", "133116.474000", "133116.483000", "133116.486000", "133116.489000", "133116.491000", "133116.494000", "133116.497000", "133116.500000", "133116.503000", "133116.506000", "133116.509000", "133116.512000", "133116.516000", "133136.378000", "133136.381000", "133136.384000", "133136.387000", "133136.390000", "133136.393000", "133136.396000", "133136.399000", "133136.401000", "133136.404000", "133136.407000", "133136.410000", "133136.422000", "133136.425000", "133136.428000", "133136.431000", "133136.434000", "133136.437000", "133136.439000", "133136.442000", "133156.378000", "133156.381000", "133156.394000", "133156.396000", "133156.399000", "133156.402000", "133156.405000", "133156.408000", "133156.411000", "133156.414000", "133156.416000", "133156.419000", "133156.433000", "133156.436000", "133156.439000", "133156.442000", "133156.445000", "133156.448000", "133156.451000", "133156.454000", "133156.456000", "133216.378000", "133216.381000", "133216.384000", "133216.387000", "133216.389000", "133216.392000", "133216.395000", "133216.398000", "133216.401000", "133216.404000", "133216.407000", "133216.410000", "133216.413000", "133216.415000", "133216.418000", "133216.421000", "133216.424000", "133216.427000", "133216.430000", "133216.433000", "133236.379000", "133236.382000", "133236.385000", "133236.388000", "133236.391000", "133236.393000", "133236.396000", "133236.399000", "133236.402000", "133236.405000", "133236.408000", "133236.411000", "133236.414000", "133236.416000", "133236.419000", "133236.422000", "133236.425000", "133236.428000", "133236.431000", "133236.434000", "133316.379000", "133316.382000", "133316.385000", "133316.388000", "133316.391000", "133316.394000", "133316.397000", "133316.400000", "133316.402000", "133316.405000", "133316.408000", "133316.411000", "133316.414000", "133316.417000", "133316.420000", "133316.422000", "133316.425000", "133316.428000", "133316.431000", "133316.434000", "133316.437000", "133316.440000", "133316.443000", "133316.446000", "133316.449000", "133316.452000", "133316.455000", "133356.378000", "133356.381000", "133356.384000", "133356.387000", "133356.390000", "133356.393000", "133356.395000", "133356.398000", "133356.401000", "133356.404000", "133356.407000", "133356.410000", "133356.413000", "133356.418000", "133356.421000", "133356.424000", "133356.426000", "133356.429000", "133356.432000", "133356.435000", "133356.438000", "133356.441000", "133356.444000", "133356.447000", "133356.450000", "133356.453000", "133356.455000", "133436.378000", "133436.381000", "133436.384000", "133436.387000", "133436.390000", "133436.392000", "133436.396000", "133436.398000", "133436.401000", "133436.404000", "133436.407000", "133436.410000", "133436.413000", "133436.416000", "133436.418000", "133436.421000", "133436.424000", "133436.427000", "133436.440000", "133436.443000", "133436.446000", "133436.449000", "133436.452000", "133436.454000", "133436.457000", "133436.460000", "133436.463000", "133516.379000", "133516.382000", "133516.385000", "133516.388000", "133516.391000", "133516.394000", "133516.397000", "133516.400000", "133516.403000", "133516.406000", "133516.408000", "133516.411000", "133516.414000", "133516.417000", "133516.420000", "133516.423000", "133516.426000", "133516.429000", "133516.431000", "133516.434000", "133516.437000", "133516.440000", "133516.443000", "133516.446000", "133516.449000", "133516.452000", "133556.378000", "133556.381000", "133556.384000", "133556.387000", "133556.390000", "133556.393000", "133556.396000", "133556.399000", "133556.401000", "133556.404000", "133556.407000", "133556.410000", "133556.413000", "133556.416000", "133556.419000", "133556.422000", "133556.424000", "133556.427000", "133556.430000", "133556.443000", "133556.446000", "133556.449000", "133556.452000", "133556.455000", "133556.458000", "133556.461000", "133556.464000", "133636.378000", "133636.381000", "133636.384000", "133636.387000", "133636.390000", "133636.393000", "133636.396000", "133636.399000", "133636.401000", "133636.404000", "133636.407000", "133636.410000", "133636.413000", "133636.416000", "133636.419000", "133636.422000", "133636.425000", "133636.427000", "133636.430000", "133636.433000", "133636.436000", "133636.439000", "133636.442000", "133636.456000", "133636.459000", "133636.462000", "133636.465000", "133716.379000", "133716.382000", "133716.385000", "133716.388000", "133716.391000", "133716.394000", "133716.397000", "133716.399000", "133716.402000", "133716.405000", "133716.408000", "133716.411000", "133716.414000", "133716.417000", "133716.420000", "133716.423000", "133716.426000", "133716.429000", "133716.432000", "133716.435000", "133716.437000", "133716.440000", "133716.443000", "133716.446000", "133716.449000", "133716.452000", "133716.455000", "133756.379000", "133756.382000", "133756.385000", "133756.388000", "133756.391000", "133756.394000", "133756.397000", "133756.399000", "133756.402000", "133756.405000", "133756.414000", "133756.417000", "133756.420000", "133756.423000", "133756.426000", "133756.429000", "133756.431000", "133756.434000", "133756.437000", "133756.440000", "133756.443000", "133756.446000", "133756.449000", "133756.452000", "133756.455000", "133756.457000", "133756.460000", "133836.378000", "133836.381000", "133836.384000", "133836.387000", "133836.389000", "133836.392000", "133836.395000", "133836.398000", "133836.401000", "133836.404000", "133836.407000", "133836.410000", "133836.413000", "133836.415000", "133836.418000", "133836.421000", "133836.424000", "133836.427000", "133836.430000", "133836.433000", "133836.436000", "133836.439000", "133836.441000", "133836.444000", "133836.447000", "133836.450000", "133836.453000", "133916.379000", "133916.382000", "133916.385000", "133916.388000", "133916.391000", "133916.394000", "133916.397000", "133916.399000", "133916.402000", "133916.405000", "133916.408000", "133916.411000", "133916.414000", "133916.430000", "133916.432000", "133916.435000", "133916.438000", "133916.441000", "133916.444000", "133916.447000", "133916.450000", "133916.453000", "133916.456000", "133916.458000", "133916.461000", "133916.464000", "133916.467000", "133956.379000", "133956.382000", "133956.385000", "133956.388000", "133956.391000", "133956.394000", "133956.397000", "133956.400000", "133956.403000", "133956.406000", "133956.408000", "133956.412000", "133956.414000", "133956.418000", "133956.420000", "133956.423000", "133956.426000", "133956.429000", "133956.432000", "133956.435000", "133956.438000", "133956.441000", "133956.444000", "133956.448000", "133956.451000", "133956.454000", "134036.378000", "134036.381000", "134036.384000", "134036.387000", "134036.390000", "134036.393000", "134036.396000", "134036.398000", "134036.401000", "134036.404000", "134036.407000", "134036.410000", "134036.413000", "134036.416000", "134036.419000", "134036.422000", "134036.425000", "134036.428000", "134036.431000", "134036.433000", "134036.436000", "134036.439000", "134036.442000", "134036.445000", "134036.448000", "134036.451000", "134036.454000", "134116.378000", "134116.381000", "134116.384000", "134116.387000", "134116.390000", "134116.393000", "134116.396000", "134116.399000", "134116.401000", "134116.409000", "134116.412000", "134116.415000", "134116.418000", "134116.421000", "134116.424000", "134116.427000", "134116.429000", "134116.432000", "134116.435000", "134116.438000", "134116.441000", "134116.444000", "134116.447000", "134116.450000", "134116.453000", "134116.456000", "134116.458000", "134132.005000", "134132.008000", "134132.011000", "134132.014000", "134132.017000", "134132.020000", "134132.024000", "134132.027000", "134132.030000", "134132.033000", "134132.036000"],
