{
  "AcquisitionMatrixPE": 104,
  "AcquisitionNumber": 1,
  "AcquisitionTime": "11:40:45.737500",
  "BandwidthPerPixelPhaseEncode": 17.17,
  "BaseResolution": 104,
  "BodyPartExamined": "BRAIN",
  "CoilCombinationMethod": "Sum of Squares",
  "ConsistencyInfo": "N4_VE11C_LATEST_20160120",
  "ConversionSoftware": "dcm2niix",
  "ConversionSoftwareVersion": "v1.0.20230411",
  "DerivedVendorReportedEchoSpacing": 0.000560011,
  "DeviceSerialNumber": "167006",
  "DwellTime": 2.1e-06,
  "EchoTime": 0.037,
  "EchoTrainLength": 104,
  "EffectiveEchoSpacing": 0.000560011,
  "FlipAngle": 52,
  "HeudiconvVersion": "0.5.3.post861+ge7d3c7f",
  "ImageComments": "Unaliased MB4/PE3/LB",
  "ImageOrientationPatientDICOM": [0.993711, 0.10813, 0.0290877, -0.0888612, 0.919584, -0.382713],
  "ImageOrientationText": "Tra>Cor(-22.2)>Sag(3.9)",
  "ImageType": [
    "ORIGINAL",
    "PRIMARY",
    "M",
    "MB",
    "ND",
    "MOSAIC"
],
  "ImagingFrequency": 123.249553,
  "InPlanePhaseEncodingDirectionDICOM": "COL",
  "InstitutionAddress": "Chemin Queen-Mary 4565,Montreal,District,CA,H3W 1W5",
  "InstitutionName": "IUGM",
  "InstitutionalDepartmentName": "Department",
  "MRAcquisitionType": "2D",
  "MagneticFieldStrength": 3,
  "Manufacturer": "Siemens",
  "ManufacturersModelName": "Prisma_fit",
  "MatrixCoilMode": "SENSE",
  "Modality": "MR",
  "MultibandAccelerationFactor": 4,
  "NonlinearGradientCorrection": false,
  "PartialFourier": 1,
  "PatientPosition": "HFS",
  "PercentPhaseFOV": 100,
  "PercentSampling": 100,
  "PhaseEncodingDirection": "j",
  "PhaseEncodingSteps": 104,
  "PhaseResolution": 1,
  "PixelBandwidth": 2290,
  "ProcedureStepDescription": "video^friends",
  "ProtocolName": "func_task-friends-s07e19a",
  "PulseSequenceDetails": "%CustomerSeq%\\cmrr_mbep2d_bold",
  "ReceiveCoilActiveElements": "HC1-7;NC1,2",
  "ReceiveCoilName": "HeadNeck_64",
  "ReconMatrixPE": 104,
  "RepetitionTime": 1.49,
  "SAR": 0.0567907,
  "ScanOptions": "FS",
  "ScanningSequence": "EP",
  "SequenceName": "epfid2d1_104",
  "SequenceVariant": "SK\\SS",
  "SeriesDescription": "func_task-friends-s07e19a",
  "SeriesNumber": 14,
  "ShimSetting": [615, -7216, -8802, 605, 119, -41, -104, 90],
  "SliceThickness": 2,
  "SliceTiming": [0, 0.7825, 0.0975, 0.8825, 0.195, 0.98, 0.2925, 1.0775, 0.3925, 1.175, 0.49, 1.2725, 0.5875, 1.3725, 0.685, 0, 0.7825, 0.0975, 0.8825, 0.195, 0.98, 0.2925, 1.0775, 0.3925, 1.175, 0.49, 1.2725, 0.5875, 1.3725, 0.685, 0, 0.7825, 0.0975, 0.8825, 0.195, 0.98, 0.2925, 1.0775, 0.3925, 1.175, 0.49, 1.2725, 0.5875, 1.3725, 0.685, 0, 0.7825, 0.0975, 0.8825, 0.195, 0.98, 0.2925, 1.0775, 0.3925, 1.175, 0.49, 1.2725, 0.5875, 1.3725, 0.685],
  "SoftwareVersions": "syngo MR E11",
  "SpacingBetweenSlices": 2,
  "StationName": "MRC35049",
  "TaskName": "s07e19a",
  "TotalReadoutTime": 0.0576811,
  "TxRefAmp": 263.284,
  "WipMemBlock": "02016f34-8a45-450b-a690-5f27f993688e||Sequence: R017 ve11c/master r/75a17815+; Jun 28 2022 16:32:11 by eja",
  "dcmmeta_affine": [
    [-1.987422227859497, -0.17772234976291656, 0.13626272976398468, 109.06346130371094],
    [-0.21625997126102448, 1.839167594909668, -0.7554428577423096, -55.18806838989258],
    [0.0581754595041275, 0.7654260993003845, 1.846818447113037, -62.71738815307617],
    [0.0, 0.0, 0.0, 1.0]
],
  "dcmmeta_reorient_transform": [
    [0.0, -1.0, 0.0, 103.0],
    [1.0, 0.0, 0.0, 0.0],
    [0.0, 0.0, 1.0, 0.0],
    [0.0, 0.0, 0.0, 1.0]
],
  "dcmmeta_shape": [104, 104, 60, 437],
  "dcmmeta_slice_dim": 2,
  "dcmmeta_version": 0.6,
  "global": {
    "const": {
      "AcquisitionMatrix": [104, 0, 0, 104],
      "AngioFlag": "N",
      "BitsAllocated": 16,
      "BitsStored": 16,
      "BodyPartExamined": "BRAIN",
      "Columns": 832,
      "EchoNumbers": 1,
      "EchoTime": 37.0,
      "EchoTrainLength": 104,
      "FlipAngle": 52.0,
      "HighBit": 15,
      "ImageOrientationPatient": [0.99371112987885, 0.10812998836596, 0.02908772887099, -0.0888611715381, 0.91958382722342, -0.382713047729],
      "ImagePositionPatient": [-749.48882849794, -882.42185674383, 273.5607305456],
      "ImageType": [
        "ORIGINAL",
        "PRIMARY",
        "M",
        "MB",
        "ND",
        "MOSAIC"
],
      "ImagedNucleus": "1H",
      "ImagingFrequency": 123.249553,
      "InPlanePhaseEncodingDirection": "COL",
      "MRAcquisitionType": "2D",
      "MagneticFieldStrength": 3.0,
      "Manufacturer": "SIEMENS",
      "ManufacturerModelName": "Prisma_fit",
      "Modality": "MR",
      "NumberOfAverages": 1.0,
      "NumberOfPhaseEncodingSteps": 104,
      "PercentPhaseFieldOfView": 100.0,
      "PercentSampling": 100.0,
      "PerformedProcedureStepStartTime": "112019.542000",
      "PhotometricInterpretation": "MONOCHROME2",
      "PixelBandwidth": 2290.0,
      "PixelRepresentation": 0,
      "PixelSpacing": [2.0, 2.0],
      "ProtocolName": "func_task-friends-s07e19a",
      "RepetitionTime": 1490.0,
      "Rows": 832,
      "SAR": 0.05679065994646,
      "SamplesPerPixel": 1,
      "ScanOptions": "FS",
      "ScanningSequence": "EP",
      "SequenceName": "epfid2d1_104",
      "SequenceVariant": [
        "SK",
        "SS"
],
      "SeriesDescription": "func_task-friends-s07e19a",
      "SeriesNumber": 14,
      "SeriesTime": "114207.107000",
      "SliceLocation": -29.637457501773,
      "SliceThickness": 2.0,
      "SmallestImagePixelValue": 0,
      "SoftwareVersions": "syngo MR E11",
      "SpacingBetweenSlices": 1.9999999894876,
      "SpecificCharacterSet": "ISO_IR 100",
      "StudyID": "1",
      "StudyTime": "112019.469000",
      "TransmitCoilName": "Body",
      "VariableFlipAngleFlag": "N",
      "WindowCenterWidthExplanation": "Algo1",
      "dBdt": 0.0},
    "slices": {}
  },
  "time": {
    "samples": {
      "AcquisitionNumber": [1, 2, 3, 4, 5, 6, 7, 8, 9, 10, 11, 12, 13, 14, 15, 16, 17, 18, 19, 20, 21, 22, 23, 24, 25, 26, 27, 28, 29, 30, 31, 32, 33, 34, 35, 36, 37, 38, 39, 40, 41, 42, 43, 44, 45, 46, 47, 48, 49, 50, 51, 52, 53, 54, 55, 56, 57, 58, 59, 60, 61, 62, 63, 64, 65, 66, 67, 68, 69, 70, 71, 72, 73, 74, 75, 76, 77, 78, 79, 80, 81, 82, 83, 84, 85, 86, 87, 88, 89, 90, 91, 92, 93, 94, 95, 96, 97, 98, 99, 100, 101, 102, 103, 104, 105, 106, 107, 108, 109, 110, 111, 112, 113, 114, 115, 116, 117, 118, 119, 120, 121, 122, 123, 124, 125, 126, 127, 128, 129, 130, 131, 132, 133, 134, 135, 136, 137, 138, 139, 140, 141, 142, 143, 144, 145, 146, 147, 148, 149, 150, 151, 152, 153, 154, 155, 156, 157, 158, 159, 160, 161, 162, 163, 164, 165, 166, 167, 168, 169, 170, 171, 172, 173, 174, 175, 176, 177, 178, 179, 180, 181, 182, 183, 184, 185, 186, 187, 188, 189, 190, 191, 192, 193, 194, 195, 196, 197, 198, 199, 200, 201, 202, 203, 204, 205, 206, 207, 208, 209, 210, 211, 212, 213, 214, 215, 216, 217, 218, 219, 220, 221, 222, 223, 224, 225, 226, 227, 228, 229, 230, 231, 232, 233, 234, 235, 236, 237, 238, 239, 240, 241, 242, 243, 244, 245, 246, 247, 248, 249, 250, 251, 252, 253, 254, 255, 256, 257, 258, 259, 260, 261, 262, 263, 264, 265, 266, 267, 268, 269, 270, 271, 272, 273, 274, 275, 276, 277, 278, 279, 280, 281, 282, 283, 284, 285, 286, 287, 288, 289, 290, 291, 292, 293, 294, 295, 296, 297, 298, 299, 300, 301, 302, 303, 304, 305, 306, 307, 308, 309, 310, 311, 312, 313, 314, 315, 316, 317, 318, 319, 320, 321, 322, 323, 324, 325, 326, 327, 328, 329, 330, 331, 332, 333, 334, 335, 336, 337, 338, 339, 340, 341, 342, 343, 344, 345, 346, 347, 348, 349, 350, 351, 352, 353, 354, 355, 356, 357, 358, 359, 360, 361, 362, 363, 364, 365, 366, 367, 368, 369, 370, 371, 372, 373, 374, 375, 376, 377, 378, 379, 380, 381, 382, 383, 384, 385, 386, 387, 388, 389, 390, 391, 392, 393, 394, 395, 396, 397, 398, 399, 400, 401, 402, 403, 404, 405, 406, 407, 408, 409, 410, 411, 412, 413, 414, 415, 416, 417, 418, 419, 420, 421, 422, 423, 424, 425, 426, 427, 428, 429, 430, 431, 432, 433, 434, 435, 436, 437],
      "AcquisitionTime": ["114045.737500", "114047.227500", "114048.717500", "114050.207500", "114051.697500", "114053.187500", "114054.677500", "114056.167500", "114057.657500", "114059.147500", "114100.637500", "114102.127500", "114103.617500", "114105.107500", "114106.597500", "114108.087500", "114109.577500", "114111.067500", "114112.557500", "114114.047500", "114115.537500", "114117.027500", "114118.517500", "114120.007500", "114121.497500", "114122.987500", "114124.477500", "114125.967500", "114127.457500", "114128.947500", "114130.437500", "114131.927500", "114133.417500", "114134.907500", "114136.397500", "114137.887500", "114139.377500", "114140.867500", "114142.357500", "114143.847500", "114145.337500", "114146.827500", "114148.317500", "114149.807500", "114151.297500", "114152.787500", "114154.277500", "114155.767500", "114157.257500", "114158.747500", "114200.237500", "114201.727500", "114203.217500", "114204.707500", "114206.197500", "114207.687500", "114209.177500", "114210.667500", "114212.157500", "114213.647500", "114215.137500", "114216.627500", "114218.117500", "114219.607500", "114221.097500", "114222.587500", "114224.077500", "114225.567500", "114227.057500", "114228.547500", "114230.037500", "114231.527500", "114233.017500", "114234.507500", "114235.997500", "114237.487500", "114238.977500", "114240.467500", "114241.957500", "114243.447500", "114244.937500", "114246.427500", "114247.917500", "114249.407500", "114250.897500", "114252.387500", "114253.877500", "114255.367500", "114256.857500", "114258.347500", "114259.837500", "114301.327500", "114302.817500", "114304.307500", "114305.797500", "114307.287500", "114308.777500", "114310.267500", "114311.757500", "114313.247500", "114314.737500", "114316.227500", "114317.717500", "114319.207500", "114320.697500", "114322.187500", "114323.677500", "114325.167500", "114326.657500", "114328.147500", "114329.637500", "114331.127500", "114332.617500", "114334.107500", "114335.597500", "114337.087500", "114338.577500", "114340.067500", "114341.557500", "114343.047500", "114344.537500", "114346.027500", "114347.517500", "114349.007500", "114350.497500", "114351.987500", "114353.477500", "114354.967500", "114356.457500", "114357.947500", "114359.437500", "114400.927500", "114402.417500", "114403.907500", "114405.397500", "114406.887500", "114408.377500", "114409.867500", "114411.357500", "114412.847500", "114414.337500", "114415.827500", "114417.317500", "114418.807500", "114420.297500", "114421.787500", "114423.277500", "114424.767500", "114426.257500", "114427.747500", "114429.237500", "114430.727500", "114432.217500", "114433.707500", "114435.197500", "114436.687500", "114438.177500", "114439.667500", "114441.157500", "114442.647500", "114444.137500", "114445.627500", "114447.117500", "114448.607500", "114450.097500", "114451.587500", "114453.077500", "114454.567500", "114456.057500", "114457.547500", "114459.037500", "114500.527500", "114502.017500", "114503.507500", "114504.997500", "114506.487500", "114507.977500", "114509.467500", "114510.957500", "114512.447500", "114513.937500", "114515.427500", "114516.917500", "114518.407500", "114519.897500", "114521.387500", "114522.877500", "114524.367500", "114525.857500", "114527.347500", "114528.837500", "114530.327500", "114531.817500", "114533.307500", "114534.797500", "114536.287500", "114537.777500", "114539.267500", "114540.757500", "114542.247500", "114543.737500", "114545.227500", "114546.717500", "114548.207500", "114549.697500", "114551.187500", "114552.677500", "114554.167500", "114555.657500", "114557.147500", "114558.637500", "114600.127500", "114601.617500", "114603.107500", "114604.597500", "114606.087500", "114607.577500", "114609.067500", "114610.557500", "114612.047500", "114613.537500", "114615.027500", "114616.517500", "114618.007500", "114619.497500", "114620.987500", "114622.477500", "114623.967500", "114625.457500", "114626.947500", "114628.437500", "114629.927500", "114631.417500", "114632.907500", "114634.397500", "114635.887500", "114637.377500", "114638.867500", "114640.357500", "114641.847500", "114643.337500", "114644.827500", "114646.317500", "114647.807500", "114649.297500", "114650.787500", "114652.277500", "114653.767500", "114655.257500", "114656.747500", "114658.237500", "114659.727500", "114701.217500", "114702.707500", "114704.197500", "114705.687500", "114707.177500", "114708.667500", "114710.157500", "114711.647500", "114713.137500", "114714.627500", "114716.117500", "114717.607500", "114719.097500", "114720.587500", "114722.077500", "114723.567500", "114725.057500", "114726.547500", "114728.037500", "114729.527500", "114731.017500", "114732.507500", "114733.997500", "114735.487500", "114736.977500", "114738.467500", "114739.957500", "114741.447500", "114742.937500", "114744.427500", "114745.917500", "114747.407500", "114748.897500", "114750.387500", "114751.877500", "114753.367500", "114754.857500", "114756.347500", "114757.837500", "114759.327500", "114800.817500", "114802.307500", "114803.797500", "114805.287500", "114806.777500", "114808.267500", "114809.757500", "114811.247500", "114812.737500", "114814.227500", "114815.717500", "114817.207500", "114818.697500", "114820.187500", "114821.677500", "114823.167500", "114824.657500", "114826.147500", "114827.637500", "114829.127500", "114830.617500", "114832.107500", "114833.597500", "114835.087500", "114836.577500", "114838.067500", "114839.557500", "114841.047500", "114842.537500", "114844.027500", "114845.517500", "114847.007500", "114848.497500", "114849.987500", "114851.477500", "114852.967500", "114854.457500", "114855.947500", "114857.437500", "114858.927500", "114900.417500", "114901.907500", "114903.397500", "114904.887500", "114906.377500", "114907.867500", "114909.357500", "114910.847500", "114912.337500", "114913.827500", "114915.317500", "114916.807500", "114918.297500", "114919.787500", "114921.277500", "114922.767500", "114924.257500", "114925.747500", "114927.237500", "114928.727500", "114930.217500", "114931.707500", "114933.197500", "114934.687500", "114936.177500", "114937.667500", "114939.157500", "114940.647500", "114942.137500", "114943.627500", "114945.117500", "114946.607500", "114948.097500", "114949.587500", "114951.077500", "114952.567500", "114954.057500", "114955.547500", "114957.037500", "114958.527500", "115000.017500", "115001.507500", "115002.997500", "115004.487500", "115005.977500", "115007.467500", "115008.957500", "115010.447500", "115011.937500", "115013.427500", "115014.917500", "115016.407500", "115017.897500", "115019.387500", "115020.877500", "115022.367500", "115023.857500", "115025.347500", "115026.837500", "115028.327500", "115029.817500", "115031.307500", "115032.797500", "115034.287500", "115035.777500", "115037.267500", "115038.757500", "115040.247500", "115041.737500", "115043.227500", "115044.717500", "115046.207500", "115047.697500", "115049.187500", "115050.677500", "115052.167500", "115053.657500", "115055.147500", "115056.637500", "115058.127500", "115059.617500", "115101.107500", "115102.597500", "115104.087500", "115105.577500", "115107.067500", "115108.557500", "115110.047500", "115111.537500", "115113.027500", "115114.517500", "115116.007500", "115117.497500", "115118.987500", "115120.477500", "115121.967500", "115123.457500", "115124.947500", "115126.437500", "115127.927500", "115129.417500", "115130.907500", "115132.397500", "115133.887500", "115135.377500"],
      "ContentTime": ["114207.109000", "114207.113000", "114207.116000", "114207.118000", "114207.121000", "114207.124000", "114207.127000", "114207.130000", "114207.133000", "114207.136000", "114207.139000", "114207.143000", "114207.146000", "114207.149000", "114207.152000", "114207.160000", "114207.163000", "114207.166000", "114207.169000", "114207.172000", "114207.175000", "114207.178000", "114207.180000", "114207.183000", "114207.186000", "114207.189000", "114207.192000", "114207.195000", "114207.198000", "114207.201000", "114207.204000", "114227.075000", "114227.078000", "114227.082000", "114227.085000", "114227.088000", "114227.091000", "114227.093000", "114227.096000", "114227.099000", "114227.102000", "114227.105000", "114227.108000", "114227.111000", "114227.114000", "114227.116000", "114227.119000", "114227.122000", "114227.125000", "114227.128000", "114227.131000", "114247.074000", "114247.077000", "114247.080000", "114247.083000", "114247.086000", "114247.089000", "114247.092000", "114247.094000", "114247.097000", "114247.100000", "114247.103000", "114247.106000", "114247.109000", "114247.112000", "114247.114000", "114247.117000", "114247.120000", "114247.123000", "114247.126000", "114247.129000", "114307.075000", "114307.078000", "114307.081000", "114307.084000", "114307.087000", "114307.090000", "114307.093000", "114307.096000", "114307.099000", "114307.102000", "114307.104000", "114307.107000", "114307.110000", "114307.113000", "114307.116000", "114307.124000", "114307.127000", "114307.130000", "114307.133000", "114307.136000", "114347.075000", "114347.078000", "114347.081000", "114347.084000", "114347.087000", "114347.090000", "114347.092000", "114347.095000", "114347.098000", "114347.101000", "114347.104000", "114347.107000", "114347.110000", "114347.113000", "114347.116000", "114347.118000", "114347.121000", "114347.124000", "114347.127000", "114347.130000", "114347.133000", "114347.136000", "114347.139000", "114347.142000", "114347.145000", "114347.147000", "114347.150000", "114347.153000", "114347.163000", "114427.075000", "114427.078000", "114427.081000", "114427.084000", "114427.087000", "114427.090000", "114427.093000", "114427.098000", "114427.101000", "114427.104000", "114427.107000", "114427.110000", "114427.112000", "114427.115000", "114427.118000", "114427.121000", "114427.124000", "114427.127000", "114427.130000", "114427.133000", "114427.135000", "114427.138000", "114427.141000", "114427.144000", "114427.147000", "114427.150000", "114427.153000", "114507.075000", "114507.078000", "114507.081000", "114507.084000", "114507.087000", "114507.090000", "114507.093000", "114507.096000", "114507.099000", "114507.102000", "114507.105000", "114507.107000", "114507.111000", "114507.114000", "114507.116000", "114507.119000", "114507.122000", "114507.125000", "114507.128000", "114507.131000", "114507.134000", "114507.137000", "114507.140000", "114507.143000", "114507.146000", "114507.148000", "114507.151000", "114547.075000", "114547.078000", "114547.081000", "114547.084000", "114547.087000", "114547.090000", "114547.093000", "114547.096000", "114547.099000", "114547.102000", "114547.105000", "114547.108000", "114547.111000", "114547.114000", "114547.117000", "114547.120000", "114547.123000", "114547.125000", "114547.128000", "114547.131000", "114547.134000", "114547.137000", "114547.140000", "114547.143000", "114547.146000", "114547.149000", "114627.075000", "114627.078000", "114627.081000", "114627.084000", "114627.087000", "114627.090000", "114627.093000", "114627.095000", "114627.098000", "114627.101000", "114627.104000", "114627.107000", "114627.110000", "114627.113000", "114627.116000", "114627.119000", "114627.122000", "114627.124000", "114627.127000", "114627.131000", "114627.133000", "114627.136000", "114627.139000", "114627.142000", "114627.145000", "114627.148000", "114627.151000", "114707.075000", "114707.078000", "114707.081000", "114707.084000", "114707.087000", "114707.090000", "114707.093000", "114707.096000", "114707.098000", "114707.101000", "114707.104000", "114707.107000", "114707.110000", "114707.113000", "114707.116000", "114707.119000", "114707.122000", "114707.124000", "114707.127000", "114707.130000", "114707.133000", "114707.136000", "114707.139000", "114707.142000", "114707.145000", "114707.148000", "114707.150000", "114747.074000", "114747.077000", "114747.080000", "114747.083000", "114747.086000", "114747.089000", "114747.092000", "114747.095000", "114747.098000", "114747.100000", "114747.103000", "114747.106000", "114747.109000", "114747.112000", "114747.115000", "114747.118000", "114747.121000", "114747.124000", "114747.126000", "114747.129000", "114747.132000", "114747.135000", "114747.138000", "114747.141000", "114747.144000", "114747.147000", "114747.150000", "114827.075000", "114827.078000", "114827.081000", "114827.084000", "114827.087000", "114827.090000", "114827.093000", "114827.096000", "114827.098000", "114827.101000", "114827.104000", "114827.107000", "114827.110000", "114827.113000", "114827.116000", "114827.119000", "114827.121000", "114827.124000", "114827.127000", "114827.130000", "114827.133000", "114827.136000", "114827.139000", "114827.142000", "114827.145000", "114827.148000", "114827.151000", "114907.075000", "114907.078000", "114907.081000", "114907.084000", "114907.087000", "114907.090000", "114907.093000", "114907.095000", "114907.098000", "114907.101000", "114907.104000", "114907.107000", "114907.110000", "114907.127000", "114907.130000", "114907.133000", "114907.136000", "114907.139000", "114907.142000", "114907.145000", "114907.148000", "114907.151000", "114907.153000", "114907.156000", "114907.159000", "114907.162000", "114907.172000", "114947.075000", "114947.078000", "114947.081000", "114947.084000", "114947.087000", "114947.090000", "114947.093000", "114947.095000", "114947.098000", "114947.101000", "114947.104000", "114947.107000", "114947.110000", "114947.113000", "114947.116000", "114947.119000", "114947.121000", "114947.124000", "114947.127000", "114947.130000", "114947.133000", "114947.136000", "114947.139000", "114947.142000", "114947.145000", "114947.148000", "114947.150000", "115027.075000", "115027.078000", "115027.081000", "115027.084000", "115027.087000", "115027.090000", "115027.093000", "115027.095000", "115027.098000", "115027.101000", "115027.111000", "115027.114000", "115027.116000", "115027.119000", "115027.123000", "115027.125000", "115027.128000", "115027.131000", "115027.134000", "115027.137000", "115027.140000", "115027.144000", "115027.147000", "115027.150000", "115027.153000", "115027.156000", "115107.075000", "115107.078000", "115107.081000", "115107.084000", "115107.087000", "115107.090000", "115107.093000", "115107.096000", "115107.099000", "115107.101000", "115107.104000", "115107.107000", "115107.110000", "115107.113000", "115107.116000", "115107.119000", "115107.122000", "115107.125000", "115107.127000", "115107.130000", "115107.133000", "115107.136000", "115107.139000", "115107.142000", "115107.145000", "115107.148000", "115107.151000", "115138.899000", "115138.902000", "115138.905000", "115138.908000", "115138.911000", "115138.914000", "115138.917000", "115138.920000", "115138.923000", "115138.926000", "115138.929000", "115138.932000", "115138.935000", "115138.938000", "115138.941000", "115138.944000", "115138.947000", "115138.950000", "115138.953000", "115138.964000", "115138.967000", "115138.970000"],
