{
  "AcquisitionMatrixPE": 104,
  "AcquisitionNumber": 1,
  "AcquisitionTime": "14:45:23.490000",
  "BandwidthPerPixelPhaseEncode": 17.17,
  "BaseResolution": 104,
  "BodyPartExamined": "BRAIN",
  "CoilString": "HC1-7;NC1_2",
  "ConsistencyInfo": "N4_VE11C_LATEST_20160120",
  "ConversionSoftware": "dcm2niix",
  "ConversionSoftwareVersion": "v1.0.20190902",
  "DerivedVendorReportedEchoSpacing": 0.000560011,
  "DeviceSerialNumber": "167006",
  "DwellTime": 2.1e-06,
  "EchoTime": 0.037,
  "EchoTrainLength": 104,
  "EffectiveEchoSpacing": 0.000560011,
  "FlipAngle": 52,
  "ImageComments": "Unaliased_MB4_PE3_LB",
  "ImageOrientationPatientDICOM": [0.999303, -0.0368113, 0.00612072, 0.0362935, 0.920594, -0.38883],
  "ImageType": [
    "ORIGINAL",
    "PRIMARY",
    "M",
    "MB",
    "ND",
    "MOSAIC"
],
  "ImagingFrequency": 123.259,
  "InPlanePhaseEncodingDirectionDICOM": "COL",
  "InstitutionAddress": "Chemin_Queen-Mary_4565_Montreal_District_CA_H3W_1W5",
  "InstitutionName": "IUGM",
  "InstitutionalDepartmentName": "Department",
  "MRAcquisitionType": "2D",
  "MagneticFieldStrength": 3,
  "Manufacturer": "Siemens",
  "ManufacturersModelName": "Prisma_fit",
  "Modality": "MR",
  "MultibandAccelerationFactor": 4,
  "PartialFourier": 1,
  "PatientPosition": "HFS",
  "PercentPhaseFOV": 100,
  "PhaseEncodingDirection": "j",
  "PhaseEncodingSteps": 104,
  "PhaseResolution": 1,
  "PixelBandwidth": 2290,
  "ProcedureStepDescription": "video_friends",
  "ProtocolName": "func_task-friends-s01e06a",
  "PulseSequenceDetails": "%CustomerSeq%_cmrr_mbep2d_bold",
  "ReceiveCoilActiveElements": "HC1-7;NC1,2",
  "ReceiveCoilName": "HeadNeck_64",
  "ReconMatrixPE": 104,
  "RepetitionTime": 1.49,
  "SAR": 0.0258111,
  "ScanOptions": "FS",
  "ScanningSequence": "EP",
  "SequenceName": "epfid2d1_104",
  "SequenceVariant": "SK_SS",
  "SeriesDescription": "func_task-friends-s01e06a",
  "SeriesNumber": 8,
  "ShimSetting": [635, -7256, -8843, 587, 48, -259, -95, -5],
  "SliceThickness": 2,
  "SliceTiming": [0, 0.7825, 0.0975, 0.8825, 0.195, 0.98, 0.2925, 1.0775, 0.3925, 1.175, 0.49, 1.2725, 0.5875, 1.3725, 0.685, 0, 0.7825, 0.0975, 0.8825, 0.195, 0.98, 0.2925, 1.0775, 0.3925, 1.175, 0.49, 1.2725, 0.5875, 1.3725, 0.685, 0, 0.7825, 0.0975, 0.8825, 0.195, 0.98, 0.2925, 1.0775, 0.3925, 1.175, 0.49, 1.2725, 0.5875, 1.3725, 0.685, 0, 0.7825, 0.0975, 0.8825, 0.195, 0.98, 0.2925, 1.0775, 0.3925, 1.175, 0.49, 1.2725, 0.5875, 1.3725, 0.685],
  "SoftwareVersions": "syngo_MR_E11",
  "SpacingBetweenSlices": 2,
  "StationName": "MRC35049",
  "TaskName": "s01e06a",
  "TotalReadoutTime": 0.0576811,
  "TxRefAmp": 216.899,
  "WipMemBlock": "12fe244f-0c3d-4351-92bf-07ccf53b0955||Sequence: R016 ve11c/master r/e634e98; Dec 19 2017 11:00:25 by eja",
  "dcmmeta_affine": [
    [-1.9986069202423096, 0.07258699089288712, -0.01735731214284897, 98.73091888427734],
    [0.07362265139818192, 1.8411885499954224, -0.7775630354881287, -73.54478454589844],
    [0.01224143709987402, 0.7776604294776917, 1.8425781726837158, -74.14212799072266],
    [0.0, 0.0, 0.0, 1.0]
],
  "dcmmeta_reorient_transform": [
    [0.0, -1.0, 0.0, 103.0],
    [1.0, 0.0, 0.0, 0.0],
    [0.0, 0.0, 1.0, 0.0],
    [0.0, 0.0, 0.0, 1.0]
],
  "dcmmeta_shape": [104, 104, 60, 592],
  "dcmmeta_slice_dim": 2,
  "dcmmeta_version": 0.6,
  "global": {
    "const": {
      "AcquisitionMatrix": [104, 0, 0, 104],
      "AngioFlag": "N",
      "BitsAllocated": 16,
      "BitsStored": 16,
      "BodyPartExamined": "BRAIN",
      "Columns": 832,
      "EchoNumbers": 1,
      "EchoTime": 37.0,
      "EchoTrainLength": 104,
      "FlipAngle": 52.0,
      "HighBit": 15,
      "ImageOrientationPatient": [0.99930348905312, -0.036811323925, 0.00612071867847, 0.03629349379428, 0.92059429047626, -0.3888302131403],
      "ImagePositionPatient": [-860.12197916442, -759.4916399016, 284.56940498306],
      "ImageType": [
        "ORIGINAL",
        "PRIMARY",
        "M",
        "MB",
        "ND",
        "MOSAIC"
],
      "ImagedNucleus": "1H",
      "ImagingFrequency": 123.259123,
      "InPlanePhaseEncodingDirection": "COL",
      "MRAcquisitionType": "2D",
      "MagneticFieldStrength": 3.0,
      "Manufacturer": "SIEMENS",
      "ManufacturerModelName": "Prisma_fit",
      "Modality": "MR",
      "NumberOfAverages": 1.0,
      "NumberOfPhaseEncodingSteps": 104,
      "PercentPhaseFieldOfView": 100.0,
      "PercentSampling": 100.0,
      "PerformedProcedureStepStartTime": "143145.748000",
      "PhotometricInterpretation": "MONOCHROME2",
      "PixelBandwidth": 2290.0,
      "PixelRepresentation": 0,
      "PixelSpacing": [2.0, 2.0],
      "ProtocolName": "func_task-friends-s01e06a",
      "RepetitionTime": 1490.0,
      "Rows": 832,
      "SAR": 0.02581107045835,
      "SamplesPerPixel": 1,
      "ScanOptions": "FS",
      "ScanningSequence": "EP",
      "SequenceName": "epfid2d1_104",
      "SequenceVariant": [
        "SK",
        "SS"
],
      "SeriesDescription": "func_task-friends-s01e06a",
      "SeriesNumber": 8,
      "SeriesTime": "144701.097000",
      "SliceLocation": -40.570335024526,
      "SliceThickness": 2.0,
      "SmallestImagePixelValue": 0,
      "SoftwareVersions": "syngo MR E11",
      "SpacingBetweenSlices": 1.9999999829267,
      "SpecificCharacterSet": "ISO_IR 100",
      "StudyID": "1",
      "StudyTime": "143145.676000",
      "TransmitCoilName": "Body",
      "VariableFlipAngleFlag": "N",
      "WindowCenterWidthExplanation": "Algo1",
      "dBdt": 0.0},
    "slices": {}
  },
  "time": {
    "samples": {
      "AcquisitionNumber": [1, 2, 3, 4, 5, 6, 7, 8, 9, 10, 11, 12, 13, 14, 15, 16, 17, 18, 19, 20, 21, 22, 23, 24, 25, 26, 27, 28, 29, 30, 31, 32, 33, 34, 35, 36, 37, 38, 39, 40, 41, 42, 43, 44, 45, 46, 47, 48, 49, 50, 51, 52, 53, 54, 55, 56, 57, 58, 59, 60, 61, 62, 63, 64, 65, 66, 67, 68, 69, 70, 71, 72, 73, 74, 75, 76, 77, 78, 79, 80, 81, 82, 83, 84, 85, 86, 87, 88, 89, 90, 91, 92, 93, 94, 95, 96, 97, 98, 99, 100, 101, 102, 103, 104, 105, 106, 107, 108, 109, 110, 111, 112, 113, 114, 115, 116, 117, 118, 119, 120, 121, 122, 123, 124, 125, 126, 127, 128, 129, 130, 131, 132, 133, 134, 135, 136, 137, 138, 139, 140, 141, 142, 143, 144, 145, 146, 147, 148, 149, 150, 151, 152, 153, 154, 155, 156, 157, 158, 159, 160, 161, 162, 163, 164, 165, 166, 167, 168, 169, 170, 171, 172, 173, 174, 175, 176, 177, 178, 179, 180, 181, 182, 183, 184, 185, 186, 187, 188, 189, 190, 191, 192, 193, 194, 195, 196, 197, 198, 199, 200, 201, 202, 203, 204, 205, 206, 207, 208, 209, 210, 211, 212, 213, 214, 215, 216, 217, 218, 219, 220, 221, 222, 223, 224, 225, 226, 227, 228, 229, 230, 231, 232, 233, 234, 235, 236, 237, 238, 239, 240, 241, 242, 243, 244, 245, 246, 247, 248, 249, 250, 251, 252, 253, 254, 255, 256, 257, 258, 259, 260, 261, 262, 263, 264, 265, 266, 267, 268, 269, 270, 271, 272, 273, 274, 275, 276, 277, 278, 279, 280, 281, 282, 283, 284, 285, 286, 287, 288, 289, 290, 291, 292, 293, 294, 295, 296, 297, 298, 299, 300, 301, 302, 303, 304, 305, 306, 307, 308, 309, 310, 311, 312, 313, 314, 315, 316, 317, 318, 319, 320, 321, 322, 323, 324, 325, 326, 327, 328, 329, 330, 331, 332, 333, 334, 335, 336, 337, 338, 339, 340, 341, 342, 343, 344, 345, 346, 347, 348, 349, 350, 351, 352, 353, 354, 355, 356, 357, 358, 359, 360, 361, 362, 363, 364, 365, 366, 367, 368, 369, 370, 371, 372, 373, 374, 375, 376, 377, 378, 379, 380, 381, 382, 383, 384, 385, 386, 387, 388, 389, 390, 391, 392, 393, 394, 395, 396, 397, 398, 399, 400, 401, 402, 403, 404, 405, 406, 407, 408, 409, 410, 411, 412, 413, 414, 415, 416, 417, 418, 419, 420, 421, 422, 423, 424, 425, 426, 427, 428, 429, 430, 431, 432, 433, 434, 435, 436, 437, 438, 439, 440, 441, 442, 443, 444, 445, 446, 447, 448, 449, 450, 451, 452, 453, 454, 455, 456, 457, 458, 459, 460, 461, 462, 463, 464, 465, 466, 467, 468, 469, 470, 471, 472, 473, 474, 475, 476, 477, 478, 479, 480, 481, 482, 483, 484, 485, 486, 487, 488, 489, 490, 491, 492, 493, 494, 495, 496, 497, 498, 499, 500, 501, 502, 503, 504, 505, 506, 507, 508, 509, 510, 511, 512, 513, 514, 515, 516, 517, 518, 519, 520, 521, 522, 523, 524, 525, 526, 527, 528, 529, 530, 531, 532, 533, 534, 535, 536, 537, 538, 539, 540, 541, 542, 543, 544, 545, 546, 547, 548, 549, 550, 551, 552, 553, 554, 555, 556, 557, 558, 559, 560, 561, 562, 563, 564, 565, 566, 567, 568, 569, 570, 571, 572, 573, 574, 575, 576, 577, 578, 579, 580, 581, 582, 583, 584, 585, 586, 587, 588, 589, 590, 591, 592],
      "AcquisitionTime": ["144523.490000", "144524.980000", "144526.470000", "144527.960000", "144529.450000", "144530.940000", "144532.430000", "144533.920000", "144535.410000", "144536.900000", "144538.390000", "144539.880000", "144541.370000", "144542.860000", "144544.350000", "144545.840000", "144547.330000", "144548.820000", "144550.310000", "144551.800000", "144553.290000", "144554.780000", "144556.270000", "144557.760000", "144559.250000", "144600.740000", "144602.230000", "144603.720000", "144605.210000", "144606.700000", "144608.190000", "144609.680000", "144611.170000", "144612.660000", "144614.150000", "144615.640000", "144617.130000", "144618.620000", "144620.110000", "144621.600000", "144623.090000", "144624.580000", "144626.070000", "144627.560000", "144629.050000", "144630.540000", "144632.030000", "144633.520000", "144635.010000", "144636.500000", "144637.990000", "144639.480000", "144640.970000", "144642.460000", "144643.950000", "144645.440000", "144646.930000", "144648.420000", "144649.910000", "144651.400000", "144652.890000", "144654.380000", "144655.870000", "144657.360000", "144658.850000", "144700.340000", "144701.830000", "144703.320000", "144704.810000", "144706.300000", "144707.790000", "144709.280000", "144710.770000", "144712.260000", "144713.750000", "144715.240000", "144716.730000", "144718.220000", "144719.710000", "144721.200000", "144722.690000", "144724.180000", "144725.670000", "144727.160000", "144728.650000", "144730.140000", "144731.630000", "144733.120000", "144734.610000", "144736.100000", "144737.590000", "144739.080000", "144740.570000", "144742.060000", "144743.550000", "144745.040000", "144746.530000", "144748.020000", "144749.510000", "144751.000000", "144752.490000", "144753.980000", "144755.470000", "144756.960000", "144758.450000", "144759.940000", "144801.430000", "144802.920000", "144804.410000", "144805.900000", "144807.390000", "144808.880000", "144810.370000", "144811.860000", "144813.350000", "144814.840000", "144816.330000", "144817.820000", "144819.310000", "144820.800000", "144822.290000", "144823.780000", "144825.270000", "144826.760000", "144828.250000", "144829.740000", "144831.230000", "144832.720000", "144834.210000", "144835.700000", "144837.190000", "144838.680000", "144840.170000", "144841.660000", "144843.150000", "144844.640000", "144846.130000", "144847.620000", "144849.110000", "144850.600000", "144852.090000", "144853.580000", "144855.070000", "144856.560000", "144858.050000", "144859.540000", "144901.030000", "144902.520000", "144904.010000", "144905.500000", "144906.990000", "144908.480000", "144909.970000", "144911.460000", "144912.950000", "144914.440000", "144915.930000", "144917.420000", "144918.910000", "144920.400000", "144921.890000", "144923.380000", "144924.870000", "144926.360000", "144927.850000", "144929.340000", "144930.830000", "144932.320000", "144933.810000", "144935.300000", "144936.790000", "144938.280000", "144939.770000", "144941.260000", "144942.750000", "144944.240000", "144945.730000", "144947.220000", "144948.710000", "144950.200000", "144951.690000", "144953.180000", "144954.670000", "144956.160000", "144957.650000", "144959.140000", "145000.630000", "145002.120000", "145003.610000", "145005.100000", "145006.590000", "145008.080000", "145009.570000", "145011.060000", "145012.550000", "145014.040000", "145015.530000", "145017.020000", "145018.510000", "145020.000000", "145021.490000", "145022.980000", "145024.470000", "145025.960000", "145027.450000", "145028.940000", "145030.430000", "145031.920000", "145033.410000", "145034.900000", "145036.390000", "145037.880000", "145039.370000", "145040.860000", "145042.350000", "145043.840000", "145045.330000", "145046.820000", "145048.310000", "145049.800000", "145051.290000", "145052.780000", "145054.270000", "145055.760000", "145057.250000", "145058.740000", "145100.230000", "145101.720000", "145103.210000", "145104.700000", "145106.190000", "145107.680000", "145109.170000", "145110.660000", "145112.150000", "145113.640000", "145115.130000", "145116.620000", "145118.110000", "145119.600000", "145121.090000", "145122.580000", "145124.070000", "145125.560000", "145127.050000", "145128.540000", "145130.030000", "145131.520000", "145133.010000", "145134.500000", "145135.990000", "145137.480000", "145138.970000", "145140.460000", "145141.950000", "145143.440000", "145144.930000", "145146.420000", "145147.910000", "145149.400000", "145150.890000", "145152.380000", "145153.870000", "145155.360000", "145156.850000", "145158.340000", "145159.830000", "145201.320000", "145202.810000", "145204.300000", "145205.790000", "145207.280000", "145208.770000", "145210.260000", "145211.750000", "145213.240000", "145214.730000", "145216.220000", "145217.710000", "145219.200000", "145220.690000", "145222.180000", "145223.670000", "145225.160000", "145226.650000", "145228.140000", "145229.630000", "145231.120000", "145232.610000", "145234.100000", "145235.590000", "145237.080000", "145238.570000", "145240.060000", "145241.550000", "145243.040000", "145244.530000", "145246.020000", "145247.510000", "145249.000000", "145250.490000", "145251.980000", "145253.470000", "145254.960000", "145256.450000", "145257.940000", "145259.430000", "145300.920000", "145302.410000", "145303.900000", "145305.390000", "145306.880000", "145308.370000", "145309.860000", "145311.350000", "145312.840000", "145314.330000", "145315.820000", "145317.310000", "145318.800000", "145320.290000", "145321.780000", "145323.270000", "145324.760000", "145326.250000", "145327.740000", "145329.230000", "145330.720000", "145332.210000", "145333.700000", "145335.190000", "145336.680000", "145338.170000", "145339.660000", "145341.150000", "145342.640000", "145344.130000", "145345.620000", "145347.110000", "145348.600000", "145350.090000", "145351.580000", "145353.070000", "145354.560000", "145356.050000", "145357.540000", "145359.030000", "145400.520000", "145402.010000", "145403.500000", "145404.990000", "145406.480000", "145407.970000", "145409.460000", "145410.950000", "145412.440000", "145413.930000", "145415.420000", "145416.910000", "145418.400000", "145419.890000", "145421.380000", "145422.870000", "145424.360000", "145425.850000", "145427.340000", "145428.830000", "145430.320000", "145431.810000", "145433.300000", "145434.790000", "145436.280000", "145437.770000", "145439.260000", "145440.750000", "145442.240000", "145443.730000", "145445.220000", "145446.710000", "145448.200000", "145449.690000", "145451.180000", "145452.670000", "145454.160000", "145455.650000", "145457.140000", "145458.630000", "145500.120000", "145501.610000", "145503.100000", "145504.590000", "145506.080000", "145507.570000", "145509.060000", "145510.550000", "145512.040000", "145513.530000", "145515.020000", "145516.510000", "145518.000000", "145519.490000", "145520.980000", "145522.470000", "145523.960000", "145525.450000", "145526.940000", "145528.430000", "145529.920000", "145531.410000", "145532.900000", "145534.390000", "145535.880000", "145537.370000", "145538.860000", "145540.350000", "145541.840000", "145543.330000", "145544.820000", "145546.310000", "145547.800000", "145549.290000", "145550.780000", "145552.270000", "145553.760000", "145555.250000", "145556.740000", "145558.230000", "145559.720000", "145601.210000", "145602.700000", "145604.190000", "145605.680000", "145607.170000", "145608.660000", "145610.150000", "145611.640000", "145613.130000", "145614.620000", "145616.110000", "145617.600000", "145619.090000", "145620.580000", "145622.070000", "145623.560000", "145625.050000", "145626.540000", "145628.030000", "145629.520000", "145631.010000", "145632.500000", "145633.990000", "145635.480000", "145636.970000", "145638.460000", "145639.950000", "145641.440000", "145642.930000", "145644.420000", "145645.910000", "145647.400000", "145648.890000", "145650.380000", "145651.870000", "145653.360000", "145654.850000", "145656.340000", "145657.830000", "145659.320000", "145700.810000", "145702.300000", "145703.790000", "145705.280000", "145706.770000", "145708.260000", "145709.750000", "145711.240000", "145712.730000", "145714.220000", "145715.710000", "145717.200000", "145718.690000", "145720.180000", "145721.670000", "145723.160000", "145724.650000", "145726.140000", "145727.630000", "145729.120000", "145730.610000", "145732.100000", "145733.590000", "145735.080000", "145736.570000", "145738.060000", "145739.550000", "145741.040000", "145742.530000", "145744.020000", "145745.510000", "145747.000000", "145748.490000", "145749.980000", "145751.470000", "145752.960000", "145754.450000", "145755.940000", "145757.430000", "145758.920000", "145800.410000", "145801.900000", "145803.390000", "145804.880000", "145806.370000", "145807.860000", "145809.350000", "145810.840000", "145812.330000", "145813.820000", "145815.310000", "145816.800000", "145818.290000", "145819.780000", "145821.270000", "145822.760000", "145824.250000", "145825.740000", "145827.230000", "145828.720000", "145830.210000", "145831.700000", "145833.190000", "145834.680000", "145836.170000", "145837.660000", "145839.150000", "145840.640000", "145842.130000", "145843.620000", "145845.110000", "145846.600000", "145848.090000", "145849.580000", "145851.070000", "145852.560000", "145854.050000", "145855.540000", "145857.030000", "145858.520000", "145900.010000", "145901.500000", "145902.990000", "145904.480000", "145905.970000", "145907.460000", "145908.950000", "145910.440000", "145911.930000", "145913.420000", "145914.910000", "145916.400000", "145917.890000", "145919.380000", "145920.870000", "145922.360000", "145923.850000", "145925.340000", "145926.830000", "145928.320000", "145929.810000", "145931.300000", "145932.790000", "145934.280000", "145935.770000", "145937.260000", "145938.750000", "145940.240000", "145941.730000", "145943.220000", "145944.710000", "145946.200000", "145947.690000", "145949.180000", "145950.670000", "145952.160000", "145953.650000", "145955.140000", "145956.630000", "145958.120000", "145959.610000", "150001.100000", "150002.590000", "150004.080000"],
      "ContentTime": ["144701.099000", "144701.103000", "144701.109000", "144701.112000", "144701.115000", "144701.121000", "144701.130000", "144701.133000", "144701.136000", "144701.139000", "144701.142000", "144701.145000", "144701.148000", "144701.151000", "144701.154000", "144701.156000", "144701.159000", "144701.162000", "144701.165000", "144701.168000", "144701.171000", "144701.174000", "144701.177000", "144701.180000", "144701.183000", "144701.186000", "144701.189000", "144721.055000", "144721.058000", "144721.061000", "144721.064000", "144721.067000", "144721.070000", "144721.073000", "144721.076000", "144721.079000", "144721.082000", "144721.085000", "144721.090000", "144721.093000", "144721.096000", "144721.099000", "144721.102000", "144721.104000", "144721.107000", "144721.110000", "144721.113000", "144741.055000", "144741.058000", "144741.061000", "144741.064000", "144741.067000", "144741.070000", "144741.073000", "144741.075000", "144741.078000", "144741.081000", "144741.084000", "144741.087000", "144741.090000", "144741.093000", "144741.096000", "144741.099000", "144741.102000", "144741.105000", "144741.107000", "144741.110000", "144801.055000", "144801.058000", "144801.061000", "144801.070000", "144801.073000", "144801.076000", "144801.079000", "144801.082000", "144801.085000", "144801.088000", "144801.090000", "144801.093000", "144801.096000", "144801.099000", "144801.102000", "144801.105000", "144801.108000", "144801.111000", "144801.114000", "144801.117000", "144821.055000", "144821.058000", "144821.061000", "144821.064000", "144821.067000", "144821.070000", "144821.073000", "144821.075000", "144821.078000", "144821.081000", "144821.084000", "144821.087000", "144821.090000", "144821.093000", "144821.096000", "144821.099000", "144821.102000", "144821.106000", "144821.109000", "144821.112000", "144821.120000", "144841.054000", "144841.057000", "144841.060000", "144841.068000", "144841.071000", "144841.074000", "144841.077000", "144841.080000", "144841.083000", "144841.086000", "144841.089000", "144841.092000", "144841.095000", "144841.098000", "144841.101000", "144841.104000", "144841.107000", "144841.110000", "144841.113000", "144841.116000", "144901.054000", "144901.058000", "144901.061000", "144901.064000", "144901.068000", "144901.071000", "144901.075000", "144901.078000", "144901.082000", "144901.085000", "144901.089000", "144901.092000", "144901.100000", "144901.103000", "144901.106000", "144901.110000", "144901.113000", "144941.055000", "144941.058000", "144941.061000", "144941.064000", "144941.067000", "144941.070000", "144941.073000", "144941.076000", "144941.078000", "144941.081000", "144941.084000", "144941.087000", "144941.090000", "144941.093000", "144941.096000", "144941.099000", "144941.102000", "144941.105000", "144941.108000", "144941.110000", "144941.113000", "144941.116000", "144941.119000", "144941.122000", "144941.125000", "144941.128000", "144941.131000", "145021.055000", "145021.058000", "145021.061000", "145021.064000", "145021.067000", "145021.070000", "145021.073000", "145021.076000", "145021.078000", "145021.081000", "145021.084000", "145021.087000", "145021.090000", "145021.093000", "145021.096000", "145021.099000", "145021.102000", "145021.105000", "145021.108000", "145021.114000", "145021.117000", "145021.120000", "145021.123000", "145021.126000", "145021.129000", "145021.132000", "145021.135000", "145101.054000", "145101.062000", "145101.065000", "145101.068000", "145101.071000", "145101.074000", "145101.077000", "145101.080000", "145101.083000", "145101.086000", "145101.089000", "145101.091000", "145101.094000", "145101.097000", "145101.100000", "145101.103000", "145101.106000", "145101.109000", "145101.112000", "145101.115000", "145101.118000", "145101.121000", "145101.123000", "145101.126000", "145101.129000", "145101.132000", "145101.135000", "145141.055000", "145141.058000", "145141.061000", "145141.064000", "145141.067000", "145141.070000", "145141.073000", "145141.076000", "145141.079000", "145141.082000", "145141.085000", "145141.088000", "145141.090000", "145141.093000", "145141.096000", "145141.099000", "145141.102000", "145141.105000", "145141.108000", "145141.111000", "145141.114000", "145141.117000", "145141.120000", "145141.123000", "145141.126000", "145141.129000", "145141.131000", "145221.055000", "145221.058000", "145221.061000", "145221.064000", "145221.067000", "145221.070000", "145221.073000", "145221.076000", "145221.079000", "145221.082000", "145221.085000", "145221.088000", "145221.091000", "145221.093000", "145221.096000", "145221.099000", "145221.102000", "145221.105000", "145221.108000", "145221.111000", "145221.114000", "145221.117000", "145221.120000", "145221.123000", "145221.126000", "145221.130000", "145301.055000", "145301.058000", "145301.078000", "145301.081000", "145301.084000", "145301.087000", "145301.090000", "145301.093000", "145301.096000", "145301.099000", "145301.102000", "145301.105000", "145301.107000", "145301.110000", "145301.113000", "145301.116000", "145301.119000", "145301.122000", "145301.125000", "145301.128000", "145301.131000", "145301.134000", "145301.137000", "145301.140000", "145301.143000", "145301.146000", "145301.149000", "145341.054000", "145341.057000", "145341.060000", "145341.063000", "145341.066000", "145341.069000", "145341.072000", "145341.075000", "145341.078000", "145341.085000", "145341.088000", "145341.091000", "145341.094000", "145341.097000", "145341.100000", "145341.103000", "145341.105000", "145341.108000", "145341.111000", "145341.114000", "145341.117000", "145341.120000", "145341.123000", "145341.126000", "145341.129000", "145341.132000", "145341.135000", "145421.055000", "145421.058000", "145421.061000", "145421.064000", "145421.067000", "145421.070000", "145421.073000", "145421.076000", "145421.079000", "145421.082000", "145421.085000", "145421.088000", "145421.090000", "145421.093000", "145421.096000", "145421.099000", "145421.102000", "145421.105000", "145421.108000", "145421.111000", "145421.114000", "145421.125000", "145421.128000", "145421.131000", "145421.134000", "145421.137000", "145421.140000", "145501.055000", "145501.058000", "145501.061000", "145501.064000", "145501.067000", "145501.070000", "145501.073000", "145501.076000", "145501.079000", "145501.082000", "145501.085000", "145501.088000", "145501.091000", "145501.094000", "145501.097000", "145501.100000", "145501.103000", "145501.105000", "145501.108000", "145501.111000", "145501.114000", "145501.117000", "145501.120000", "145501.123000", "145501.126000", "145501.129000", "145501.132000", "145541.054000", "145541.057000", "145541.060000", "145541.063000", "145541.066000", "145541.069000", "145541.072000", "145541.075000", "145541.078000", "145541.081000", "145541.084000", "145541.087000", "145541.090000", "145541.092000", "145541.095000", "145541.099000", "145541.101000", "145541.104000", "145541.107000", "145541.110000", "145541.113000", "145541.116000", "145541.119000", "145541.122000", "145541.125000", "145541.128000", "145541.131000", "145621.055000", "145621.058000", "145621.061000", "145621.064000", "145621.067000", "145621.070000", "145621.073000", "145621.076000", "145621.079000", "145621.082000", "145621.085000", "145621.088000", "145621.091000", "145621.094000", "145621.097000", "145621.100000", "145621.103000", "145621.105000", "145621.108000", "145621.111000", "145621.114000", "145621.117000", "145621.120000", "145621.123000", "145621.126000", "145621.129000", "145621.132000", "145701.055000", "145701.058000", "145701.061000", "145701.064000", "145701.067000", "145701.070000", "145701.073000", "145701.076000", "145701.079000", "145701.082000", "145701.085000", "145701.088000", "145701.091000", "145701.094000", "145701.097000", "145701.100000", "145701.103000", "145701.107000", "145701.110000", "145701.113000", "145701.116000", "145701.119000", "145701.122000", "145701.125000", "145701.128000", "145701.131000", "145741.055000", "145741.058000", "145741.061000", "145741.064000", "145741.067000", "145741.070000", "145741.081000", "145741.084000", "145741.087000", "145741.090000", "145741.093000", "145741.096000", "145741.099000", "145741.102000", "145741.105000", "145741.108000", "145741.111000", "145741.114000", "145741.117000", "145741.120000", "145741.123000", "145741.125000", "145741.128000", "145741.131000", "145741.134000", "145741.137000", "145741.140000", "145821.054000", "145821.057000", "145821.060000", "145821.063000", "145821.066000", "145821.069000", "145821.072000", "145821.075000", "145821.078000", "145821.081000", "145821.084000", "145821.087000", "145821.090000", "145821.092000", "145821.095000", "145821.098000", "145821.101000", "145821.104000", "145821.107000", "145821.110000", "145821.113000", "145821.116000", "145821.119000", "145821.122000", "145821.125000", "145821.128000", "145821.131000", "145901.055000", "145901.058000", "145901.061000", "145901.065000", "145901.068000", "145901.071000", "145901.074000", "145901.077000", "145901.080000", "145901.082000", "145901.086000", "145901.089000", "145901.092000", "145901.095000", "145901.097000", "145901.101000", "145901.104000", "145901.107000", "145901.109000", "145901.112000", "145901.115000", "145901.118000", "145901.121000", "145901.124000", "145901.127000", "145901.130000", "145901.133000", "145941.055000", "145941.058000", "145941.061000", "145941.064000", "145941.067000", "145941.070000", "145941.073000", "145941.076000", "145941.079000", "145941.082000", "145941.085000", "145941.088000", "145941.091000", "145941.094000", "145941.096000", "145941.099000", "145941.102000", "145941.105000", "145941.108000", "145941.111000", "145941.114000", "145941.117000", "145941.120000", "145941.123000", "145941.126000", "145941.129000", "145941.132000", "150006.065000", "150006.069000", "150006.072000", "150006.075000", "150006.078000", "150006.081000", "150006.084000", "150006.087000", "150006.090000", "150006.093000", "150006.096000", "150006.099000", "150006.102000", "150006.105000", "150006.108000", "150006.111000", "150006.114000"],
