{
  "AcquisitionMatrixPE": 104,
  "AcquisitionNumber": 1,
  "AcquisitionTime": "16:11:55.882500",
  "BandwidthPerPixelPhaseEncode": 17.17,
  "BaseResolution": 104,
  "BodyPartExamined": "BRAIN",
  "CoilString": "HC1-7;NC1_2",
  "ConsistencyInfo": "N4_VE11C_LATEST_20160120",
  "ConversionSoftware": "dcm2niix",
  "ConversionSoftwareVersion": "v1.0.20190902",
  "DerivedVendorReportedEchoSpacing": 0.000560011,
  "DeviceSerialNumber": "167006",
  "DwellTime": 2.1e-06,
  "EchoTime": 0.037,
  "EchoTrainLength": 104,
  "EffectiveEchoSpacing": 0.000560011,
  "FlipAngle": 52,
  "ImageComments": "Unaliased_MB4_PE3_LB",
  "ImageOrientationPatientDICOM": [0.999303, -0.0368113, 0.00612072, 0.0362935, 0.920594, -0.38883],
  "ImageType": [
    "ORIGINAL",
    "PRIMARY",
    "M",
    "MB",
    "ND",
    "MOSAIC"
],
  "ImagingFrequency": 123.259,
  "InPlanePhaseEncodingDirectionDICOM": "COL",
  "InstitutionAddress": "Chemin_Queen-Mary_4565_Montreal_District_CA_H3W_1W5",
  "InstitutionName": "IUGM",
  "InstitutionalDepartmentName": "Department",
  "MRAcquisitionType": "2D",
  "MagneticFieldStrength": 3,
  "Manufacturer": "Siemens",
  "ManufacturersModelName": "Prisma_fit",
  "Modality": "MR",
  "MultibandAccelerationFactor": 4,
  "PartialFourier": 1,
  "PatientPosition": "HFS",
  "PercentPhaseFOV": 100,
  "PhaseEncodingDirection": "j",
  "PhaseEncodingSteps": 104,
  "PhaseResolution": 1,
  "PixelBandwidth": 2290,
  "ProcedureStepDescription": "video_friends",
  "ProtocolName": "func_task-friends-s01e09a",
  "PulseSequenceDetails": "%CustomerSeq%_cmrr_mbep2d_bold",
  "ReceiveCoilActiveElements": "HC1-7;NC1,2",
  "ReceiveCoilName": "HeadNeck_64",
  "ReconMatrixPE": 104,
  "RepetitionTime": 1.49,
  "SAR": 0.0257882,
  "ScanOptions": "FS",
  "ScanningSequence": "EP",
  "SequenceName": "epfid2d1_104",
  "SequenceVariant": "SK_SS",
  "SeriesDescription": "func_task-friends-s01e09a",
  "SeriesNumber": 20,
  "ShimSetting": [635, -7256, -8843, 587, 48, -259, -95, -5],
  "SliceThickness": 2,
  "SliceTiming": [0, 0.7825, 0.0975, 0.8825, 0.195, 0.98, 0.2925, 1.0775, 0.3925, 1.175, 0.49, 1.2725, 0.5875, 1.37, 0.685, 0, 0.7825, 0.0975, 0.8825, 0.195, 0.98, 0.2925, 1.0775, 0.3925, 1.175, 0.49, 1.2725, 0.5875, 1.37, 0.685, 0, 0.7825, 0.0975, 0.8825, 0.195, 0.98, 0.2925, 1.0775, 0.3925, 1.175, 0.49, 1.2725, 0.5875, 1.37, 0.685, 0, 0.7825, 0.0975, 0.8825, 0.195, 0.98, 0.2925, 1.0775, 0.3925, 1.175, 0.49, 1.2725, 0.5875, 1.37, 0.685],
  "SoftwareVersions": "syngo_MR_E11",
  "SpacingBetweenSlices": 2,
  "StationName": "MRC35049",
  "TaskName": "s01e09a",
  "TotalReadoutTime": 0.0576811,
  "TxRefAmp": 216.899,
  "WipMemBlock": "5dc6f560-f285-4eb8-974e-c4daea9e899b||Sequence: R016 ve11c/master r/e634e98; Dec 19 2017 11:00:25 by eja",
  "dcmmeta_affine": [
    [-1.9986069202423096, 0.07258699089288712, -0.01735731214284897, 98.73091888427734],
    [0.07362265139818192, 1.8411885499954224, -0.7775630354881287, -73.54478454589844],
    [0.01224143709987402, 0.7776604294776917, 1.8425781726837158, -74.14212799072266],
    [0.0, 0.0, 0.0, 1.0]
],
  "dcmmeta_reorient_transform": [
    [0.0, -1.0, 0.0, 103.0],
    [1.0, 0.0, 0.0, 0.0],
    [0.0, 0.0, 1.0, 0.0],
    [0.0, 0.0, 0.0, 1.0]
],
  "dcmmeta_shape": [104, 104, 60, 468],
  "dcmmeta_slice_dim": 2,
  "dcmmeta_version": 0.6,
  "global": {
    "const": {
      "AcquisitionMatrix": [104, 0, 0, 104],
      "AngioFlag": "N",
      "BitsAllocated": 16,
      "BitsStored": 16,
      "BodyPartExamined": "BRAIN",
      "Columns": 832,
      "EchoNumbers": 1,
      "EchoTime": 37.0,
      "EchoTrainLength": 104,
      "FlipAngle": 52.0,
      "HighBit": 15,
      "ImageOrientationPatient": [0.99930348905312, -0.036811323925, 0.00612071867847, 0.03629349379428, 0.92059429047626, -0.3888302131403],
      "ImagePositionPatient": [-860.12197916442, -759.4916399016, 284.56940498306],
      "ImageType": [
        "ORIGINAL",
        "PRIMARY",
        "M",
        "MB",
        "ND",
        "MOSAIC"
],
      "ImagedNucleus": "1H",
      "ImagingFrequency": 123.259148,
      "InPlanePhaseEncodingDirection": "COL",
      "MRAcquisitionType": "2D",
      "MagneticFieldStrength": 3.0,
      "Manufacturer": "SIEMENS",
      "ManufacturerModelName": "Prisma_fit",
      "Modality": "MR",
      "NumberOfAverages": 1.0,
      "NumberOfPhaseEncodingSteps": 104,
      "PercentPhaseFieldOfView": 100.0,
      "PercentSampling": 100.0,
      "PerformedProcedureStepStartTime": "143145.748000",
      "PhotometricInterpretation": "MONOCHROME2",
      "PixelBandwidth": 2290.0,
      "PixelRepresentation": 0,
      "PixelSpacing": [2.0, 2.0],
      "ProtocolName": "func_task-friends-s01e09a",
      "RepetitionTime": 1490.0,
      "Rows": 832,
      "SAR": 0.02578820107481,
      "SamplesPerPixel": 1,
      "ScanOptions": "FS",
      "ScanningSequence": "EP",
      "SequenceName": "epfid2d1_104",
      "SequenceVariant": [
        "SK",
        "SS"
],
      "SeriesDescription": "func_task-friends-s01e09a",
      "SeriesNumber": 20,
      "SeriesTime": "161321.090000",
      "SliceLocation": -40.570335024526,
      "SliceThickness": 2.0,
      "SmallestImagePixelValue": 0,
      "SoftwareVersions": "syngo MR E11",
      "SpacingBetweenSlices": 1.9999999829267,
      "SpecificCharacterSet": "ISO_IR 100",
      "StudyID": "1",
      "StudyTime": "143145.676000",
      "TransmitCoilName": "Body",
      "VariableFlipAngleFlag": "N",
      "WindowCenterWidthExplanation": "Algo1",
      "dBdt": 0.0},
    "slices": {}
  },
  "time": {
    "samples": {
      "AcquisitionNumber": [1, 2, 3, 4, 5, 6, 7, 8, 9, 10, 11, 12, 13, 14, 15, 16, 17, 18, 19, 20, 21, 22, 23, 24, 25, 26, 27, 28, 29, 30, 31, 32, 33, 34, 35, 36, 37, 38, 39, 40, 41, 42, 43, 44, 45, 46, 47, 48, 49, 50, 51, 52, 53, 54, 55, 56, 57, 58, 59, 60, 61, 62, 63, 64, 65, 66, 67, 68, 69, 70, 71, 72, 73, 74, 75, 76, 77, 78, 79, 80, 81, 82, 83, 84, 85, 86, 87, 88, 89, 90, 91, 92, 93, 94, 95, 96, 97, 98, 99, 100, 101, 102, 103, 104, 105, 106, 107, 108, 109, 110, 111, 112, 113, 114, 115, 116, 117, 118, 119, 120, 121, 122, 123, 124, 125, 126, 127, 128, 129, 130, 131, 132, 133, 134, 135, 136, 137, 138, 139, 140, 141, 142, 143, 144, 145, 146, 147, 148, 149, 150, 151, 152, 153, 154, 155, 156, 157, 158, 159, 160, 161, 162, 163, 164, 165, 166, 167, 168, 169, 170, 171, 172, 173, 174, 175, 176, 177, 178, 179, 180, 181, 182, 183, 184, 185, 186, 187, 188, 189, 190, 191, 192, 193, 194, 195, 196, 197, 198, 199, 200, 201, 202, 203, 204, 205, 206, 207, 208, 209, 210, 211, 212, 213, 214, 215, 216, 217, 218, 219, 220, 221, 222, 223, 224, 225, 226, 227, 228, 229, 230, 231, 232, 233, 234, 235, 236, 237, 238, 239, 240, 241, 242, 243, 244, 245, 246, 247, 248, 249, 250, 251, 252, 253, 254, 255, 256, 257, 258, 259, 260, 261, 262, 263, 264, 265, 266, 267, 268, 269, 270, 271, 272, 273, 274, 275, 276, 277, 278, 279, 280, 281, 282, 283, 284, 285, 286, 287, 288, 289, 290, 291, 292, 293, 294, 295, 296, 297, 298, 299, 300, 301, 302, 303, 304, 305, 306, 307, 308, 309, 310, 311, 312, 313, 314, 315, 316, 317, 318, 319, 320, 321, 322, 323, 324, 325, 326, 327, 328, 329, 330, 331, 332, 333, 334, 335, 336, 337, 338, 339, 340, 341, 342, 343, 344, 345, 346, 347, 348, 349, 350, 351, 352, 353, 354, 355, 356, 357, 358, 359, 360, 361, 362, 363, 364, 365, 366, 367, 368, 369, 370, 371, 372, 373, 374, 375, 376, 377, 378, 379, 380, 381, 382, 383, 384, 385, 386, 387, 388, 389, 390, 391, 392, 393, 394, 395, 396, 397, 398, 399, 400, 401, 402, 403, 404, 405, 406, 407, 408, 409, 410, 411, 412, 413, 414, 415, 416, 417, 418, 419, 420, 421, 422, 423, 424, 425, 426, 427, 428, 429, 430, 431, 432, 433, 434, 435, 436, 437, 438, 439, 440, 441, 442, 443, 444, 445, 446, 447, 448, 449, 450, 451, 452, 453, 454, 455, 456, 457, 458, 459, 460, 461, 462, 463, 464, 465, 466, 467, 468],
      "AcquisitionTime": ["161155.882500", "161157.372500", "161158.862500", "161200.352500", "161201.842500", "161203.332500", "161204.822500", "161206.312500", "161207.802500", "161209.292500", "161210.782500", "161212.272500", "161213.762500", "161215.252500", "161216.742500", "161218.232500", "161219.722500", "161221.212500", "161222.702500", "161224.192500", "161225.682500", "161227.172500", "161228.662500", "161230.152500", "161231.642500", "161233.132500", "161234.622500", "161236.112500", "161237.602500", "161239.092500", "161240.582500", "161242.072500", "161243.562500", "161245.052500", "161246.542500", "161248.032500", "161249.522500", "161251.012500", "161252.502500", "161253.992500", "161255.482500", "161256.972500", "161258.462500", "161259.952500", "161301.442500", "161302.932500", "161304.422500", "161305.912500", "161307.402500", "161308.892500", "161310.382500", "161311.872500", "161313.362500", "161314.852500", "161316.342500", "161317.832500", "161319.322500", "161320.812500", "161322.302500", "161323.792500", "161325.282500", "161326.772500", "161328.262500", "161329.752500", "161331.242500", "161332.732500", "161334.222500", "161335.712500", "161337.202500", "161338.692500", "161340.182500", "161341.672500", "161343.162500", "161344.652500", "161346.142500", "161347.632500", "161349.122500", "161350.612500", "161352.102500", "161353.592500", "161355.082500", "161356.572500", "161358.062500", "161359.552500", "161401.042500", "161402.532500", "161404.022500", "161405.512500", "161407.002500", "161408.492500", "161409.982500", "161411.472500", "161412.962500", "161414.452500", "161415.942500", "161417.432500", "161418.922500", "161420.412500", "161421.902500", "161423.392500", "161424.882500", "161426.372500", "161427.862500", "161429.352500", "161430.842500", "161432.332500", "161433.822500", "161435.312500", "161436.802500", "161438.292500", "161439.782500", "161441.272500", "161442.762500", "161444.252500", "161445.742500", "161447.232500", "161448.722500", "161450.212500", "161451.702500", "161453.192500", "161454.682500", "161456.172500", "161457.662500", "161459.152500", "161500.642500", "161502.132500", "161503.622500", "161505.112500", "161506.602500", "161508.092500", "161509.582500", "161511.072500", "161512.562500", "161514.052500", "161515.542500", "161517.032500", "161518.522500", "161520.012500", "161521.502500", "161522.992500", "161524.482500", "161525.972500", "161527.462500", "161528.952500", "161530.442500", "161531.932500", "161533.422500", "161534.912500", "161536.402500", "161537.892500", "161539.382500", "161540.872500", "161542.362500", "161543.852500", "161545.342500", "161546.832500", "161548.322500", "161549.812500", "161551.302500", "161552.792500", "161554.282500", "161555.772500", "161557.262500", "161558.752500", "161600.242500", "161601.732500", "161603.222500", "161604.712500", "161606.202500", "161607.692500", "161609.182500", "161610.672500", "161612.162500", "161613.652500", "161615.142500", "161616.632500", "161618.122500", "161619.612500", "161621.102500", "161622.592500", "161624.082500", "161625.572500", "161627.062500", "161628.552500", "161630.042500", "161631.532500", "161633.022500", "161634.512500", "161636.002500", "161637.492500", "161638.982500", "161640.472500", "161641.962500", "161643.452500", "161644.942500", "161646.432500", "161647.922500", "161649.412500", "161650.902500", "161652.392500", "161653.882500", "161655.372500", "161656.862500", "161658.352500", "161659.842500", "161701.332500", "161702.822500", "161704.312500", "161705.802500", "161707.292500", "161708.782500", "161710.272500", "161711.762500", "161713.252500", "161714.742500", "161716.232500", "161717.722500", "161719.212500", "161720.702500", "161722.192500", "161723.682500", "161725.172500", "161726.662500", "161728.152500", "161729.642500", "161731.132500", "161732.622500", "161734.112500", "161735.602500", "161737.092500", "161738.582500", "161740.072500", "161741.562500", "161743.052500", "161744.542500", "161746.032500", "161747.522500", "161749.012500", "161750.502500", "161751.992500", "161753.482500", "161754.972500", "161756.462500", "161757.952500", "161759.442500", "161800.932500", "161802.422500", "161803.912500", "161805.402500", "161806.892500", "161808.382500", "161809.872500", "161811.362500", "161812.852500", "161814.342500", "161815.832500", "161817.322500", "161818.812500", "161820.302500", "161821.792500", "161823.282500", "161824.772500", "161826.262500", "161827.752500", "161829.242500", "161830.732500", "161832.222500", "161833.712500", "161835.202500", "161836.692500", "161838.182500", "161839.672500", "161841.162500", "161842.652500", "161844.142500", "161845.632500", "161847.122500", "161848.612500", "161850.102500", "161851.592500", "161853.082500", "161854.572500", "161856.062500", "161857.552500", "161859.042500", "161900.532500", "161902.022500", "161903.512500", "161905.002500", "161906.492500", "161907.982500", "161909.472500", "161910.962500", "161912.452500", "161913.942500", "161915.432500", "161916.922500", "161918.412500", "161919.902500", "161921.392500", "161922.882500", "161924.372500", "161925.862500", "161927.352500", "161928.842500", "161930.332500", "161931.822500", "161933.312500", "161934.802500", "161936.292500", "161937.782500", "161939.272500", "161940.762500", "161942.252500", "161943.742500", "161945.232500", "161946.722500", "161948.212500", "161949.702500", "161951.192500", "161952.682500", "161954.172500", "161955.662500", "161957.152500", "161958.642500", "162000.132500", "162001.622500", "162003.112500", "162004.602500", "162006.092500", "162007.582500", "162009.072500", "162010.562500", "162012.052500", "162013.542500", "162015.032500", "162016.522500", "162018.012500", "162019.502500", "162020.992500", "162022.482500", "162023.972500", "162025.462500", "162026.952500", "162028.442500", "162029.932500", "162031.422500", "162032.912500", "162034.402500", "162035.892500", "162037.382500", "162038.872500", "162040.362500", "162041.852500", "162043.342500", "162044.832500", "162046.322500", "162047.812500", "162049.302500", "162050.792500", "162052.282500", "162053.772500", "162055.262500", "162056.752500", "162058.242500", "162059.732500", "162101.222500", "162102.712500", "162104.202500", "162105.692500", "162107.182500", "162108.672500", "162110.162500", "162111.652500", "162113.142500", "162114.632500", "162116.122500", "162117.612500", "162119.102500", "162120.592500", "162122.082500", "162123.572500", "162125.062500", "162126.552500", "162128.042500", "162129.532500", "162131.022500", "162132.512500", "162134.002500", "162135.492500", "162136.982500", "162138.472500", "162139.962500", "162141.452500", "162142.942500", "162144.432500", "162145.922500", "162147.412500", "162148.902500", "162150.392500", "162151.882500", "162153.372500", "162154.862500", "162156.352500", "162157.842500", "162159.332500", "162200.822500", "162202.312500", "162203.802500", "162205.292500", "162206.782500", "162208.272500", "162209.762500", "162211.252500", "162212.742500", "162214.232500", "162215.722500", "162217.212500", "162218.702500", "162220.192500", "162221.682500", "162223.172500", "162224.662500", "162226.152500", "162227.642500", "162229.132500", "162230.622500", "162232.112500", "162233.602500", "162235.092500", "162236.582500", "162238.072500", "162239.562500", "162241.052500", "162242.542500", "162244.032500", "162245.522500", "162247.012500", "162248.502500", "162249.992500", "162251.482500", "162252.972500", "162254.462500", "162255.952500", "162257.442500", "162258.932500", "162300.422500", "162301.912500", "162303.402500", "162304.892500", "162306.382500", "162307.872500", "162309.362500", "162310.852500", "162312.342500", "162313.832500", "162315.322500", "162316.812500", "162318.302500", "162319.792500", "162321.282500", "162322.772500", "162324.262500", "162325.752500", "162327.242500", "162328.732500", "162330.222500", "162331.712500"],
      "ContentTime": ["161321.092000", "161321.096000", "161321.104000", "161321.107000", "161321.110000", "161321.113000", "161321.116000", "161321.119000", "161321.122000", "161321.125000", "161321.128000", "161321.131000", "161321.134000", "161321.136000", "161321.139000", "161321.156000", "161321.159000", "161321.162000", "161321.165000", "161321.167000", "161321.170000", "161321.173000", "161321.176000", "161321.179000", "161321.182000", "161321.185000", "161321.188000", "161321.191000", "161321.194000", "161321.197000", "161321.200000", "161341.055000", "161341.073000", "161341.075000", "161341.078000", "161341.081000", "161341.084000", "161341.087000", "161341.090000", "161341.093000", "161341.096000", "161341.099000", "161341.102000", "161341.105000", "161341.108000", "161341.111000", "161341.113000", "161341.116000", "161341.119000", "161341.122000", "161341.125000", "161401.055000", "161401.058000", "161401.067000", "161401.070000", "161401.073000", "161401.076000", "161401.079000", "161401.082000", "161401.085000", "161401.088000", "161401.091000", "161401.094000", "161401.097000", "161401.100000", "161401.103000", "161401.106000", "161401.108000", "161401.111000", "161401.114000", "161401.117000", "161401.120000", "161421.054000", "161421.057000", "161421.060000", "161421.063000", "161421.066000", "161421.069000", "161421.072000", "161421.075000", "161421.078000", "161421.081000", "161421.084000", "161421.086000", "161421.089000", "161421.092000", "161421.095000", "161421.098000", "161421.101000", "161421.104000", "161421.107000", "161421.110000", "161501.054000", "161501.057000", "161501.060000", "161501.063000", "161501.066000", "161501.069000", "161501.072000", "161501.075000", "161501.078000", "161501.081000", "161501.084000", "161501.087000", "161501.090000", "161501.093000", "161501.096000", "161501.098000", "161501.101000", "161501.104000", "161501.107000", "161501.110000", "161501.113000", "161501.116000", "161501.119000", "161501.122000", "161501.125000", "161501.128000", "161501.131000", "161501.134000", "161501.137000", "161501.140000", "161501.143000", "161541.055000", "161541.058000", "161541.061000", "161541.064000", "161541.067000", "161541.070000", "161541.073000", "161541.076000", "161541.079000", "161541.082000", "161541.085000", "161541.088000", "161541.091000", "161541.094000", "161541.096000", "161541.099000", "161541.102000", "161541.105000", "161541.108000", "161541.111000", "161541.114000", "161541.117000", "161541.120000", "161541.123000", "161541.126000", "161541.129000", "161541.132000", "161621.055000", "161621.058000", "161621.061000", "161621.064000", "161621.067000", "161621.070000", "161621.073000", "161621.076000", "161621.079000", "161621.082000", "161621.085000", "161621.088000", "161621.091000", "161621.094000", "161621.097000", "161621.100000", "161621.103000", "161621.106000", "161621.108000", "161621.112000", "161621.114000", "161621.117000", "161621.120000", "161621.123000", "161621.126000", "161621.129000", "161621.137000", "161701.054000", "161701.057000", "161701.060000", "161701.064000", "161701.067000", "161701.084000", "161701.087000", "161701.090000", "161701.093000", "161701.096000", "161701.099000", "161701.102000", "161701.105000", "161701.108000", "161701.111000", "161701.114000", "161701.117000", "161701.120000", "161701.123000", "161701.126000", "161701.129000", "161701.132000", "161701.134000", "161701.137000", "161701.140000", "161701.143000", "161701.146000", "161741.055000", "161741.058000", "161741.061000", "161741.064000", "161741.067000", "161741.070000", "161741.073000", "161741.076000", "161741.079000", "161741.082000", "161741.085000", "161741.088000", "161741.091000", "161741.094000", "161741.097000", "161741.100000", "161741.102000", "161741.105000", "161741.108000", "161741.111000", "161741.114000", "161741.117000", "161741.120000", "161741.123000", "161741.126000", "161741.129000", "161741.132000", "161821.055000", "161821.058000", "161821.061000", "161821.064000", "161821.067000", "161821.070000", "161821.073000", "161821.076000", "161821.079000", "161821.082000", "161821.085000", "161821.088000", "161821.091000", "161821.094000", "161821.097000", "161821.100000", "161821.103000", "161821.106000", "161821.108000", "161821.111000", "161821.114000", "161821.117000", "161821.120000", "161821.123000", "161821.126000", "161821.129000", "161821.132000", "161901.054000", "161901.057000", "161901.060000", "161901.063000", "161901.066000", "161901.069000", "161901.072000", "161901.075000", "161901.078000", "161901.081000", "161901.084000", "161901.087000", "161901.090000", "161901.093000", "161901.096000", "161901.099000", "161901.102000", "161901.105000", "161901.108000", "161901.111000", "161901.114000", "161901.117000", "161901.120000", "161901.123000", "161901.126000", "161901.129000", "161941.054000", "161941.057000", "161941.060000", "161941.063000", "161941.066000", "161941.069000", "161941.073000", "161941.076000", "161941.079000", "161941.082000", "161941.085000", "161941.088000", "161941.091000", "161941.094000", "161941.097000", "161941.100000", "161941.103000", "161941.106000", "161941.109000", "161941.112000", "161941.114000", "161941.117000", "161941.120000", "161941.123000", "161941.126000", "161941.129000", "161941.132000", "162021.055000", "162021.058000", "162021.061000", "162021.064000", "162021.067000", "162021.070000", "162021.079000", "162021.082000", "162021.085000", "162021.088000", "162021.091000", "162021.094000", "162021.097000", "162021.100000", "162021.103000", "162021.106000", "162021.109000", "162021.112000", "162021.115000", "162021.118000", "162021.121000", "162021.124000", "162021.127000", "162021.130000", "162021.133000", "162021.136000", "162021.139000", "162101.055000", "162101.058000", "162101.061000", "162101.064000", "162101.067000", "162101.070000", "162101.073000", "162101.076000", "162101.079000", "162101.082000", "162101.085000", "162101.088000", "162101.091000", "162101.094000", "162101.107000", "162101.110000", "162101.113000", "162101.116000", "162101.119000", "162101.122000", "162101.125000", "162101.128000", "162101.131000", "162101.134000", "162101.137000", "162101.140000", "162101.143000", "162141.054000", "162141.057000", "162141.060000", "162141.063000", "162141.066000", "162141.069000", "162141.072000", "162141.075000", "162141.078000", "162141.081000", "162141.084000", "162141.087000", "162141.090000", "162141.093000", "162141.096000", "162141.099000", "162141.102000", "162141.105000", "162141.108000", "162141.111000", "162141.114000", "162141.116000", "162141.119000", "162141.122000", "162141.125000", "162141.128000", "162141.131000", "162221.055000", "162221.058000", "162221.061000", "162221.064000", "162221.067000", "162221.070000", "162221.073000", "162221.076000", "162221.079000", "162221.082000", "162221.085000", "162221.088000", "162221.091000", "162221.094000", "162221.097000", "162221.099000", "162221.102000", "162221.105000", "162221.108000", "162221.111000", "162221.114000", "162221.117000", "162221.120000", "162221.123000", "162221.126000", "162221.129000", "162221.132000", "162301.056000", "162301.061000", "162301.064000", "162301.067000", "162301.071000", "162301.074000", "162301.077000", "162301.080000", "162301.083000", "162301.086000", "162301.089000", "162301.092000", "162301.095000", "162301.098000", "162301.101000", "162301.104000", "162301.107000", "162301.110000", "162301.113000", "162301.116000", "162301.119000", "162301.122000", "162301.125000", "162301.128000", "162301.131000", "162301.134000", "162333.897000", "162333.900000", "162333.903000", "162333.906000", "162333.909000", "162333.912000", "162333.915000", "162333.918000", "162333.921000", "162333.924000", "162333.927000", "162333.930000", "162333.933000", "162333.936000", "162333.939000", "162333.942000", "162333.945000", "162333.948000", "162333.951000", "162333.955000", "162333.958000", "162333.961000", "162333.964000"],
