{
  "AcquisitionMatrixPE": 104,
  "AcquisitionNumber": 1,
  "AcquisitionTime": "15:20:57.527500",
  "BandwidthPerPixelPhaseEncode": 17.17,
  "BaseResolution": 104,
  "BodyPartExamined": "BRAIN",
  "CoilString": "HC1-7;NC1_2",
  "ConsistencyInfo": "N4_VE11C_LATEST_20160120",
  "ConversionSoftware": "dcm2niix",
  "ConversionSoftwareVersion": "v1.0.20190902",
  "DerivedVendorReportedEchoSpacing": 0.000560011,
  "DeviceSerialNumber": "167006",
  "DwellTime": 2.1e-06,
  "EchoTime": 0.037,
  "EchoTrainLength": 104,
  "EffectiveEchoSpacing": 0.000560011,
  "FlipAngle": 52,
  "ImageComments": "Unaliased_MB4_PE3_LB",
  "ImageOrientationPatientDICOM": [0.999303, -0.0368113, 0.00612072, 0.0362935, 0.920594, -0.38883],
  "ImageType": [
    "ORIGINAL",
    "PRIMARY",
    "M",
    "MB",
    "ND",
    "MOSAIC"
],
  "ImagingFrequency": 123.259,
  "InPlanePhaseEncodingDirectionDICOM": "COL",
  "InstitutionAddress": "Chemin_Queen-Mary_4565_Montreal_District_CA_H3W_1W5",
  "InstitutionName": "IUGM",
  "InstitutionalDepartmentName": "Department",
  "MRAcquisitionType": "2D",
  "MagneticFieldStrength": 3,
  "Manufacturer": "Siemens",
  "ManufacturersModelName": "Prisma_fit",
  "Modality": "MR",
  "MultibandAccelerationFactor": 4,
  "PartialFourier": 1,
  "PatientPosition": "HFS",
  "PercentPhaseFOV": 100,
  "PhaseEncodingDirection": "j",
  "PhaseEncodingSteps": 104,
  "PhaseResolution": 1,
  "PixelBandwidth": 2290,
  "ProcedureStepDescription": "video_friends",
  "ProtocolName": "func_task-friends-s01e07a",
  "PulseSequenceDetails": "%CustomerSeq%_cmrr_mbep2d_bold",
  "ReceiveCoilActiveElements": "HC1-7;NC1,2",
  "ReceiveCoilName": "HeadNeck_64",
  "ReconMatrixPE": 104,
  "RepetitionTime": 1.49,
  "SAR": 0.0257937,
  "ScanOptions": "FS",
  "ScanningSequence": "EP",
  "SequenceName": "epfid2d1_104",
  "SequenceVariant": "SK_SS",
  "SeriesDescription": "func_task-friends-s01e07a",
  "SeriesNumber": 12,
  "ShimSetting": [635, -7256, -8843, 587, 48, -259, -95, -5],
  "SliceThickness": 2,
  "SliceTiming": [0, 0.785, 0.1, 0.8825, 0.1975, 0.98, 0.295, 1.08, 0.3925, 1.1775, 0.49, 1.275, 0.59, 1.3725, 0.6875, 0, 0.785, 0.1, 0.8825, 0.1975, 0.98, 0.295, 1.08, 0.3925, 1.1775, 0.49, 1.275, 0.59, 1.3725, 0.6875, 0, 0.785, 0.1, 0.8825, 0.1975, 0.98, 0.295, 1.08, 0.3925, 1.1775, 0.49, 1.275, 0.59, 1.3725, 0.6875, 0, 0.785, 0.1, 0.8825, 0.1975, 0.98, 0.295, 1.08, 0.3925, 1.1775, 0.49, 1.275, 0.59, 1.3725, 0.6875],
  "SoftwareVersions": "syngo_MR_E11",
  "SpacingBetweenSlices": 2,
  "StationName": "MRC35049",
  "TaskName": "s01e07a",
  "TotalReadoutTime": 0.0576811,
  "TxRefAmp": 216.899,
  "WipMemBlock": "c9336306-ce0e-49e2-9167-a944f61bbd79||Sequence: R016 ve11c/master r/e634e98; Dec 19 2017 11:00:25 by eja",
  "dcmmeta_affine": [
    [-1.9986069202423096, 0.07258699089288712, -0.01735731214284897, 98.73091888427734],
    [0.07362265139818192, 1.8411885499954224, -0.7775630354881287, -73.54478454589844],
    [0.01224143709987402, 0.7776604294776917, 1.8425781726837158, -74.14212799072266],
    [0.0, 0.0, 0.0, 1.0]
],
  "dcmmeta_reorient_transform": [
    [0.0, -1.0, 0.0, 103.0],
    [1.0, 0.0, 0.0, 0.0],
    [0.0, 0.0, 1.0, 0.0],
    [0.0, 0.0, 0.0, 1.0]
],
  "dcmmeta_shape": [104, 104, 60, 493],
  "dcmmeta_slice_dim": 2,
  "dcmmeta_version": 0.6,
  "global": {
    "const": {
      "AcquisitionMatrix": [104, 0, 0, 104],
      "AngioFlag": "N",
      "BitsAllocated": 16,
      "BitsStored": 16,
      "BodyPartExamined": "BRAIN",
      "Columns": 832,
      "EchoNumbers": 1,
      "EchoTime": 37.0,
      "EchoTrainLength": 104,
      "FlipAngle": 52.0,
      "HighBit": 15,
      "ImageOrientationPatient": [0.99930348905312, -0.036811323925, 0.00612071867847, 0.03629349379428, 0.92059429047626, -0.3888302131403],
      "ImagePositionPatient": [-860.12197916442, -759.4916399016, 284.56940498306],
      "ImageType": [
        "ORIGINAL",
        "PRIMARY",
        "M",
        "MB",
        "ND",
        "MOSAIC"
],
      "ImagedNucleus": "1H",
      "ImagingFrequency": 123.259134,
      "InPlanePhaseEncodingDirection": "COL",
      "MRAcquisitionType": "2D",
      "MagneticFieldStrength": 3.0,
      "Manufacturer": "SIEMENS",
      "ManufacturerModelName": "Prisma_fit",
      "Modality": "MR",
      "NumberOfAverages": 1.0,
      "NumberOfPhaseEncodingSteps": 104,
      "PercentPhaseFieldOfView": 100.0,
      "PercentSampling": 100.0,
      "PerformedProcedureStepStartTime": "143145.748000",
      "PhotometricInterpretation": "MONOCHROME2",
      "PixelBandwidth": 2290.0,
      "PixelRepresentation": 0,
      "PixelSpacing": [2.0, 2.0],
      "ProtocolName": "func_task-friends-s01e07a",
      "RepetitionTime": 1490.0,
      "Rows": 832,
      "SAR": 0.02579372377728,
      "SamplesPerPixel": 1,
      "ScanOptions": "FS",
      "ScanningSequence": "EP",
      "SequenceName": "epfid2d1_104",
      "SequenceVariant": [
        "SK",
        "SS"
],
      "SeriesDescription": "func_task-friends-s01e07a",
      "SeriesNumber": 12,
      "SeriesTime": "152231.581000",
      "SliceLocation": -40.570335024526,
      "SliceThickness": 2.0,
      "SmallestImagePixelValue": 0,
      "SoftwareVersions": "syngo MR E11",
      "SpacingBetweenSlices": 1.9999999829267,
      "SpecificCharacterSet": "ISO_IR 100",
      "StudyID": "1",
      "StudyTime": "143145.676000",
      "TransmitCoilName": "Body",
      "VariableFlipAngleFlag": "N",
      "WindowCenterWidthExplanation": "Algo1",
      "dBdt": 0.0},
    "slices": {}
  },
  "time": {
    "samples": {
      "AcquisitionNumber": [1, 2, 3, 4, 5, 6, 7, 8, 9, 10, 11, 12, 13, 14, 15, 16, 17, 18, 19, 20, 21, 22, 23, 24, 25, 26, 27, 28, 29, 30, 31, 32, 33, 34, 35, 36, 37, 38, 39, 40, 41, 42, 43, 44, 45, 46, 47, 48, 49, 50, 51, 52, 53, 54, 55, 56, 57, 58, 59, 60, 61, 62, 63, 64, 65, 66, 67, 68, 69, 70, 71, 72, 73, 74, 75, 76, 77, 78, 79, 80, 81, 82, 83, 84, 85, 86, 87, 88, 89, 90, 91, 92, 93, 94, 95, 96, 97, 98, 99, 100, 101, 102, 103, 104, 105, 106, 107, 108, 109, 110, 111, 112, 113, 114, 115, 116, 117, 118, 119, 120, 121, 122, 123, 124, 125, 126, 127, 128, 129, 130, 131, 132, 133, 134, 135, 136, 137, 138, 139, 140, 141, 142, 143, 144, 145, 146, 147, 148, 149, 150, 151, 152, 153, 154, 155, 156, 157, 158, 159, 160, 161, 162, 163, 164, 165, 166, 167, 168, 169, 170, 171, 172, 173, 174, 175, 176, 177, 178, 179, 180, 181, 182, 183, 184, 185, 186, 187, 188, 189, 190, 191, 192, 193, 194, 195, 196, 197, 198, 199, 200, 201, 202, 203, 204, 205, 206, 207, 208, 209, 210, 211, 212, 213, 214, 215, 216, 217, 218, 219, 220, 221, 222, 223, 224, 225, 226, 227, 228, 229, 230, 231, 232, 233, 234, 235, 236, 237, 238, 239, 240, 241, 242, 243, 244, 245, 246, 247, 248, 249, 250, 251, 252, 253, 254, 255, 256, 257, 258, 259, 260, 261, 262, 263, 264, 265, 266, 267, 268, 269, 270, 271, 272, 273, 274, 275, 276, 277, 278, 279, 280, 281, 282, 283, 284, 285, 286, 287, 288, 289, 290, 291, 292, 293, 294, 295, 296, 297, 298, 299, 300, 301, 302, 303, 304, 305, 306, 307, 308, 309, 310, 311, 312, 313, 314, 315, 316, 317, 318, 319, 320, 321, 322, 323, 324, 325, 326, 327, 328, 329, 330, 331, 332, 333, 334, 335, 336, 337, 338, 339, 340, 341, 342, 343, 344, 345, 346, 347, 348, 349, 350, 351, 352, 353, 354, 355, 356, 357, 358, 359, 360, 361, 362, 363, 364, 365, 366, 367, 368, 369, 370, 371, 372, 373, 374, 375, 376, 377, 378, 379, 380, 381, 382, 383, 384, 385, 386, 387, 388, 389, 390, 391, 392, 393, 394, 395, 396, 397, 398, 399, 400, 401, 402, 403, 404, 405, 406, 407, 408, 409, 410, 411, 412, 413, 414, 415, 416, 417, 418, 419, 420, 421, 422, 423, 424, 425, 426, 427, 428, 429, 430, 431, 432, 433, 434, 435, 436, 437, 438, 439, 440, 441, 442, 443, 444, 445, 446, 447, 448, 449, 450, 451, 452, 453, 454, 455, 456, 457, 458, 459, 460, 461, 462, 463, 464, 465, 466, 467, 468, 469, 470, 471, 472, 473, 474, 475, 476, 477, 478, 479, 480, 481, 482, 483, 484, 485, 486, 487, 488, 489, 490, 491, 492, 493],
      "AcquisitionTime": ["152057.527500", "152059.017500", "152100.507500", "152101.997500", "152103.487500", "152104.977500", "152106.467500", "152107.957500", "152109.447500", "152110.937500", "152112.427500", "152113.917500", "152115.407500", "152116.897500", "152118.387500", "152119.877500", "152121.367500", "152122.857500", "152124.347500", "152125.837500", "152127.327500", "152128.817500", "152130.307500", "152131.797500", "152133.287500", "152134.777500", "152136.267500", "152137.757500", "152139.247500", "152140.737500", "152142.227500", "152143.717500", "152145.207500", "152146.697500", "152148.187500", "152149.677500", "152151.167500", "152152.657500", "152154.147500", "152155.637500", "152157.127500", "152158.617500", "152200.107500", "152201.597500", "152203.087500", "152204.577500", "152206.067500", "152207.557500", "152209.047500", "152210.537500", "152212.027500", "152213.517500", "152215.007500", "152216.497500", "152217.987500", "152219.477500", "152220.967500", "152222.457500", "152223.947500", "152225.437500", "152226.927500", "152228.417500", "152229.907500", "152231.397500", "152232.887500", "152234.377500", "152235.867500", "152237.357500", "152238.847500", "152240.337500", "152241.827500", "152243.317500", "152244.807500", "152246.297500", "152247.787500", "152249.277500", "152250.767500", "152252.257500", "152253.747500", "152255.237500", "152256.727500", "152258.217500", "152259.707500", "152301.197500", "152302.687500", "152304.177500", "152305.667500", "152307.157500", "152308.647500", "152310.137500", "152311.627500", "152313.117500", "152314.607500", "152316.097500", "152317.587500", "152319.077500", "152320.567500", "152322.057500", "152323.547500", "152325.037500", "152326.527500", "152328.017500", "152329.507500", "152330.997500", "152332.487500", "152333.977500", "152335.467500", "152336.957500", "152338.447500", "152339.937500", "152341.427500", "152342.917500", "152344.407500", "152345.897500", "152347.387500", "152348.877500", "152350.367500", "152351.857500", "152353.347500", "152354.837500", "152356.327500", "152357.817500", "152359.307500", "152400.797500", "152402.287500", "152403.777500", "152405.267500", "152406.757500", "152408.247500", "152409.737500", "152411.227500", "152412.717500", "152414.207500", "152415.697500", "152417.187500", "152418.677500", "152420.167500", "152421.657500", "152423.147500", "152424.637500", "152426.127500", "152427.617500", "152429.107500", "152430.597500", "152432.087500", "152433.577500", "152435.067500", "152436.557500", "152438.047500", "152439.537500", "152441.027500", "152442.517500", "152444.007500", "152445.497500", "152446.987500", "152448.477500", "152449.967500", "152451.457500", "152452.947500", "152454.437500", "152455.927500", "152457.417500", "152458.907500", "152500.397500", "152501.887500", "152503.377500", "152504.867500", "152506.357500", "152507.847500", "152509.337500", "152510.827500", "152512.317500", "152513.807500", "152515.297500", "152516.787500", "152518.277500", "152519.767500", "152521.257500", "152522.747500", "152524.237500", "152525.727500", "152527.217500", "152528.707500", "152530.197500", "152531.687500", "152533.177500", "152534.667500", "152536.157500", "152537.647500", "152539.137500", "152540.627500", "152542.117500", "152543.607500", "152545.097500", "152546.587500", "152548.077500", "152549.567500", "152551.057500", "152552.547500", "152554.037500", "152555.527500", "152557.017500", "152558.507500", "152559.997500", "152601.487500", "152602.977500", "152604.467500", "152605.957500", "152607.447500", "152608.937500", "152610.427500", "152611.917500", "152613.407500", "152614.897500", "152616.387500", "152617.877500", "152619.367500", "152620.857500", "152622.347500", "152623.837500", "152625.327500", "152626.817500", "152628.307500", "152629.797500", "152631.287500", "152632.777500", "152634.267500", "152635.757500", "152637.247500", "152638.737500", "152640.227500", "152641.717500", "152643.207500", "152644.697500", "152646.187500", "152647.677500", "152649.167500", "152650.657500", "152652.147500", "152653.637500", "152655.127500", "152656.617500", "152658.107500", "152659.597500", "152701.087500", "152702.577500", "152704.067500", "152705.557500", "152707.047500", "152708.537500", "152710.027500", "152711.517500", "152713.007500", "152714.497500", "152715.987500", "152717.477500", "152718.967500", "152720.457500", "152721.947500", "152723.437500", "152724.927500", "152726.417500", "152727.907500", "152729.397500", "152730.887500", "152732.377500", "152733.867500", "152735.357500", "152736.847500", "152738.337500", "152739.827500", "152741.317500", "152742.807500", "152744.297500", "152745.787500", "152747.277500", "152748.767500", "152750.257500", "152751.747500", "152753.237500", "152754.727500", "152756.217500", "152757.707500", "152759.197500", "152800.687500", "152802.177500", "152803.667500", "152805.157500", "152806.647500", "152808.137500", "152809.627500", "152811.117500", "152812.607500", "152814.097500", "152815.587500", "152817.077500", "152818.567500", "152820.057500", "152821.547500", "152823.037500", "152824.527500", "152826.017500", "152827.507500", "152828.997500", "152830.487500", "152831.977500", "152833.467500", "152834.957500", "152836.447500", "152837.937500", "152839.427500", "152840.917500", "152842.407500", "152843.897500", "152845.387500", "152846.877500", "152848.367500", "152849.857500", "152851.347500", "152852.837500", "152854.327500", "152855.817500", "152857.307500", "152858.797500", "152900.287500", "152901.777500", "152903.267500", "152904.757500", "152906.247500", "152907.737500", "152909.227500", "152910.717500", "152912.207500", "152913.697500", "152915.187500", "152916.677500", "152918.167500", "152919.657500", "152921.147500", "152922.637500", "152924.127500", "152925.617500", "152927.107500", "152928.597500", "152930.087500", "152931.577500", "152933.067500", "152934.557500", "152936.047500", "152937.537500", "152939.027500", "152940.517500", "152942.007500", "152943.497500", "152944.987500", "152946.477500", "152947.967500", "152949.457500", "152950.947500", "152952.437500", "152953.927500", "152955.417500", "152956.907500", "152958.397500", "152959.887500", "153001.377500", "153002.867500", "153004.357500", "153005.847500", "153007.337500", "153008.827500", "153010.317500", "153011.807500", "153013.297500", "153014.787500", "153016.277500", "153017.767500", "153019.257500", "153020.747500", "153022.237500", "153023.727500", "153025.217500", "153026.707500", "153028.197500", "153029.687500", "153031.177500", "153032.667500", "153034.157500", "153035.647500", "153037.137500", "153038.627500", "153040.117500", "153041.607500", "153043.097500", "153044.587500", "153046.077500", "153047.567500", "153049.057500", "153050.547500", "153052.037500", "153053.527500", "153055.017500", "153056.507500", "153057.997500", "153059.487500", "153100.977500", "153102.467500", "153103.957500", "153105.447500", "153106.937500", "153108.427500", "153109.917500", "153111.407500", "153112.897500", "153114.387500", "153115.877500", "153117.367500", "153118.857500", "153120.347500", "153121.837500", "153123.327500", "153124.817500", "153126.307500", "153127.797500", "153129.287500", "153130.777500", "153132.267500", "153133.757500", "153135.247500", "153136.737500", "153138.227500", "153139.717500", "153141.207500", "153142.697500", "153144.187500", "153145.677500", "153147.167500", "153148.657500", "153150.147500", "153151.637500", "153153.127500", "153154.617500", "153156.107500", "153157.597500", "153159.087500", "153200.577500", "153202.067500", "153203.557500", "153205.047500", "153206.537500", "153208.027500", "153209.517500", "153211.007500", "153212.497500", "153213.987500", "153215.477500", "153216.967500", "153218.457500", "153219.947500", "153221.437500", "153222.927500", "153224.417500", "153225.907500", "153227.397500", "153228.887500", "153230.377500", "153231.867500", "153233.357500", "153234.847500", "153236.337500", "153237.827500", "153239.317500", "153240.807500", "153242.297500", "153243.787500", "153245.277500", "153246.767500", "153248.257500", "153249.747500", "153251.237500", "153252.727500", "153254.217500", "153255.707500", "153257.197500", "153258.687500", "153300.177500", "153301.667500", "153303.157500", "153304.647500", "153306.137500", "153307.627500", "153309.117500", "153310.607500"],
      "ContentTime": ["152231.583000", "152231.587000", "152231.590000", "152231.593000", "152231.596000", "152231.604000", "152231.607000", "152231.610000", "152231.613000", "152231.615000", "152231.618000", "152231.621000", "152231.624000", "152231.627000", "152231.630000", "152231.633000", "152231.636000", "152231.639000", "152231.642000", "152231.645000", "152231.648000", "152231.656000", "152231.659000", "152231.662000", "152231.665000", "152231.668000", "152231.670000", "152231.673000", "152231.676000", "152231.679000", "152231.682000", "152231.685000", "152231.688000", "152231.691000", "152231.694000", "152231.697000", "152231.700000", "152231.703000", "152231.706000", "152251.551000", "152251.554000", "152251.557000", "152251.560000", "152251.563000", "152251.566000", "152251.569000", "152251.572000", "152251.575000", "152251.577000", "152251.580000", "152251.583000", "152251.586000", "152251.589000", "152251.592000", "152251.595000", "152251.598000", "152251.601000", "152251.604000", "152251.607000", "152311.552000", "152311.555000", "152311.558000", "152311.561000", "152311.564000", "152311.567000", "152311.570000", "152311.573000", "152311.576000", "152311.578000", "152311.581000", "152311.584000", "152311.587000", "152311.590000", "152311.593000", "152311.596000", "152311.599000", "152311.602000", "152311.605000", "152311.608000", "152331.552000", "152331.555000", "152331.558000", "152331.561000", "152331.564000", "152331.567000", "152331.570000", "152331.572000", "152331.575000", "152331.578000", "152331.581000", "152331.584000", "152331.587000", "152331.590000", "152331.593000", "152331.596000", "152331.599000", "152331.602000", "152331.605000", "152331.609000", "152331.611000", "152411.552000", "152411.555000", "152411.558000", "152411.561000", "152411.564000", "152411.567000", "152411.570000", "152411.573000", "152411.576000", "152411.579000", "152411.582000", "152411.585000", "152411.588000", "152411.591000", "152411.594000", "152411.597000", "152411.600000", "152411.602000", "152411.605000", "152411.608000", "152411.611000", "152411.614000", "152411.617000", "152411.620000", "152411.623000", "152411.626000", "152411.629000", "152411.632000", "152411.634000", "152452.316000", "152452.320000", "152452.323000", "152452.325000", "152452.328000", "152452.331000", "152452.334000", "152452.337000", "152452.340000", "152452.343000", "152452.346000", "152452.349000", "152452.352000", "152452.355000", "152452.358000", "152452.361000", "152452.364000", "152452.367000", "152452.370000", "152452.373000", "152452.375000", "152452.378000", "152452.381000", "152452.384000", "152452.387000", "152452.390000", "152452.393000", "152531.552000", "152531.555000", "152531.558000", "152531.571000", "152531.574000", "152531.577000", "152531.580000", "152531.583000", "152531.586000", "152531.589000", "152531.592000", "152531.595000", "152531.598000", "152531.601000", "152531.604000", "152531.607000", "152531.610000", "152531.613000", "152531.616000", "152531.619000", "152531.622000", "152531.624000", "152531.627000", "152531.630000", "152531.633000", "152531.636000", "152531.639000", "152611.552000", "152611.555000", "152611.558000", "152611.561000", "152611.564000", "152611.567000", "152611.570000", "152611.573000", "152611.576000", "152611.579000", "152611.581000", "152611.584000", "152611.587000", "152611.590000", "152611.593000", "152611.596000", "152611.599000", "152611.602000", "152611.605000", "152611.608000", "152611.611000", "152611.614000", "152611.617000", "152611.620000", "152611.623000", "152611.626000", "152611.629000", "152651.552000", "152651.555000", "152651.558000", "152651.561000", "152651.564000", "152651.567000", "152651.570000", "152651.573000", "152651.576000", "152651.579000", "152651.581000", "152651.585000", "152651.588000", "152651.591000", "152651.594000", "152651.596000", "152651.599000", "152651.602000", "152651.605000", "152651.608000", "152651.611000", "152651.614000", "152651.617000", "152651.620000", "152651.623000", "152651.626000", "152651.629000", "152731.552000", "152731.555000", "152731.558000", "152731.561000", "152731.564000", "152731.567000", "152731.570000", "152731.573000", "152731.576000", "152731.579000", "152731.582000", "152731.585000", "152731.588000", "152731.591000", "152731.594000", "152731.597000", "152731.599000", "152731.602000", "152731.605000", "152731.608000", "152731.611000", "152731.614000", "152731.617000", "152731.620000", "152731.623000", "152731.627000", "152811.552000", "152811.555000", "152811.558000", "152811.561000", "152811.564000", "152811.567000", "152811.570000", "152811.573000", "152811.576000", "152811.579000", "152811.582000", "152811.585000", "152811.588000", "152811.591000", "152811.594000", "152811.597000", "152811.600000", "152811.603000", "152811.605000", "152811.608000", "152811.611000", "152811.614000", "152811.617000", "152811.620000", "152811.623000", "152811.626000", "152811.629000", "152851.552000", "152851.555000", "152851.558000", "152851.561000", "152851.564000", "152851.567000", "152851.570000", "152851.573000", "152851.576000", "152851.579000", "152851.582000", "152851.585000", "152851.588000", "152851.591000", "152851.594000", "152851.596000", "152851.599000", "152851.602000", "152851.605000", "152851.608000", "152851.611000", "152851.614000", "152851.617000", "152851.630000", "152851.633000", "152851.636000", "152851.639000", "152911.552000", "152911.555000", "152911.558000", "152911.561000", "152911.564000", "152911.567000", "152911.570000", "152911.573000", "152911.576000", "152911.579000", "152911.582000", "152911.585000", "152911.588000", "152911.597000", "152951.552000", "152951.555000", "152951.558000", "152951.561000", "152951.564000", "152951.567000", "152951.570000", "152951.573000", "152951.576000", "152951.579000", "152951.582000", "152951.585000", "152951.588000", "152951.591000", "152951.594000", "152951.597000", "152951.600000", "152951.603000", "152951.606000", "152951.609000", "152951.612000", "152951.615000", "152951.618000", "152951.620000", "152951.623000", "152951.626000", "153031.552000", "153031.555000", "153031.558000", "153031.561000", "153031.564000", "153031.567000", "153031.570000", "153031.573000", "153031.576000", "153031.579000", "153031.582000", "153031.585000", "153031.588000", "153031.591000", "153031.594000", "153031.597000", "153031.600000", "153031.603000", "153031.605000", "153031.608000", "153031.611000", "153031.614000", "153031.617000", "153031.620000", "153031.623000", "153031.626000", "153031.629000", "153111.552000", "153111.555000", "153111.558000", "153111.561000", "153111.564000", "153111.567000", "153111.570000", "153111.573000", "153111.576000", "153111.579000", "153111.582000", "153111.585000", "153111.588000", "153111.591000", "153111.594000", "153111.597000", "153111.600000", "153111.602000", "153111.605000", "153111.608000", "153111.611000", "153111.614000", "153111.617000", "153111.620000", "153111.623000", "153111.626000", "153111.629000", "153151.551000", "153151.554000", "153151.557000", "153151.560000", "153151.563000", "153151.566000", "153151.569000", "153151.572000", "153151.575000", "153151.578000", "153151.581000", "153151.584000", "153151.587000", "153151.589000", "153151.592000", "153151.595000", "153151.598000", "153151.601000", "153151.604000", "153151.607000", "153151.610000", "153151.613000", "153151.616000", "153151.619000", "153151.622000", "153151.625000", "153151.628000", "153231.552000", "153231.555000", "153231.558000", "153231.561000", "153231.564000", "153231.567000", "153231.570000", "153231.573000", "153231.576000", "153231.579000", "153231.582000", "153231.585000", "153231.588000", "153231.591000", "153231.594000", "153231.597000", "153231.600000", "153231.603000", "153231.606000", "153231.609000", "153231.612000", "153231.615000", "153231.618000", "153231.621000", "153231.623000", "153231.626000", "153231.629000", "153311.552000", "153311.555000", "153311.558000", "153311.561000", "153311.564000", "153311.567000", "153311.570000", "153311.573000", "153311.576000", "153311.579000", "153311.582000", "153311.585000", "153311.588000", "153311.591000", "153311.594000", "153311.597000", "153311.600000", "153311.603000", "153311.617000", "153311.620000", "153311.623000", "153311.626000", "153311.629000", "153311.632000", "153311.635000", "153311.638000", "153311.641000", "153312.866000"],
