{
  "AcquisitionMatrixPE": 104,
  "AcquisitionNumber": 1,
  "AcquisitionTime": "18:28:31.132500",
  "BandwidthPerPixelPhaseEncode": 17.17,
  "BaseResolution": 104,
  "BodyPartExamined": "BRAIN",
  "CoilCombinationMethod": "Sum of Squares",
  "ConsistencyInfo": "N4_VE11C_LATEST_20160120",
  "ConversionSoftware": "dcm2niix",
  "ConversionSoftwareVersion": "v1.0.20220505",
  "DerivedVendorReportedEchoSpacing": 0.000560011,
  "DeviceSerialNumber": "167006",
  "DwellTime": 2.1e-06,
  "EchoTime": 0.037,
  "EchoTrainLength": 104,
  "EffectiveEchoSpacing": 0.000560011,
  "FlipAngle": 52,
  "HeudiconvVersion": "0.5.3.post811+g6206e14",
  "ImageComments": "Unaliased MB4/PE3/LB",
  "ImageOrientationPatientDICOM": [0.999602, -0.0273555, -0.00689256, 0.0226842, 0.924673, -0.380086],
  "ImageOrientationText": "Tra>Cor(-22.3)>Sag(-1.0)",
  "ImageType": [
    "ORIGINAL",
    "PRIMARY",
    "M",
    "MB",
    "ND",
    "MOSAIC"
],
  "ImagingFrequency": 123.259,
  "InPlanePhaseEncodingDirectionDICOM": "COL",
  "InstitutionAddress": "Chemin Queen-Mary 4565,Montreal,District,CA,H3W 1W5",
  "InstitutionName": "IUGM",
  "InstitutionalDepartmentName": "Department",
  "MRAcquisitionType": "2D",
  "MagneticFieldStrength": 3,
  "Manufacturer": "Siemens",
  "ManufacturersModelName": "Prisma_fit",
  "MatrixCoilMode": "SENSE",
  "Modality": "MR",
  "MultibandAccelerationFactor": 4,
  "PartialFourier": 1,
  "PatientPosition": "HFS",
  "PercentPhaseFOV": 100,
  "PercentSampling": 100,
  "PhaseEncodingDirection": "j",
  "PhaseEncodingSteps": 104,
  "PhaseResolution": 1,
  "PixelBandwidth": 2290,
  "ProcedureStepDescription": "video^friends",
  "ProtocolName": "func_task-friends-s06e06a",
  "PulseSequenceDetails": "%CustomerSeq%\\cmrr_mbep2d_bold",
  "ReceiveCoilActiveElements": "HC1-7;NC1,2",
  "ReceiveCoilName": "HeadNeck_64",
  "ReconMatrixPE": 104,
  "RepetitionTime": 1.49,
  "SAR": 0.0999375,
  "ScanOptions": "FS",
  "ScanningSequence": "EP",
  "SequenceName": "epfid2d1_104",
  "SequenceVariant": "SK\\SS",
  "SeriesDescription": "func_task-friends-s06e06a",
  "SeriesNumber": 18,
  "ShimSetting": [606, -7264, -8837, 371, 13, -412, 10, 13],
  "SliceThickness": 2,
  "SliceTiming": [0, 0.785, 0.0975, 0.8825, 0.1975, 0.98, 0.295, 1.0775, 0.3925, 1.1775, 0.49, 1.275, 0.5875, 1.3725, 0.6875, 0, 0.785, 0.0975, 0.8825, 0.1975, 0.98, 0.295, 1.0775, 0.3925, 1.1775, 0.49, 1.275, 0.5875, 1.3725, 0.6875, 0, 0.785, 0.0975, 0.8825, 0.1975, 0.98, 0.295, 1.0775, 0.3925, 1.1775, 0.49, 1.275, 0.5875, 1.3725, 0.6875, 0, 0.785, 0.0975, 0.8825, 0.1975, 0.98, 0.295, 1.0775, 0.3925, 1.1775, 0.49, 1.275, 0.5875, 1.3725, 0.6875],
  "SoftwareVersions": "syngo MR E11",
  "SpacingBetweenSlices": 2,
  "StationName": "MRC35049",
  "TaskName": "s06e06a",
  "TotalReadoutTime": 0.0576811,
  "TxRefAmp": 329.197,
  "WipMemBlock": "1fc88a18-bb02-4bb2-ac38-93b0cb9087f4||Sequence: R017 ve11c/master r/75a17815+; Jun 28 2022 16:32:11 by eja",
  "dcmmeta_affine": [
    [-1.9992040395736694, 0.04536836966872215, -0.03354163467884064, 97.73622131347656],
    [0.05471106246113777, 1.8493460416793823, -0.7595564723014832, -72.42237091064453],
    [-0.013785123825073242, 0.76017165184021, 1.849851131439209, -69.73092651367188],
    [0.0, 0.0, 0.0, 1.0]
],
  "dcmmeta_reorient_transform": [
    [0.0, -1.0, 0.0, 103.0],
    [1.0, 0.0, 0.0, 0.0],
    [0.0, 0.0, 1.0, 0.0],
    [0.0, 0.0, 0.0, 1.0]
],
  "dcmmeta_shape": [104, 104, 60, 443],
  "dcmmeta_slice_dim": 2,
  "dcmmeta_version": 0.6,
  "global": {
    "const": {
      "AcquisitionMatrix": [104, 0, 0, 104],
      "AngioFlag": "N",
      "BitsAllocated": 16,
      "BitsStored": 16,
      "BodyPartExamined": "BRAIN",
      "Columns": 832,
      "EchoNumbers": 1,
      "EchoTime": 37.0,
      "EchoTrainLength": 104,
      "FlipAngle": 52.0,
      "HighBit": 15,
      "ImageOrientationPatient": [0.99960200453514, -0.0273555317376, -0.0068925621277, 0.02268418499926, 0.92467301566864, -0.3800858348389],
      "ImagePositionPatient": [-846.63350578599, -771.30740062846, 290.28702732906],
      "ImageType": [
        "ORIGINAL",
        "PRIMARY",
        "M",
        "MB",
        "ND",
        "MOSAIC"
],
      "ImagedNucleus": "1H",
      "ImagingFrequency": 123.258802,
      "InPlanePhaseEncodingDirection": "COL",
      "MRAcquisitionType": "2D",
      "MagneticFieldStrength": 3.0,
      "Manufacturer": "SIEMENS",
      "ManufacturerModelName": "Prisma_fit",
      "Modality": "MR",
      "NumberOfAverages": 1.0,
      "NumberOfPhaseEncodingSteps": 104,
      "PercentPhaseFieldOfView": 100.0,
      "PercentSampling": 100.0,
      "PerformedProcedureStepStartTime": "173243.608000",
      "PhotometricInterpretation": "MONOCHROME2",
      "PixelBandwidth": 2290.0,
      "PixelRepresentation": 0,
      "PixelSpacing": [2.0, 2.0],
      "ProtocolName": "func_task-friends-s06e06a",
      "RepetitionTime": 1490.0,
      "Rows": 832,
      "SAR": 0.09993753767141,
      "SamplesPerPixel": 1,
      "ScanOptions": "FS",
      "ScanningSequence": "EP",
      "SequenceName": "epfid2d1_104",
      "SequenceVariant": [
        "SK",
        "SS"
],
      "SeriesDescription": "func_task-friends-s06e06a",
      "SeriesNumber": 18,
      "SeriesTime": "182926.625000",
      "SliceLocation": -38.630594270629,
      "SliceThickness": 2.0,
      "SmallestImagePixelValue": 0,
      "SoftwareVersions": "syngo MR E11",
      "SpacingBetweenSlices": 2.0000000773826,
      "SpecificCharacterSet": "ISO_IR 100",
      "StudyID": "1",
      "StudyTime": "173243.528000",
      "TransmitCoilName": "Body",
      "VariableFlipAngleFlag": "N",
      "WindowCenterWidthExplanation": "Algo1",
      "dBdt": 0.0},
    "slices": {}
  },
  "time": {
    "samples": {
      "AcquisitionNumber": [1, 2, 3, 4, 5, 6, 7, 8, 9, 10, 11, 12, 13, 14, 15, 16, 17, 18, 19, 20, 21, 22, 23, 24, 25, 26, 27, 28, 29, 30, 31, 32, 33, 34, 35, 36, 37, 38, 39, 40, 41, 42, 43, 44, 45, 46, 47, 48, 49, 50, 51, 52, 53, 54, 55, 56, 57, 58, 59, 60, 61, 62, 63, 64, 65, 66, 67, 68, 69, 70, 71, 72, 73, 74, 75, 76, 77, 78, 79, 80, 81, 82, 83, 84, 85, 86, 87, 88, 89, 90, 91, 92, 93, 94, 95, 96, 97, 98, 99, 100, 101, 102, 103, 104, 105, 106, 107, 108, 109, 110, 111, 112, 113, 114, 115, 116, 117, 118, 119, 120, 121, 122, 123, 124, 125, 126, 127, 128, 129, 130, 131, 132, 133, 134, 135, 136, 137, 138, 139, 140, 141, 142, 143, 144, 145, 146, 147, 148, 149, 150, 151, 152, 153, 154, 155, 156, 157, 158, 159, 160, 161, 162, 163, 164, 165, 166, 167, 168, 169, 170, 171, 172, 173, 174, 175, 176, 177, 178, 179, 180, 181, 182, 183, 184, 185, 186, 187, 188, 189, 190, 191, 192, 193, 194, 195, 196, 197, 198, 199, 200, 201, 202, 203, 204, 205, 206, 207, 208, 209, 210, 211, 212, 213, 214, 215, 216, 217, 218, 219, 220, 221, 222, 223, 224, 225, 226, 227, 228, 229, 230, 231, 232, 233, 234, 235, 236, 237, 238, 239, 240, 241, 242, 243, 244, 245, 246, 247, 248, 249, 250, 251, 252, 253, 254, 255, 256, 257, 258, 259, 260, 261, 262, 263, 264, 265, 266, 267, 268, 269, 270, 271, 272, 273, 274, 275, 276, 277, 278, 279, 280, 281, 282, 283, 284, 285, 286, 287, 288, 289, 290, 291, 292, 293, 294, 295, 296, 297, 298, 299, 300, 301, 302, 303, 304, 305, 306, 307, 308, 309, 310, 311, 312, 313, 314, 315, 316, 317, 318, 319, 320, 321, 322, 323, 324, 325, 326, 327, 328, 329, 330, 331, 332, 333, 334, 335, 336, 337, 338, 339, 340, 341, 342, 343, 344, 345, 346, 347, 348, 349, 350, 351, 352, 353, 354, 355, 356, 357, 358, 359, 360, 361, 362, 363, 364, 365, 366, 367, 368, 369, 370, 371, 372, 373, 374, 375, 376, 377, 378, 379, 380, 381, 382, 383, 384, 385, 386, 387, 388, 389, 390, 391, 392, 393, 394, 395, 396, 397, 398, 399, 400, 401, 402, 403, 404, 405, 406, 407, 408, 409, 410, 411, 412, 413, 414, 415, 416, 417, 418, 419, 420, 421, 422, 423, 424, 425, 426, 427, 428, 429, 430, 431, 432, 433, 434, 435, 436, 437, 438, 439, 440, 441, 442, 443],
      "AcquisitionTime": ["182831.132500", "182832.622500", "182834.112500", "182835.602500", "182837.092500", "182838.582500", "182840.072500", "182841.562500", "182843.052500", "182844.542500", "182846.032500", "182847.522500", "182849.012500", "182850.502500", "182851.992500", "182853.482500", "182854.972500", "182856.462500", "182857.952500", "182859.442500", "182900.932500", "182902.422500", "182903.912500", "182905.402500", "182906.892500", "182908.382500", "182909.872500", "182911.362500", "182912.852500", "182914.342500", "182915.832500", "182917.322500", "182918.812500", "182920.302500", "182921.792500", "182923.282500", "182924.772500", "182926.262500", "182927.752500", "182929.242500", "182930.732500", "182932.222500", "182933.712500", "182935.202500", "182936.692500", "182938.182500", "182939.672500", "182941.162500", "182942.652500", "182944.142500", "182945.632500", "182947.122500", "182948.612500", "182950.102500", "182951.592500", "182953.082500", "182954.572500", "182956.062500", "182957.552500", "182959.042500", "183000.532500", "183002.022500", "183003.512500", "183005.002500", "183006.492500", "183007.982500", "183009.472500", "183010.962500", "183012.452500", "183013.942500", "183015.432500", "183016.922500", "183018.412500", "183019.902500", "183021.392500", "183022.882500", "183024.372500", "183025.862500", "183027.352500", "183028.842500", "183030.332500", "183031.822500", "183033.312500", "183034.802500", "183036.292500", "183037.782500", "183039.272500", "183040.762500", "183042.252500", "183043.742500", "183045.232500", "183046.722500", "183048.212500", "183049.702500", "183051.192500", "183052.682500", "183054.172500", "183055.662500", "183057.152500", "183058.642500", "183100.132500", "183101.622500", "183103.112500", "183104.602500", "183106.092500", "183107.582500", "183109.072500", "183110.562500", "183112.052500", "183113.542500", "183115.032500", "183116.522500", "183118.012500", "183119.502500", "183120.992500", "183122.482500", "183123.972500", "183125.462500", "183126.952500", "183128.442500", "183129.932500", "183131.422500", "183132.912500", "183134.402500", "183135.892500", "183137.382500", "183138.872500", "183140.362500", "183141.852500", "183143.342500", "183144.832500", "183146.322500", "183147.812500", "183149.302500", "183150.792500", "183152.282500", "183153.772500", "183155.262500", "183156.752500", "183158.242500", "183159.732500", "183201.222500", "183202.712500", "183204.202500", "183205.692500", "183207.182500", "183208.672500", "183210.162500", "183211.652500", "183213.142500", "183214.632500", "183216.122500", "183217.612500", "183219.102500", "183220.592500", "183222.082500", "183223.572500", "183225.062500", "183226.552500", "183228.042500", "183229.532500", "183231.022500", "183232.512500", "183234.002500", "183235.492500", "183236.982500", "183238.472500", "183239.962500", "183241.452500", "183242.942500", "183244.432500", "183245.922500", "183247.412500", "183248.902500", "183250.392500", "183251.882500", "183253.372500", "183254.862500", "183256.352500", "183257.842500", "183259.332500", "183300.822500", "183302.312500", "183303.802500", "183305.292500", "183306.782500", "183308.272500", "183309.762500", "183311.252500", "183312.742500", "183314.232500", "183315.722500", "183317.212500", "183318.702500", "183320.192500", "183321.682500", "183323.172500", "183324.662500", "183326.152500", "183327.642500", "183329.132500", "183330.622500", "183332.112500", "183333.602500", "183335.092500", "183336.582500", "183338.072500", "183339.562500", "183341.052500", "183342.542500", "183344.032500", "183345.522500", "183347.012500", "183348.502500", "183349.992500", "183351.482500", "183352.972500", "183354.462500", "183355.952500", "183357.442500", "183358.932500", "183400.422500", "183401.912500", "183403.402500", "183404.892500", "183406.382500", "183407.872500", "183409.362500", "183410.852500", "183412.342500", "183413.832500", "183415.322500", "183416.812500", "183418.302500", "183419.792500", "183421.282500", "183422.772500", "183424.262500", "183425.752500", "183427.242500", "183428.732500", "183430.222500", "183431.712500", "183433.202500", "183434.692500", "183436.182500", "183437.672500", "183439.162500", "183440.652500", "183442.142500", "183443.632500", "183445.122500", "183446.612500", "183448.102500", "183449.592500", "183451.082500", "183452.572500", "183454.062500", "183455.552500", "183457.042500", "183458.532500", "183500.022500", "183501.512500", "183503.002500", "183504.492500", "183505.982500", "183507.472500", "183508.962500", "183510.452500", "183511.942500", "183513.432500", "183514.922500", "183516.412500", "183517.902500", "183519.392500", "183520.882500", "183522.372500", "183523.862500", "183525.352500", "183526.842500", "183528.332500", "183529.822500", "183531.312500", "183532.802500", "183534.292500", "183535.782500", "183537.272500", "183538.762500", "183540.252500", "183541.742500", "183543.232500", "183544.722500", "183546.212500", "183547.702500", "183549.192500", "183550.682500", "183552.172500", "183553.662500", "183555.152500", "183556.642500", "183558.132500", "183559.622500", "183601.112500", "183602.602500", "183604.092500", "183605.582500", "183607.072500", "183608.562500", "183610.052500", "183611.542500", "183613.032500", "183614.522500", "183616.012500", "183617.502500", "183618.992500", "183620.482500", "183621.972500", "183623.462500", "183624.952500", "183626.442500", "183627.932500", "183629.422500", "183630.912500", "183632.402500", "183633.892500", "183635.382500", "183636.872500", "183638.362500", "183639.852500", "183641.342500", "183642.832500", "183644.322500", "183645.812500", "183647.302500", "183648.792500", "183650.282500", "183651.772500", "183653.262500", "183654.752500", "183656.242500", "183657.732500", "183659.222500", "183700.712500", "183702.202500", "183703.692500", "183705.182500", "183706.672500", "183708.162500", "183709.652500", "183711.142500", "183712.632500", "183714.122500", "183715.612500", "183717.102500", "183718.592500", "183720.082500", "183721.572500", "183723.062500", "183724.552500", "183726.042500", "183727.532500", "183729.022500", "183730.512500", "183732.002500", "183733.492500", "183734.982500", "183736.472500", "183737.962500", "183739.452500", "183740.942500", "183742.432500", "183743.922500", "183745.412500", "183746.902500", "183748.392500", "183749.882500", "183751.372500", "183752.862500", "183754.352500", "183755.842500", "183757.332500", "183758.822500", "183800.312500", "183801.802500", "183803.292500", "183804.782500", "183806.272500", "183807.762500", "183809.252500", "183810.742500", "183812.232500", "183813.722500", "183815.212500", "183816.702500", "183818.192500", "183819.682500", "183821.172500", "183822.662500", "183824.152500", "183825.642500", "183827.132500", "183828.622500", "183830.112500", "183831.602500", "183833.092500", "183834.582500", "183836.072500", "183837.562500", "183839.052500", "183840.542500", "183842.032500", "183843.522500", "183845.012500", "183846.502500", "183847.992500", "183849.482500", "183850.972500", "183852.462500", "183853.952500", "183855.442500", "183856.932500", "183858.422500", "183859.912500", "183901.402500", "183902.892500", "183904.382500", "183905.872500", "183907.362500", "183908.852500", "183910.342500", "183911.832500", "183913.322500", "183914.812500", "183916.302500", "183917.792500", "183919.282500", "183920.772500", "183922.262500", "183923.752500", "183925.242500", "183926.732500", "183928.222500", "183929.712500"],
      "ContentTime": ["182926.628000", "182926.632000", "182926.635000", "182926.638000", "182926.641000", "182946.594000", "182946.597000", "182946.600000", "182946.603000", "182946.605000", "182946.608000", "182946.611000", "182946.614000", "182946.617000", "182946.620000", "182946.623000", "182946.626000", "182946.629000", "182946.631000", "182946.634000", "182946.637000", "182946.640000", "182946.643000", "182946.646000", "182946.649000", "183006.594000", "183006.597000", "183006.600000", "183006.603000", "183006.606000", "183006.608000", "183006.611000", "183006.614000", "183006.617000", "183006.620000", "183006.623000", "183006.626000", "183006.629000", "183006.632000", "183006.635000", "183006.638000", "183006.641000", "183006.644000", "183006.647000", "183006.650000", "183026.594000", "183026.597000", "183026.606000", "183026.608000", "183026.611000", "183026.614000", "183026.617000", "183026.620000", "183026.623000", "183026.626000", "183026.629000", "183026.632000", "183026.635000", "183026.637000", "183026.640000", "183026.643000", "183026.646000", "183026.649000", "183026.652000", "183026.655000", "183046.604000", "183046.607000", "183046.610000", "183046.613000", "183046.616000", "183046.619000", "183046.622000", "183046.624000", "183046.627000", "183046.630000", "183046.633000", "183046.636000", "183046.639000", "183046.642000", "183046.644000", "183046.647000", "183046.650000", "183046.653000", "183046.656000", "183046.659000", "183046.662000", "183126.595000", "183126.598000", "183126.601000", "183126.604000", "183126.607000", "183126.609000", "183126.612000", "183126.615000", "183126.618000", "183126.621000", "183126.624000", "183126.627000", "183126.630000", "183126.632000", "183126.635000", "183126.638000", "183126.641000", "183126.644000", "183126.647000", "183126.650000", "183126.653000", "183126.656000", "183126.659000", "183126.662000", "183126.664000", "183126.667000", "183126.670000", "183126.673000", "183126.676000", "183126.679000", "183126.682000", "183206.594000", "183206.597000", "183206.600000", "183206.603000", "183206.606000", "183206.609000", "183206.611000", "183206.614000", "183206.617000", "183206.620000", "183206.623000", "183206.626000", "183206.629000", "183206.632000", "183206.635000", "183206.638000", "183206.641000", "183206.643000", "183206.646000", "183206.649000", "183206.652000", "183206.655000", "183206.658000", "183206.661000", "183206.664000", "183206.667000", "183206.669000", "183246.594000", "183246.597000", "183246.600000", "183246.603000", "183246.606000", "183246.609000", "183246.612000", "183246.615000", "183246.618000", "183246.621000", "183246.624000", "183246.627000", "183246.630000", "183246.633000", "183246.635000", "183246.638000", "183246.641000", "183246.644000", "183246.647000", "183246.650000", "183246.653000", "183246.656000", "183246.659000", "183246.661000", "183246.664000", "183246.667000", "183326.595000", "183326.598000", "183326.601000", "183326.604000", "183326.607000", "183326.610000", "183326.613000", "183326.616000", "183326.619000", "183326.622000", "183326.625000", "183326.628000", "183326.631000", "183326.633000", "183326.636000", "183326.639000", "183326.642000", "183326.645000", "183326.648000", "183326.651000", "183326.654000", "183326.657000", "183326.659000", "183326.662000", "183326.665000", "183326.668000", "183326.671000", "183406.594000", "183406.597000", "183406.600000", "183406.603000", "183406.606000", "183406.609000", "183406.611000", "183406.614000", "183406.617000", "183406.620000", "183406.623000", "183406.626000", "183406.629000", "183406.632000", "183406.635000", "183406.638000", "183406.641000", "183406.644000", "183406.647000", "183406.650000", "183406.653000", "183406.655000", "183406.658000", "183406.661000", "183406.664000", "183406.667000", "183406.670000", "183446.594000", "183446.597000", "183446.600000", "183446.603000", "183446.606000", "183446.609000", "183446.612000", "183446.614000", "183446.617000", "183446.620000", "183446.623000", "183446.626000", "183446.629000", "183446.632000", "183446.635000", "183446.638000", "183446.641000", "183446.644000", "183446.647000", "183446.649000", "183446.652000", "183446.655000", "183446.658000", "183446.661000", "183446.664000", "183446.667000", "183446.670000", "183526.594000", "183526.597000", "183526.600000", "183526.603000", "183526.606000", "183526.609000", "183526.612000", "183526.615000", "183526.617000", "183526.620000", "183526.623000", "183526.626000", "183526.629000", "183526.632000", "183526.635000", "183526.638000", "183526.654000", "183526.657000", "183526.660000", "183526.663000", "183526.666000", "183526.669000", "183526.672000", "183526.675000", "183526.677000", "183526.680000", "183526.683000", "183606.595000", "183606.598000", "183606.601000", "183606.604000", "183606.607000", "183606.610000", "183606.613000", "183606.616000", "183606.618000", "183606.621000", "183606.624000", "183606.627000", "183606.630000", "183606.633000", "183606.636000", "183606.639000", "183606.642000", "183606.645000", "183606.648000", "183606.651000", "183606.654000", "183606.656000", "183606.659000", "183606.662000", "183606.665000", "183606.668000", "183606.671000", "183646.594000", "183646.597000", "183646.600000", "183646.603000", "183646.606000", "183646.609000", "183646.612000", "183646.615000", "183646.618000", "183646.621000", "183646.624000", "183646.627000", "183646.630000", "183646.633000", "183646.641000", "183646.644000", "183646.647000", "183646.650000", "183646.653000", "183646.655000", "183646.658000", "183646.661000", "183646.664000", "183646.667000", "183646.670000", "183646.673000", "183646.676000", "183726.594000", "183726.597000", "183726.600000", "183726.603000", "183726.607000", "183726.611000", "183726.613000", "183726.617000", "183726.619000", "183726.622000", "183726.625000", "183726.628000", "183726.631000", "183726.634000", "183726.637000", "183726.640000", "183726.643000", "183726.646000", "183726.649000", "183726.652000", "183726.655000", "183726.658000", "183726.661000", "183726.664000", "183726.667000", "183726.670000", "183806.595000", "183806.598000", "183806.601000", "183806.604000", "183806.607000", "183806.610000", "183806.613000", "183806.616000", "183806.619000", "183806.622000", "183806.625000", "183806.628000", "183806.631000", "183806.634000", "183806.637000", "183806.640000", "183806.643000", "183806.646000", "183806.648000", "183806.652000", "183806.654000", "183806.657000", "183806.660000", "183806.663000", "183806.666000", "183806.669000", "183806.672000", "183826.595000", "183826.598000", "183826.601000", "183826.604000", "183826.607000", "183826.610000", "183826.613000", "183826.616000", "183826.619000", "183826.622000", "183826.625000", "183826.628000", "183826.631000", "183826.633000", "183906.594000", "183906.597000", "183906.600000", "183906.603000", "183906.606000", "183906.609000", "183906.612000", "183906.615000", "183906.618000", "183906.621000", "183906.624000", "183906.627000", "183906.630000", "183906.632000", "183906.635000", "183906.638000", "183906.641000", "183906.644000", "183906.647000", "183906.650000", "183906.653000", "183906.656000", "183906.659000", "183906.661000", "183906.664000", "183906.667000", "183906.670000", "183931.946000", "183931.949000", "183931.952000", "183931.955000", "183931.958000", "183931.961000", "183931.964000", "183931.967000", "183931.970000", "183931.973000", "183931.976000", "183931.979000", "183931.982000", "183931.984000", "183931.987000", "183931.990000", "183931.993000"],
