{
  "AcquisitionMatrixPE": 104,
  "AcquisitionNumber": 1,
  "AcquisitionTime": "18:15:3.417500",
  "BandwidthPerPixelPhaseEncode": 17.17,
  "BaseResolution": 104,
  "BodyPartExamined": "BRAIN",
  "CoilCombinationMethod": "Sum of Squares",
  "ConsistencyInfo": "N4_VE11C_LATEST_20160120",
  "ConversionSoftware": "dcm2niix",
  "ConversionSoftwareVersion": "v1.0.20220505",
  "DerivedVendorReportedEchoSpacing": 0.000560011,
  "DeviceSerialNumber": "167006",
  "DwellTime": 2.1e-06,
  "EchoTime": 0.037,
  "EchoTrainLength": 104,
  "EffectiveEchoSpacing": 0.000560011,
  "FlipAngle": 52,
  "HeudiconvVersion": "0.5.3.post811+g6206e14",
  "ImageComments": "Unaliased MB4/PE3/LB",
  "ImageOrientationPatientDICOM": [0.999602, -0.0273555, -0.00689256, 0.0226842, 0.924673, -0.380086],
  "ImageOrientationText": "Tra>Cor(-22.3)>Sag(-1.0)",
  "ImageType": [
    "ORIGINAL",
    "PRIMARY",
    "M",
    "MB",
    "ND",
    "MOSAIC"
],
  "ImagingFrequency": 123.259,
  "InPlanePhaseEncodingDirectionDICOM": "COL",
  "InstitutionAddress": "Chemin Queen-Mary 4565,Montreal,District,CA,H3W 1W5",
  "InstitutionName": "IUGM",
  "InstitutionalDepartmentName": "Department",
  "MRAcquisitionType": "2D",
  "MagneticFieldStrength": 3,
  "Manufacturer": "Siemens",
  "ManufacturersModelName": "Prisma_fit",
  "MatrixCoilMode": "SENSE",
  "Modality": "MR",
  "MultibandAccelerationFactor": 4,
  "PartialFourier": 1,
  "PatientPosition": "HFS",
  "PercentPhaseFOV": 100,
  "PercentSampling": 100,
  "PhaseEncodingDirection": "j",
  "PhaseEncodingSteps": 104,
  "PhaseResolution": 1,
  "PixelBandwidth": 2290,
  "ProcedureStepDescription": "video^friends",
  "ProtocolName": "func_task-friends-s06e05b",
  "PulseSequenceDetails": "%CustomerSeq%\\cmrr_mbep2d_bold",
  "ReceiveCoilActiveElements": "HC1-7;NC1,2",
  "ReceiveCoilName": "HeadNeck_64",
  "ReconMatrixPE": 104,
  "RepetitionTime": 1.49,
  "SAR": 0.0999375,
  "ScanOptions": "FS",
  "ScanningSequence": "EP",
  "SequenceName": "epfid2d1_104",
  "SequenceVariant": "SK\\SS",
  "SeriesDescription": "func_task-friends-s06e05b",
  "SeriesNumber": 16,
  "ShimSetting": [606, -7264, -8837, 371, 13, -412, 10, 13],
  "SliceThickness": 2,
  "SliceTiming": [0, 0.7825, 0.0975, 0.8825, 0.195, 0.98, 0.2925, 1.0775, 0.3925, 1.175, 0.49, 1.2725, 0.5875, 1.3725, 0.685, 0, 0.7825, 0.0975, 0.8825, 0.195, 0.98, 0.2925, 1.0775, 0.3925, 1.175, 0.49, 1.2725, 0.5875, 1.3725, 0.685, 0, 0.7825, 0.0975, 0.8825, 0.195, 0.98, 0.2925, 1.0775, 0.3925, 1.175, 0.49, 1.2725, 0.5875, 1.3725, 0.685, 0, 0.7825, 0.0975, 0.8825, 0.195, 0.98, 0.2925, 1.0775, 0.3925, 1.175, 0.49, 1.2725, 0.5875, 1.3725, 0.685],
  "SoftwareVersions": "syngo MR E11",
  "SpacingBetweenSlices": 2,
  "StationName": "MRC35049",
  "TaskName": "s06e05b",
  "TotalReadoutTime": 0.0576811,
  "TxRefAmp": 329.197,
  "WipMemBlock": "ffe22e8b-a874-48cc-8604-9ebd88a4b61a||Sequence: R017 ve11c/master r/75a17815+; Jun 28 2022 16:32:11 by eja",
  "dcmmeta_affine": [
    [-1.9992040395736694, 0.04536836966872215, -0.03354163467884064, 97.73622131347656],
    [0.05471106246113777, 1.8493460416793823, -0.7595564723014832, -72.42237091064453],
    [-0.013785123825073242, 0.76017165184021, 1.849851131439209, -69.73092651367188],
    [0.0, 0.0, 0.0, 1.0]
],
  "dcmmeta_reorient_transform": [
    [0.0, -1.0, 0.0, 103.0],
    [1.0, 0.0, 0.0, 0.0],
    [0.0, 0.0, 1.0, 0.0],
    [0.0, 0.0, 0.0, 1.0]
],
  "dcmmeta_shape": [104, 104, 60, 486],
  "dcmmeta_slice_dim": 2,
  "dcmmeta_version": 0.6,
  "global": {
    "const": {
      "AcquisitionMatrix": [104, 0, 0, 104],
      "AngioFlag": "N",
      "BitsAllocated": 16,
      "BitsStored": 16,
      "BodyPartExamined": "BRAIN",
      "Columns": 832,
      "EchoNumbers": 1,
      "EchoTime": 37.0,
      "EchoTrainLength": 104,
      "FlipAngle": 52.0,
      "HighBit": 15,
      "ImageOrientationPatient": [0.99960200453514, -0.0273555317376, -0.0068925621277, 0.02268418499926, 0.92467301566864, -0.3800858348389],
      "ImagePositionPatient": [-846.63350578599, -771.30740062846, 290.28702732906],
      "ImageType": [
        "ORIGINAL",
        "PRIMARY",
        "M",
        "MB",
        "ND",
        "MOSAIC"
],
      "ImagedNucleus": "1H",
      "ImagingFrequency": 123.2588,
      "InPlanePhaseEncodingDirection": "COL",
      "MRAcquisitionType": "2D",
      "MagneticFieldStrength": 3.0,
      "Manufacturer": "SIEMENS",
      "ManufacturerModelName": "Prisma_fit",
      "Modality": "MR",
      "NumberOfAverages": 1.0,
      "NumberOfPhaseEncodingSteps": 104,
      "PercentPhaseFieldOfView": 100.0,
      "PercentSampling": 100.0,
      "PerformedProcedureStepStartTime": "173243.608000",
      "PhotometricInterpretation": "MONOCHROME2",
      "PixelBandwidth": 2290.0,
      "PixelRepresentation": 0,
      "PixelSpacing": [2.0, 2.0],
      "ProtocolName": "func_task-friends-s06e05b",
      "RepetitionTime": 1490.0,
      "Rows": 832,
      "SAR": 0.09993753203828,
      "SamplesPerPixel": 1,
      "ScanOptions": "FS",
      "ScanningSequence": "EP",
      "SequenceName": "epfid2d1_104",
      "SequenceVariant": [
        "SK",
        "SS"
],
      "SeriesDescription": "func_task-friends-s06e05b",
      "SeriesNumber": 16,
      "SeriesTime": "181625.126000",
      "SliceLocation": -38.630594270629,
      "SliceThickness": 2.0,
      "SmallestImagePixelValue": 0,
      "SoftwareVersions": "syngo MR E11",
      "SpacingBetweenSlices": 2.0000000773826,
      "SpecificCharacterSet": "ISO_IR 100",
      "StudyID": "1",
      "StudyTime": "173243.528000",
      "TransmitCoilName": "Body",
      "VariableFlipAngleFlag": "N",
      "WindowCenterWidthExplanation": "Algo1",
      "dBdt": 0.0},
    "slices": {}
  },
  "time": {
    "samples": {
      "AcquisitionNumber": [1, 2, 3, 4, 5, 6, 7, 8, 9, 10, 11, 12, 13, 14, 15, 16, 17, 18, 19, 20, 21, 22, 23, 24, 25, 26, 27, 28, 29, 30, 31, 32, 33, 34, 35, 36, 37, 38, 39, 40, 41, 42, 43, 44, 45, 46, 47, 48, 49, 50, 51, 52, 53, 54, 55, 56, 57, 58, 59, 60, 61, 62, 63, 64, 65, 66, 67, 68, 69, 70, 71, 72, 73, 74, 75, 76, 77, 78, 79, 80, 81, 82, 83, 84, 85, 86, 87, 88, 89, 90, 91, 92, 93, 94, 95, 96, 97, 98, 99, 100, 101, 102, 103, 104, 105, 106, 107, 108, 109, 110, 111, 112, 113, 114, 115, 116, 117, 118, 119, 120, 121, 122, 123, 124, 125, 126, 127, 128, 129, 130, 131, 132, 133, 134, 135, 136, 137, 138, 139, 140, 141, 142, 143, 144, 145, 146, 147, 148, 149, 150, 151, 152, 153, 154, 155, 156, 157, 158, 159, 160, 161, 162, 163, 164, 165, 166, 167, 168, 169, 170, 171, 172, 173, 174, 175, 176, 177, 178, 179, 180, 181, 182, 183, 184, 185, 186, 187, 188, 189, 190, 191, 192, 193, 194, 195, 196, 197, 198, 199, 200, 201, 202, 203, 204, 205, 206, 207, 208, 209, 210, 211, 212, 213, 214, 215, 216, 217, 218, 219, 220, 221, 222, 223, 224, 225, 226, 227, 228, 229, 230, 231, 232, 233, 234, 235, 236, 237, 238, 239, 240, 241, 242, 243, 244, 245, 246, 247, 248, 249, 250, 251, 252, 253, 254, 255, 256, 257, 258, 259, 260, 261, 262, 263, 264, 265, 266, 267, 268, 269, 270, 271, 272, 273, 274, 275, 276, 277, 278, 279, 280, 281, 282, 283, 284, 285, 286, 287, 288, 289, 290, 291, 292, 293, 294, 295, 296, 297, 298, 299, 300, 301, 302, 303, 304, 305, 306, 307, 308, 309, 310, 311, 312, 313, 314, 315, 316, 317, 318, 319, 320, 321, 322, 323, 324, 325, 326, 327, 328, 329, 330, 331, 332, 333, 334, 335, 336, 337, 338, 339, 340, 341, 342, 343, 344, 345, 346, 347, 348, 349, 350, 351, 352, 353, 354, 355, 356, 357, 358, 359, 360, 361, 362, 363, 364, 365, 366, 367, 368, 369, 370, 371, 372, 373, 374, 375, 376, 377, 378, 379, 380, 381, 382, 383, 384, 385, 386, 387, 388, 389, 390, 391, 392, 393, 394, 395, 396, 397, 398, 399, 400, 401, 402, 403, 404, 405, 406, 407, 408, 409, 410, 411, 412, 413, 414, 415, 416, 417, 418, 419, 420, 421, 422, 423, 424, 425, 426, 427, 428, 429, 430, 431, 432, 433, 434, 435, 436, 437, 438, 439, 440, 441, 442, 443, 444, 445, 446, 447, 448, 449, 450, 451, 452, 453, 454, 455, 456, 457, 458, 459, 460, 461, 462, 463, 464, 465, 466, 467, 468, 469, 470, 471, 472, 473, 474, 475, 476, 477, 478, 479, 480, 481, 482, 483, 484, 485, 486],
      "AcquisitionTime": ["181503.417500", "181504.907500", "181506.397500", "181507.887500", "181509.377500", "181510.867500", "181512.357500", "181513.847500", "181515.337500", "181516.827500", "181518.317500", "181519.807500", "181521.297500", "181522.787500", "181524.277500", "181525.767500", "181527.257500", "181528.747500", "181530.237500", "181531.727500", "181533.217500", "181534.707500", "181536.197500", "181537.687500", "181539.177500", "181540.667500", "181542.157500", "181543.647500", "181545.137500", "181546.627500", "181548.117500", "181549.607500", "181551.097500", "181552.587500", "181554.077500", "181555.567500", "181557.057500", "181558.547500", "181600.037500", "181601.527500", "181603.017500", "181604.507500", "181605.997500", "181607.487500", "181608.977500", "181610.467500", "181611.957500", "181613.447500", "181614.937500", "181616.427500", "181617.917500", "181619.407500", "181620.897500", "181622.387500", "181623.877500", "181625.367500", "181626.857500", "181628.347500", "181629.837500", "181631.327500", "181632.817500", "181634.307500", "181635.797500", "181637.287500", "181638.777500", "181640.267500", "181641.757500", "181643.247500", "181644.737500", "181646.227500", "181647.717500", "181649.207500", "181650.697500", "181652.187500", "181653.677500", "181655.167500", "181656.657500", "181658.147500", "181659.637500", "181701.127500", "181702.617500", "181704.107500", "181705.597500", "181707.087500", "181708.577500", "181710.067500", "181711.557500", "181713.047500", "181714.537500", "181716.027500", "181717.517500", "181719.007500", "181720.497500", "181721.987500", "181723.477500", "181724.967500", "181726.457500", "181727.947500", "181729.437500", "181730.927500", "181732.417500", "181733.907500", "181735.397500", "181736.887500", "181738.377500", "181739.867500", "181741.357500", "181742.847500", "181744.337500", "181745.827500", "181747.317500", "181748.807500", "181750.297500", "181751.787500", "181753.277500", "181754.767500", "181756.257500", "181757.747500", "181759.237500", "181800.727500", "181802.217500", "181803.707500", "181805.197500", "181806.687500", "181808.177500", "181809.667500", "181811.157500", "181812.647500", "181814.137500", "181815.627500", "181817.117500", "181818.607500", "181820.097500", "181821.587500", "181823.077500", "181824.567500", "181826.057500", "181827.547500", "181829.037500", "181830.527500", "181832.017500", "181833.507500", "181834.997500", "181836.487500", "181837.977500", "181839.467500", "181840.957500", "181842.447500", "181843.937500", "181845.427500", "181846.917500", "181848.407500", "181849.897500", "181851.387500", "181852.877500", "181854.367500", "181855.857500", "181857.347500", "181858.837500", "181900.327500", "181901.817500", "181903.307500", "181904.797500", "181906.287500", "181907.777500", "181909.267500", "181910.757500", "181912.247500", "181913.737500", "181915.227500", "181916.717500", "181918.207500", "181919.697500", "181921.187500", "181922.677500", "181924.167500", "181925.657500", "181927.147500", "181928.637500", "181930.127500", "181931.617500", "181933.107500", "181934.597500", "181936.087500", "181937.577500", "181939.067500", "181940.557500", "181942.047500", "181943.537500", "181945.027500", "181946.517500", "181948.007500", "181949.497500", "181950.987500", "181952.477500", "181953.967500", "181955.457500", "181956.947500", "181958.437500", "181959.927500", "182001.417500", "182002.907500", "182004.397500", "182005.887500", "182007.377500", "182008.867500", "182010.357500", "182011.847500", "182013.337500", "182014.827500", "182016.317500", "182017.807500", "182019.297500", "182020.787500", "182022.277500", "182023.767500", "182025.257500", "182026.747500", "182028.237500", "182029.727500", "182031.217500", "182032.707500", "182034.197500", "182035.687500", "182037.177500", "182038.667500", "182040.157500", "182041.647500", "182043.137500", "182044.627500", "182046.117500", "182047.607500", "182049.097500", "182050.587500", "182052.077500", "182053.567500", "182055.057500", "182056.547500", "182058.037500", "182059.527500", "182101.017500", "182102.507500", "182103.997500", "182105.487500", "182106.977500", "182108.467500", "182109.957500", "182111.447500", "182112.937500", "182114.427500", "182115.917500", "182117.407500", "182118.897500", "182120.387500", "182121.877500", "182123.367500", "182124.857500", "182126.347500", "182127.837500", "182129.327500", "182130.817500", "182132.307500", "182133.797500", "182135.287500", "182136.777500", "182138.267500", "182139.757500", "182141.247500", "182142.737500", "182144.227500", "182145.717500", "182147.207500", "182148.697500", "182150.187500", "182151.677500", "182153.167500", "182154.657500", "182156.147500", "182157.637500", "182159.127500", "182200.617500", "182202.107500", "182203.597500", "182205.087500", "182206.577500", "182208.067500", "182209.557500", "182211.047500", "182212.537500", "182214.027500", "182215.517500", "182217.007500", "182218.497500", "182219.987500", "182221.477500", "182222.967500", "182224.457500", "182225.947500", "182227.437500", "182228.927500", "182230.417500", "182231.907500", "182233.397500", "182234.887500", "182236.377500", "182237.867500", "182239.357500", "182240.847500", "182242.337500", "182243.827500", "182245.317500", "182246.807500", "182248.297500", "182249.787500", "182251.277500", "182252.767500", "182254.257500", "182255.747500", "182257.237500", "182258.727500", "182300.217500", "182301.707500", "182303.197500", "182304.687500", "182306.177500", "182307.667500", "182309.157500", "182310.647500", "182312.137500", "182313.627500", "182315.117500", "182316.607500", "182318.097500", "182319.587500", "182321.077500", "182322.567500", "182324.057500", "182325.547500", "182327.037500", "182328.527500", "182330.017500", "182331.507500", "182332.997500", "182334.487500", "182335.977500", "182337.467500", "182338.957500", "182340.447500", "182341.937500", "182343.427500", "182344.917500", "182346.407500", "182347.897500", "182349.387500", "182350.877500", "182352.367500", "182353.857500", "182355.347500", "182356.837500", "182358.327500", "182359.817500", "182401.307500", "182402.797500", "182404.287500", "182405.777500", "182407.267500", "182408.757500", "182410.247500", "182411.737500", "182413.227500", "182414.717500", "182416.207500", "182417.697500", "182419.187500", "182420.677500", "182422.167500", "182423.657500", "182425.147500", "182426.637500", "182428.127500", "182429.617500", "182431.107500", "182432.597500", "182434.087500", "182435.577500", "182437.067500", "182438.557500", "182440.047500", "182441.537500", "182443.027500", "182444.517500", "182446.007500", "182447.497500", "182448.987500", "182450.477500", "182451.967500", "182453.457500", "182454.947500", "182456.437500", "182457.927500", "182459.417500", "182500.907500", "182502.397500", "182503.887500", "182505.377500", "182506.867500", "182508.357500", "182509.847500", "182511.337500", "182512.827500", "182514.317500", "182515.807500", "182517.297500", "182518.787500", "182520.277500", "182521.767500", "182523.257500", "182524.747500", "182526.237500", "182527.727500", "182529.217500", "182530.707500", "182532.197500", "182533.687500", "182535.177500", "182536.667500", "182538.157500", "182539.647500", "182541.137500", "182542.627500", "182544.117500", "182545.607500", "182547.097500", "182548.587500", "182550.077500", "182551.567500", "182553.057500", "182554.547500", "182556.037500", "182557.527500", "182559.017500", "182600.507500", "182601.997500", "182603.487500", "182604.977500", "182606.467500", "182607.957500", "182609.447500", "182610.937500", "182612.427500", "182613.917500", "182615.407500", "182616.897500", "182618.387500", "182619.877500", "182621.367500", "182622.857500", "182624.347500", "182625.837500", "182627.327500", "182628.817500", "182630.307500", "182631.797500", "182633.287500", "182634.777500", "182636.267500", "182637.757500", "182639.247500", "182640.737500", "182642.227500", "182643.717500", "182645.207500", "182646.697500", "182648.187500", "182649.677500", "182651.167500", "182652.657500", "182654.147500", "182655.637500", "182657.127500", "182658.617500", "182700.107500", "182701.597500", "182703.087500", "182704.577500", "182706.067500"],
      "ContentTime": ["181625.129000", "181625.133000", "181625.135000", "181625.138000", "181625.141000", "181625.144000", "181625.147000", "181625.150000", "181625.153000", "181625.155000", "181625.158000", "181625.161000", "181625.164000", "181625.167000", "181625.170000", "181625.173000", "181625.176000", "181625.178000", "181625.182000", "181625.184000", "181625.187000", "181625.195000", "181625.198000", "181625.201000", "181625.204000", "181625.207000", "181625.210000", "181625.213000", "181625.216000", "181625.219000", "181645.083000", "181645.087000", "181645.090000", "181645.093000", "181645.096000", "181645.099000", "181645.102000", "181645.105000", "181645.108000", "181645.111000", "181645.114000", "181645.116000", "181645.119000", "181645.122000", "181645.125000", "181645.128000", "181645.131000", "181645.134000", "181645.137000", "181645.140000", "181645.143000", "181705.083000", "181705.086000", "181705.089000", "181705.092000", "181705.095000", "181705.098000", "181705.101000", "181705.104000", "181705.106000", "181705.109000", "181705.112000", "181705.115000", "181705.118000", "181705.121000", "181705.124000", "181705.127000", "181705.130000", "181705.133000", "181705.136000", "181705.139000", "181725.084000", "181725.087000", "181725.090000", "181725.093000", "181725.096000", "181725.099000", "181725.102000", "181725.105000", "181725.107000", "181725.110000", "181725.113000", "181725.116000", "181725.119000", "181725.122000", "181725.125000", "181725.128000", "181725.131000", "181725.134000", "181725.136000", "181725.139000", "181805.084000", "181805.087000", "181805.090000", "181805.093000", "181805.096000", "181805.099000", "181805.102000", "181805.105000", "181805.108000", "181805.111000", "181805.114000", "181805.117000", "181805.120000", "181805.123000", "181805.126000", "181805.129000", "181805.132000", "181805.135000", "181805.138000", "181805.141000", "181805.144000", "181805.154000", "181805.157000", "181805.160000", "181805.162000", "181805.165000", "181805.168000", "181805.171000", "181805.174000", "181805.177000", "181825.083000", "181825.086000", "181825.089000", "181825.092000", "181825.095000", "181825.098000", "181825.101000", "181825.103000", "181825.106000", "181825.109000", "181825.112000", "181825.115000", "181825.118000", "181825.121000", "181905.083000", "181905.086000", "181905.089000", "181905.092000", "181905.095000", "181905.098000", "181905.101000", "181905.104000", "181905.107000", "181905.109000", "181905.112000", "181905.115000", "181905.118000", "181905.121000", "181905.124000", "181905.127000", "181905.130000", "181905.133000", "181905.136000", "181905.139000", "181905.142000", "181905.146000", "181905.149000", "181905.152000", "181905.154000", "181905.157000", "181945.084000", "181945.087000", "181945.090000", "181945.093000", "181945.096000", "181945.099000", "181945.102000", "181945.104000", "181945.107000", "181945.110000", "181945.113000", "181945.116000", "181945.119000", "181945.122000", "181945.125000", "181945.128000", "181945.131000", "181945.133000", "181945.136000", "181945.139000", "181945.142000", "181945.145000", "181945.148000", "181945.151000", "181945.154000", "181945.157000", "181945.160000", "182025.083000", "182025.086000", "182025.089000", "182025.092000", "182025.095000", "182025.098000", "182025.101000", "182025.104000", "182025.107000", "182025.109000", "182025.112000", "182025.115000", "182025.135000", "182025.137000", "182025.140000", "182025.143000", "182025.146000", "182025.149000", "182025.152000", "182025.155000", "182025.157000", "182025.161000", "182025.163000", "182025.166000", "182025.169000", "182025.173000", "182025.175000", "182105.083000", "182105.086000", "182105.089000", "182105.092000", "182105.095000", "182105.098000", "182105.101000", "182105.104000", "182105.107000", "182105.109000", "182105.112000", "182105.115000", "182105.118000", "182105.121000", "182105.124000", "182105.127000", "182105.130000", "182105.133000", "182105.136000", "182105.139000", "182105.142000", "182105.145000", "182105.148000", "182105.151000", "182105.154000", "182105.157000", "182105.159000", "182145.083000", "182145.086000", "182145.089000", "182145.092000", "182145.095000", "182145.098000", "182145.101000", "182145.104000", "182145.107000", "182145.110000", "182145.113000", "182145.116000", "182145.119000", "182145.122000", "182145.124000", "182145.127000", "182145.130000", "182145.133000", "182145.136000", "182145.139000", "182145.142000", "182145.145000", "182145.148000", "182145.151000", "182145.153000", "182145.156000", "182145.159000", "182225.084000", "182225.087000", "182225.090000", "182225.093000", "182225.096000", "182225.099000", "182225.102000", "182225.105000", "182225.108000", "182225.111000", "182225.114000", "182225.117000", "182225.120000", "182225.122000", "182225.125000", "182225.128000", "182225.131000", "182225.134000", "182225.137000", "182225.140000", "182225.143000", "182225.145000", "182225.148000", "182225.164000", "182225.167000", "182225.170000", "182225.173000", "182305.083000", "182305.086000", "182305.089000", "182305.092000", "182305.095000", "182305.098000", "182305.101000", "182305.104000", "182305.107000", "182305.110000", "182305.123000", "182305.126000", "182305.129000", "182305.132000", "182305.135000", "182305.137000", "182305.140000", "182305.143000", "182305.146000", "182305.149000", "182305.152000", "182305.155000", "182305.158000", "182305.161000", "182305.164000", "182305.167000", "182345.083000", "182345.086000", "182345.089000", "182345.092000", "182345.095000", "182345.098000", "182345.101000", "182345.104000", "182345.107000", "182345.110000", "182345.113000", "182345.116000", "182345.119000", "182345.122000", "182345.124000", "182345.127000", "182345.130000", "182345.133000", "182345.136000", "182345.139000", "182345.142000", "182345.145000", "182345.148000", "182345.151000", "182345.154000", "182345.157000", "182345.160000", "182425.084000", "182425.087000", "182425.090000", "182425.093000", "182425.096000", "182425.099000", "182425.102000", "182425.105000", "182425.108000", "182425.111000", "182425.114000", "182425.117000", "182425.120000", "182425.122000", "182425.125000", "182425.128000", "182425.131000", "182425.134000", "182425.137000", "182425.140000", "182425.143000", "182425.145000", "182425.148000", "182425.151000", "182425.154000", "182425.157000", "182425.160000", "182505.083000", "182505.086000", "182505.089000", "182505.092000", "182505.095000", "182505.098000", "182505.101000", "182505.104000", "182505.106000", "182505.109000", "182505.112000", "182505.115000", "182505.129000", "182505.132000", "182505.135000", "182505.137000", "182505.140000", "182505.143000", "182505.146000", "182505.149000", "182505.157000", "182505.160000", "182505.163000", "182505.166000", "182505.168000", "182505.171000", "182505.174000", "182545.083000", "182545.086000", "182545.089000", "182545.092000", "182545.095000", "182545.098000", "182545.101000", "182545.103000", "182545.106000", "182545.109000", "182545.112000", "182545.115000", "182545.118000", "182545.121000", "182545.124000", "182545.127000", "182545.130000", "182545.133000", "182545.136000", "182545.138000", "182545.141000", "182545.144000", "182545.147000", "182545.150000", "182545.153000", "182545.156000", "182545.159000", "182625.083000", "182625.086000", "182625.089000", "182625.092000", "182625.095000", "182625.098000", "182625.100000", "182625.103000", "182625.106000", "182625.109000", "182625.112000", "182625.115000", "182625.118000", "182625.121000", "182625.124000", "182625.126000", "182625.129000", "182625.132000", "182625.135000", "182625.138000", "182625.141000", "182625.144000", "182625.147000", "182625.150000", "182625.152000", "182625.155000", "182625.158000", "182705.084000", "182705.087000", "182705.090000", "182705.093000", "182705.096000", "182705.099000", "182705.102000", "182705.104000", "182705.107000", "182705.110000", "182705.113000", "182705.116000", "182705.119000", "182705.122000", "182705.125000", "182705.128000", "182705.131000", "182705.134000", "182705.137000", "182705.140000", "182705.142000", "182705.145000", "182705.148000", "182705.151000", "182705.154000", "182705.157000", "182705.160000", "182708.077000", "182708.081000"],
