{
  "AcquisitionMatrixPE": 104,
  "AcquisitionNumber": 1,
  "AcquisitionTime": "18:40:58.380000",
  "BandwidthPerPixelPhaseEncode": 17.17,
  "BaseResolution": 104,
  "BodyPartExamined": "BRAIN",
  "CoilCombinationMethod": "Sum of Squares",
  "ConsistencyInfo": "N4_VE11C_LATEST_20160120",
  "ConversionSoftware": "dcm2niix",
  "ConversionSoftwareVersion": "v1.0.20220505",
  "DerivedVendorReportedEchoSpacing": 0.000560011,
  "DeviceSerialNumber": "167006",
  "DwellTime": 2.1e-06,
  "EchoTime": 0.037,
  "EchoTrainLength": 104,
  "EffectiveEchoSpacing": 0.000560011,
  "FlipAngle": 52,
  "HeudiconvVersion": "0.5.3.post811+g6206e14",
  "ImageComments": "Unaliased MB4/PE3/LB",
  "ImageOrientationPatientDICOM": [0.999602, -0.0273555, -0.00689256, 0.0226842, 0.924673, -0.380086],
  "ImageOrientationText": "Tra>Cor(-22.3)>Sag(-1.0)",
  "ImageType": [
    "ORIGINAL",
    "PRIMARY",
    "M",
    "MB",
    "ND",
    "MOSAIC"
],
  "ImagingFrequency": 123.259,
  "InPlanePhaseEncodingDirectionDICOM": "COL",
  "InstitutionAddress": "Chemin Queen-Mary 4565,Montreal,District,CA,H3W 1W5",
  "InstitutionName": "IUGM",
  "InstitutionalDepartmentName": "Department",
  "MRAcquisitionType": "2D",
  "MagneticFieldStrength": 3,
  "Manufacturer": "Siemens",
  "ManufacturersModelName": "Prisma_fit",
  "MatrixCoilMode": "SENSE",
  "Modality": "MR",
  "MultibandAccelerationFactor": 4,
  "PartialFourier": 1,
  "PatientPosition": "HFS",
  "PercentPhaseFOV": 100,
  "PercentSampling": 100,
  "PhaseEncodingDirection": "j",
  "PhaseEncodingSteps": 104,
  "PhaseResolution": 1,
  "PixelBandwidth": 2290,
  "ProcedureStepDescription": "video^friends",
  "ProtocolName": "func_task-friends-s06e06b",
  "PulseSequenceDetails": "%CustomerSeq%\\cmrr_mbep2d_bold",
  "ReceiveCoilActiveElements": "HC1-7;NC1,2",
  "ReceiveCoilName": "HeadNeck_64",
  "ReconMatrixPE": 104,
  "RepetitionTime": 1.49,
  "SAR": 0.0999375,
  "ScanOptions": "FS",
  "ScanningSequence": "EP",
  "SequenceName": "epfid2d1_104",
  "SequenceVariant": "SK\\SS",
  "SeriesDescription": "func_task-friends-s06e06b",
  "SeriesNumber": 20,
  "ShimSetting": [606, -7264, -8837, 371, 13, -412, 10, 13],
  "SliceThickness": 2,
  "SliceTiming": [0, 0.785, 0.1, 0.8825, 0.1975, 0.98, 0.295, 1.08, 0.3925, 1.1775, 0.49, 1.275, 0.59, 1.3725, 0.6875, 0, 0.785, 0.1, 0.8825, 0.1975, 0.98, 0.295, 1.08, 0.3925, 1.1775, 0.49, 1.275, 0.59, 1.3725, 0.6875, 0, 0.785, 0.1, 0.8825, 0.1975, 0.98, 0.295, 1.08, 0.3925, 1.1775, 0.49, 1.275, 0.59, 1.3725, 0.6875, 0, 0.785, 0.1, 0.8825, 0.1975, 0.98, 0.295, 1.08, 0.3925, 1.1775, 0.49, 1.275, 0.59, 1.3725, 0.6875],
  "SoftwareVersions": "syngo MR E11",
  "SpacingBetweenSlices": 2,
  "StationName": "MRC35049",
  "TaskName": "s06e06b",
  "TotalReadoutTime": 0.0576811,
  "TxRefAmp": 329.197,
  "WipMemBlock": "c0b6f64f-aa62-4fe3-a446-8f552c934c2d||Sequence: R017 ve11c/master r/75a17815+; Jun 28 2022 16:32:11 by eja",
  "dcmmeta_affine": [
    [-1.9992040395736694, 0.04536836966872215, -0.03354163467884064, 97.73622131347656],
    [0.05471106246113777, 1.8493460416793823, -0.7595564723014832, -72.42237091064453],
    [-0.013785123825073242, 0.76017165184021, 1.849851131439209, -69.73092651367188],
    [0.0, 0.0, 0.0, 1.0]
],
  "dcmmeta_reorient_transform": [
    [0.0, -1.0, 0.0, 103.0],
    [1.0, 0.0, 0.0, 0.0],
    [0.0, 0.0, 1.0, 0.0],
    [0.0, 0.0, 0.0, 1.0]
],
  "dcmmeta_shape": [104, 104, 60, 478],
  "dcmmeta_slice_dim": 2,
  "dcmmeta_version": 0.6,
  "global": {
    "const": {
      "AcquisitionMatrix": [104, 0, 0, 104],
      "AngioFlag": "N",
      "BitsAllocated": 16,
      "BitsStored": 16,
      "BodyPartExamined": "BRAIN",
      "Columns": 832,
      "EchoNumbers": 1,
      "EchoTime": 37.0,
      "EchoTrainLength": 104,
      "FlipAngle": 52.0,
      "HighBit": 15,
      "ImageOrientationPatient": [0.99960200453514, -0.0273555317376, -0.0068925621277, 0.02268418499926, 0.92467301566864, -0.3800858348389],
      "ImagePositionPatient": [-846.63350578599, -771.30740062846, 290.28702732906],
      "ImageType": [
        "ORIGINAL",
        "PRIMARY",
        "M",
        "MB",
        "ND",
        "MOSAIC"
],
      "ImagedNucleus": "1H",
      "ImagingFrequency": 123.258804,
      "InPlanePhaseEncodingDirection": "COL",
      "MRAcquisitionType": "2D",
      "MagneticFieldStrength": 3.0,
      "Manufacturer": "SIEMENS",
      "ManufacturerModelName": "Prisma_fit",
      "Modality": "MR",
      "NumberOfAverages": 1.0,
      "NumberOfPhaseEncodingSteps": 104,
      "PercentPhaseFieldOfView": 100.0,
      "PercentSampling": 100.0,
      "PerformedProcedureStepStartTime": "173243.608000",
      "PhotometricInterpretation": "MONOCHROME2",
      "PixelBandwidth": 2290.0,
      "PixelRepresentation": 0,
      "PixelSpacing": [2.0, 2.0],
      "ProtocolName": "func_task-friends-s06e06b",
      "RepetitionTime": 1490.0,
      "Rows": 832,
      "SAR": 0.09993753503673,
      "SamplesPerPixel": 1,
      "ScanOptions": "FS",
      "ScanningSequence": "EP",
      "SequenceName": "epfid2d1_104",
      "SequenceVariant": [
        "SK",
        "SS"
],
      "SeriesDescription": "func_task-friends-s06e06b",
      "SeriesNumber": 20,
      "SeriesTime": "184226.368000",
      "SliceLocation": -38.630594270629,
      "SliceThickness": 2.0,
      "SmallestImagePixelValue": 0,
      "SoftwareVersions": "syngo MR E11",
      "SpacingBetweenSlices": 2.0000000773826,
      "SpecificCharacterSet": "ISO_IR 100",
      "StudyID": "1",
      "StudyTime": "173243.528000",
      "TransmitCoilName": "Body",
      "VariableFlipAngleFlag": "N",
      "WindowCenterWidthExplanation": "Algo1",
      "dBdt": 0.0},
    "slices": {}
  },
  "time": {
    "samples": {
      "AcquisitionNumber": [1, 2, 3, 4, 5, 6, 7, 8, 9, 10, 11, 12, 13, 14, 15, 16, 17, 18, 19, 20, 21, 22, 23, 24, 25, 26, 27, 28, 29, 30, 31, 32, 33, 34, 35, 36, 37, 38, 39, 40, 41, 42, 43, 44, 45, 46, 47, 48, 49, 50, 51, 52, 53, 54, 55, 56, 57, 58, 59, 60, 61, 62, 63, 64, 65, 66, 67, 68, 69, 70, 71, 72, 73, 74, 75, 76, 77, 78, 79, 80, 81, 82, 83, 84, 85, 86, 87, 88, 89, 90, 91, 92, 93, 94, 95, 96, 97, 98, 99, 100, 101, 102, 103, 104, 105, 106, 107, 108, 109, 110, 111, 112, 113, 114, 115, 116, 117, 118, 119, 120, 121, 122, 123, 124, 125, 126, 127, 128, 129, 130, 131, 132, 133, 134, 135, 136, 137, 138, 139, 140, 141, 142, 143, 144, 145, 146, 147, 148, 149, 150, 151, 152, 153, 154, 155, 156, 157, 158, 159, 160, 161, 162, 163, 164, 165, 166, 167, 168, 169, 170, 171, 172, 173, 174, 175, 176, 177, 178, 179, 180, 181, 182, 183, 184, 185, 186, 187, 188, 189, 190, 191, 192, 193, 194, 195, 196, 197, 198, 199, 200, 201, 202, 203, 204, 205, 206, 207, 208, 209, 210, 211, 212, 213, 214, 215, 216, 217, 218, 219, 220, 221, 222, 223, 224, 225, 226, 227, 228, 229, 230, 231, 232, 233, 234, 235, 236, 237, 238, 239, 240, 241, 242, 243, 244, 245, 246, 247, 248, 249, 250, 251, 252, 253, 254, 255, 256, 257, 258, 259, 260, 261, 262, 263, 264, 265, 266, 267, 268, 269, 270, 271, 272, 273, 274, 275, 276, 277, 278, 279, 280, 281, 282, 283, 284, 285, 286, 287, 288, 289, 290, 291, 292, 293, 294, 295, 296, 297, 298, 299, 300, 301, 302, 303, 304, 305, 306, 307, 308, 309, 310, 311, 312, 313, 314, 315, 316, 317, 318, 319, 320, 321, 322, 323, 324, 325, 326, 327, 328, 329, 330, 331, 332, 333, 334, 335, 336, 337, 338, 339, 340, 341, 342, 343, 344, 345, 346, 347, 348, 349, 350, 351, 352, 353, 354, 355, 356, 357, 358, 359, 360, 361, 362, 363, 364, 365, 366, 367, 368, 369, 370, 371, 372, 373, 374, 375, 376, 377, 378, 379, 380, 381, 382, 383, 384, 385, 386, 387, 388, 389, 390, 391, 392, 393, 394, 395, 396, 397, 398, 399, 400, 401, 402, 403, 404, 405, 406, 407, 408, 409, 410, 411, 412, 413, 414, 415, 416, 417, 418, 419, 420, 421, 422, 423, 424, 425, 426, 427, 428, 429, 430, 431, 432, 433, 434, 435, 436, 437, 438, 439, 440, 441, 442, 443, 444, 445, 446, 447, 448, 449, 450, 451, 452, 453, 454, 455, 456, 457, 458, 459, 460, 461, 462, 463, 464, 465, 466, 467, 468, 469, 470, 471, 472, 473, 474, 475, 476, 477, 478],
      "AcquisitionTime": ["184058.380000", "184059.870000", "184101.360000", "184102.850000", "184104.340000", "184105.830000", "184107.320000", "184108.810000", "184110.300000", "184111.790000", "184113.280000", "184114.770000", "184116.260000", "184117.750000", "184119.240000", "184120.730000", "184122.220000", "184123.710000", "184125.200000", "184126.690000", "184128.180000", "184129.670000", "184131.160000", "184132.650000", "184134.140000", "184135.630000", "184137.120000", "184138.610000", "184140.100000", "184141.590000", "184143.080000", "184144.570000", "184146.060000", "184147.550000", "184149.040000", "184150.530000", "184152.020000", "184153.510000", "184155.000000", "184156.490000", "184157.980000", "184159.470000", "184200.960000", "184202.450000", "184203.940000", "184205.430000", "184206.920000", "184208.410000", "184209.900000", "184211.390000", "184212.880000", "184214.370000", "184215.860000", "184217.350000", "184218.840000", "184220.330000", "184221.820000", "184223.310000", "184224.800000", "184226.290000", "184227.780000", "184229.270000", "184230.760000", "184232.250000", "184233.740000", "184235.230000", "184236.720000", "184238.210000", "184239.700000", "184241.190000", "184242.680000", "184244.170000", "184245.660000", "184247.150000", "184248.640000", "184250.130000", "184251.620000", "184253.110000", "184254.600000", "184256.090000", "184257.580000", "184259.070000", "184300.560000", "184302.050000", "184303.540000", "184305.030000", "184306.520000", "184308.010000", "184309.500000", "184310.990000", "184312.480000", "184313.970000", "184315.460000", "184316.950000", "184318.440000", "184319.930000", "184321.420000", "184322.910000", "184324.400000", "184325.890000", "184327.380000", "184328.870000", "184330.360000", "184331.850000", "184333.340000", "184334.830000", "184336.320000", "184337.810000", "184339.300000", "184340.790000", "184342.280000", "184343.770000", "184345.260000", "184346.750000", "184348.240000", "184349.730000", "184351.220000", "184352.710000", "184354.200000", "184355.690000", "184357.180000", "184358.670000", "184400.160000", "184401.650000", "184403.140000", "184404.630000", "184406.120000", "184407.610000", "184409.100000", "184410.590000", "184412.080000", "184413.570000", "184415.060000", "184416.550000", "184418.040000", "184419.530000", "184421.020000", "184422.510000", "184424.000000", "184425.490000", "184426.980000", "184428.470000", "184429.960000", "184431.450000", "184432.940000", "184434.430000", "184435.920000", "184437.410000", "184438.900000", "184440.390000", "184441.880000", "184443.370000", "184444.860000", "184446.350000", "184447.840000", "184449.330000", "184450.820000", "184452.310000", "184453.800000", "184455.290000", "184456.780000", "184458.270000", "184459.760000", "184501.250000", "184502.740000", "184504.230000", "184505.720000", "184507.210000", "184508.700000", "184510.190000", "184511.680000", "184513.170000", "184514.660000", "184516.150000", "184517.640000", "184519.130000", "184520.620000", "184522.110000", "184523.600000", "184525.090000", "184526.580000", "184528.070000", "184529.560000", "184531.050000", "184532.540000", "184534.030000", "184535.520000", "184537.010000", "184538.500000", "184539.990000", "184541.480000", "184542.970000", "184544.460000", "184545.950000", "184547.440000", "184548.930000", "184550.420000", "184551.910000", "184553.400000", "184554.890000", "184556.380000", "184557.870000", "184559.360000", "184600.850000", "184602.340000", "184603.830000", "184605.320000", "184606.810000", "184608.300000", "184609.790000", "184611.280000", "184612.770000", "184614.260000", "184615.750000", "184617.240000", "184618.730000", "184620.220000", "184621.710000", "184623.200000", "184624.690000", "184626.180000", "184627.670000", "184629.160000", "184630.650000", "184632.140000", "184633.630000", "184635.120000", "184636.610000", "184638.100000", "184639.590000", "184641.080000", "184642.570000", "184644.060000", "184645.550000", "184647.040000", "184648.530000", "184650.020000", "184651.510000", "184653.000000", "184654.490000", "184655.980000", "184657.470000", "184658.960000", "184700.450000", "184701.940000", "184703.430000", "184704.920000", "184706.410000", "184707.900000", "184709.390000", "184710.880000", "184712.370000", "184713.860000", "184715.350000", "184716.840000", "184718.330000", "184719.820000", "184721.310000", "184722.800000", "184724.290000", "184725.780000", "184727.270000", "184728.760000", "184730.250000", "184731.740000", "184733.230000", "184734.720000", "184736.210000", "184737.700000", "184739.190000", "184740.680000", "184742.170000", "184743.660000", "184745.150000", "184746.640000", "184748.130000", "184749.620000", "184751.110000", "184752.600000", "184754.090000", "184755.580000", "184757.070000", "184758.560000", "184800.050000", "184801.540000", "184803.030000", "184804.520000", "184806.010000", "184807.500000", "184808.990000", "184810.480000", "184811.970000", "184813.460000", "184814.950000", "184816.440000", "184817.930000", "184819.420000", "184820.910000", "184822.400000", "184823.890000", "184825.380000", "184826.870000", "184828.360000", "184829.850000", "184831.340000", "184832.830000", "184834.320000", "184835.810000", "184837.300000", "184838.790000", "184840.280000", "184841.770000", "184843.260000", "184844.750000", "184846.240000", "184847.730000", "184849.220000", "184850.710000", "184852.200000", "184853.690000", "184855.180000", "184856.670000", "184858.160000", "184859.650000", "184901.140000", "184902.630000", "184904.120000", "184905.610000", "184907.100000", "184908.590000", "184910.080000", "184911.570000", "184913.060000", "184914.550000", "184916.040000", "184917.530000", "184919.020000", "184920.510000", "184922.000000", "184923.490000", "184924.980000", "184926.470000", "184927.960000", "184929.450000", "184930.940000", "184932.430000", "184933.920000", "184935.410000", "184936.900000", "184938.390000", "184939.880000", "184941.370000", "184942.860000", "184944.350000", "184945.840000", "184947.330000", "184948.820000", "184950.310000", "184951.800000", "184953.290000", "184954.780000", "184956.270000", "184957.760000", "184959.250000", "185000.740000", "185002.230000", "185003.720000", "185005.210000", "185006.700000", "185008.190000", "185009.680000", "185011.170000", "185012.660000", "185014.150000", "185015.640000", "185017.130000", "185018.620000", "185020.110000", "185021.600000", "185023.090000", "185024.580000", "185026.070000", "185027.560000", "185029.050000", "185030.540000", "185032.030000", "185033.520000", "185035.010000", "185036.500000", "185037.990000", "185039.480000", "185040.970000", "185042.460000", "185043.950000", "185045.440000", "185046.930000", "185048.420000", "185049.910000", "185051.400000", "185052.890000", "185054.380000", "185055.870000", "185057.360000", "185058.850000", "185100.340000", "185101.830000", "185103.320000", "185104.810000", "185106.300000", "185107.790000", "185109.280000", "185110.770000", "185112.260000", "185113.750000", "185115.240000", "185116.730000", "185118.220000", "185119.710000", "185121.200000", "185122.690000", "185124.180000", "185125.670000", "185127.160000", "185128.650000", "185130.140000", "185131.630000", "185133.120000", "185134.610000", "185136.100000", "185137.590000", "185139.080000", "185140.570000", "185142.060000", "185143.550000", "185145.040000", "185146.530000", "185148.020000", "185149.510000", "185151.000000", "185152.490000", "185153.980000", "185155.470000", "185156.960000", "185158.450000", "185159.940000", "185201.430000", "185202.920000", "185204.410000", "185205.900000", "185207.390000", "185208.880000", "185210.370000", "185211.860000", "185213.350000", "185214.840000", "185216.330000", "185217.820000", "185219.310000", "185220.800000", "185222.290000", "185223.780000", "185225.270000", "185226.760000", "185228.250000", "185229.740000", "185231.230000", "185232.720000", "185234.210000", "185235.700000", "185237.190000", "185238.680000", "185240.170000", "185241.660000", "185243.150000", "185244.640000", "185246.130000", "185247.620000", "185249.110000"],
      "ContentTime": ["184226.371000", "184226.374000", "184226.377000", "184226.380000", "184226.383000", "184226.386000", "184226.389000", "184226.392000", "184226.395000", "184226.398000", "184226.401000", "184226.404000", "184226.412000", "184226.415000", "184226.418000", "184226.421000", "184226.424000", "184226.427000", "184226.435000", "184226.438000", "184226.441000", "184226.443000", "184226.447000", "184226.449000", "184226.452000", "184226.455000", "184226.458000", "184226.461000", "184226.464000", "184226.467000", "184226.470000", "184226.473000", "184226.476000", "184226.478000", "184226.481000", "184226.484000", "184226.487000", "184226.490000", "184246.343000", "184246.346000", "184246.349000", "184246.352000", "184246.355000", "184246.358000", "184246.361000", "184246.364000", "184246.367000", "184246.370000", "184246.372000", "184246.375000", "184246.378000", "184246.381000", "184246.384000", "184246.387000", "184246.390000", "184246.393000", "184246.396000", "184246.399000", "184306.343000", "184306.346000", "184306.349000", "184306.352000", "184306.355000", "184306.357000", "184306.360000", "184306.363000", "184306.366000", "184306.369000", "184306.372000", "184306.375000", "184306.378000", "184306.381000", "184306.383000", "184306.386000", "184306.389000", "184306.392000", "184306.395000", "184306.398000", "184326.343000", "184326.354000", "184326.357000", "184326.360000", "184326.363000", "184326.366000", "184326.369000", "184326.372000", "184326.375000", "184326.378000", "184326.380000", "184326.383000", "184326.386000", "184326.389000", "184326.392000", "184326.395000", "184326.398000", "184326.401000", "184326.404000", "184326.407000", "184326.410000", "184406.343000", "184406.346000", "184406.349000", "184406.352000", "184406.355000", "184406.358000", "184406.361000", "184406.364000", "184406.367000", "184406.370000", "184406.373000", "184406.376000", "184406.378000", "184406.381000", "184406.384000", "184406.387000", "184406.390000", "184406.393000", "184406.396000", "184406.399000", "184406.402000", "184406.405000", "184406.408000", "184406.411000", "184406.414000", "184406.417000", "184406.420000", "184446.343000", "184446.346000", "184446.349000", "184446.352000", "184446.355000", "184446.358000", "184446.361000", "184446.364000", "184446.366000", "184446.369000", "184446.372000", "184446.375000", "184446.378000", "184446.381000", "184446.384000", "184446.387000", "184446.390000", "184446.393000", "184446.396000", "184446.399000", "184446.402000", "184446.405000", "184446.408000", "184446.411000", "184446.414000", "184446.417000", "184526.343000", "184526.346000", "184526.349000", "184526.352000", "184526.355000", "184526.358000", "184526.361000", "184526.364000", "184526.367000", "184526.370000", "184526.373000", "184526.376000", "184526.379000", "184526.382000", "184526.385000", "184526.388000", "184526.391000", "184526.393000", "184526.396000", "184526.399000", "184526.402000", "184526.405000", "184526.408000", "184526.411000", "184526.414000", "184526.417000", "184526.420000", "184606.343000", "184606.346000", "184606.349000", "184606.352000", "184606.355000", "184606.358000", "184606.361000", "184606.364000", "184606.377000", "184606.380000", "184606.383000", "184606.386000", "184606.389000", "184606.392000", "184606.395000", "184606.398000", "184606.400000", "184606.403000", "184606.406000", "184606.409000", "184606.412000", "184606.415000", "184606.418000", "184606.421000", "184606.424000", "184606.427000", "184606.430000", "184646.343000", "184646.346000", "184646.349000", "184646.352000", "184646.355000", "184646.358000", "184646.361000", "184646.364000", "184646.367000", "184646.370000", "184646.373000", "184646.376000", "184646.379000", "184646.382000", "184646.385000", "184646.388000", "184646.391000", "184646.394000", "184646.397000", "184646.400000", "184646.402000", "184646.406000", "184646.408000", "184646.411000", "184646.414000", "184646.417000", "184646.420000", "184726.343000", "184726.346000", "184726.349000", "184726.352000", "184726.355000", "184726.358000", "184726.361000", "184726.364000", "184726.367000", "184726.370000", "184726.373000", "184726.375000", "184726.378000", "184726.381000", "184726.384000", "184726.387000", "184726.390000", "184726.393000", "184726.396000", "184726.399000", "184726.402000", "184726.405000", "184726.408000", "184726.411000", "184726.414000", "184726.417000", "184726.420000", "184806.343000", "184806.346000", "184806.349000", "184806.352000", "184806.355000", "184806.358000", "184806.361000", "184806.364000", "184806.367000", "184806.370000", "184806.373000", "184806.376000", "184806.379000", "184806.381000", "184806.384000", "184806.387000", "184806.390000", "184806.393000", "184806.396000", "184806.399000", "184806.402000", "184806.405000", "184806.408000", "184806.411000", "184806.414000", "184806.417000", "184806.420000", "184826.343000", "184826.346000", "184826.357000", "184826.359000", "184826.362000", "184826.365000", "184826.368000", "184826.371000", "184826.374000", "184826.377000", "184826.380000", "184826.383000", "184826.386000", "184906.343000", "184906.346000", "184906.349000", "184906.352000", "184906.355000", "184906.358000", "184906.361000", "184906.364000", "184906.367000", "184906.370000", "184906.373000", "184906.376000", "184906.379000", "184906.382000", "184906.385000", "184906.388000", "184906.391000", "184906.394000", "184906.396000", "184906.399000", "184906.402000", "184906.405000", "184906.408000", "184906.411000", "184906.414000", "184906.417000", "184906.420000", "184946.343000", "184946.346000", "184946.349000", "184946.352000", "184946.355000", "184946.358000", "184946.361000", "184946.364000", "184946.367000", "184946.370000", "184946.373000", "184946.376000", "184946.379000", "184946.382000", "184946.385000", "184946.388000", "184946.391000", "184946.394000", "184946.397000", "184946.399000", "184946.402000", "184946.405000", "184946.408000", "184946.411000", "184946.414000", "184946.417000", "184946.420000", "185026.343000", "185026.346000", "185026.349000", "185026.352000", "185026.355000", "185026.358000", "185026.361000", "185026.364000", "185026.367000", "185026.370000", "185026.373000", "185026.376000", "185026.379000", "185026.382000", "185026.384000", "185026.387000", "185026.390000", "185026.393000", "185026.396000", "185026.399000", "185026.402000", "185026.418000", "185026.421000", "185026.424000", "185026.427000", "185026.430000", "185026.433000", "185106.343000", "185106.346000", "185106.349000", "185106.352000", "185106.355000", "185106.358000", "185106.361000", "185106.364000", "185106.367000", "185106.370000", "185106.373000", "185106.376000", "185106.379000", "185106.382000", "185106.385000", "185106.388000", "185106.391000", "185106.394000", "185106.397000", "185106.400000", "185106.404000", "185106.407000", "185106.410000", "185106.413000", "185106.416000", "185106.419000", "185146.342000", "185146.345000", "185146.348000", "185146.351000", "185146.354000", "185146.357000", "185146.360000", "185146.363000", "185146.366000", "185146.369000", "185146.372000", "185146.375000", "185146.378000", "185146.381000", "185146.384000", "185146.387000", "185146.389000", "185146.392000", "185146.395000", "185146.398000", "185146.401000", "185146.404000", "185146.407000", "185146.410000", "185146.413000", "185146.416000", "185146.419000", "185226.343000", "185226.346000", "185226.349000", "185226.352000", "185226.355000", "185226.358000", "185226.361000", "185226.364000", "185226.367000", "185226.370000", "185226.373000", "185226.376000", "185226.379000", "185226.382000", "185226.385000", "185226.388000", "185226.391000", "185226.394000", "185226.397000", "185226.399000", "185226.402000", "185226.405000", "185226.408000", "185226.411000", "185226.414000", "185226.417000", "185226.420000", "185250.771000", "185250.775000", "185250.778000", "185250.780000", "185250.794000", "185250.797000", "185250.800000", "185250.803000", "185250.806000", "185250.809000", "185250.812000", "185250.815000", "185250.818000", "185250.821000", "185250.824000", "185250.827000", "185250.830000"],
