{
  "AcquisitionMatrixPE": 104,
  "AcquisitionNumber": 1,
  "AcquisitionTime": "18:02:24.100000",
  "BandwidthPerPixelPhaseEncode": 17.17,
  "BaseResolution": 104,
  "BodyPartExamined": "BRAIN",
  "CoilCombinationMethod": "Sum of Squares",
  "ConsistencyInfo": "N4_VE11C_LATEST_20160120",
  "ConversionSoftware": "dcm2niix",
  "ConversionSoftwareVersion": "v1.0.20220505",
  "DerivedVendorReportedEchoSpacing": 0.000560011,
  "DeviceSerialNumber": "167006",
  "DwellTime": 2.1e-06,
  "EchoTime": 0.037,
  "EchoTrainLength": 104,
  "EffectiveEchoSpacing": 0.000560011,
  "FlipAngle": 52,
  "HeudiconvVersion": "0.5.3.post811+g6206e14",
  "ImageComments": "Unaliased MB4/PE3/LB",
  "ImageOrientationPatientDICOM": [0.999602, -0.0273555, -0.00689256, 0.0226842, 0.924673, -0.380086],
  "ImageOrientationText": "Tra>Cor(-22.3)>Sag(-1.0)",
  "ImageType": [
    "ORIGINAL",
    "PRIMARY",
    "M",
    "MB",
    "ND",
    "MOSAIC"
],
  "ImagingFrequency": 123.259,
  "InPlanePhaseEncodingDirectionDICOM": "COL",
  "InstitutionAddress": "Chemin Queen-Mary 4565,Montreal,District,CA,H3W 1W5",
  "InstitutionName": "IUGM",
  "InstitutionalDepartmentName": "Department",
  "MRAcquisitionType": "2D",
  "MagneticFieldStrength": 3,
  "Manufacturer": "Siemens",
  "ManufacturersModelName": "Prisma_fit",
  "MatrixCoilMode": "SENSE",
  "Modality": "MR",
  "MultibandAccelerationFactor": 4,
  "PartialFourier": 1,
  "PatientPosition": "HFS",
  "PercentPhaseFOV": 100,
  "PercentSampling": 100,
  "PhaseEncodingDirection": "j",
  "PhaseEncodingSteps": 104,
  "PhaseResolution": 1,
  "PixelBandwidth": 2290,
  "ProcedureStepDescription": "video^friends",
  "ProtocolName": "func_task-friends-s06e05a",
  "PulseSequenceDetails": "%CustomerSeq%\\cmrr_mbep2d_bold",
  "ReceiveCoilActiveElements": "HC1-7;NC1,2",
  "ReceiveCoilName": "HeadNeck_64",
  "ReconMatrixPE": 104,
  "RepetitionTime": 1.49,
  "SAR": 0.0999375,
  "ScanOptions": "FS",
  "ScanningSequence": "EP",
  "SequenceName": "epfid2d1_104",
  "SequenceVariant": "SK\\SS",
  "SeriesDescription": "func_task-friends-s06e05a",
  "SeriesNumber": 14,
  "ShimSetting": [606, -7264, -8837, 371, 13, -412, 10, 13],
  "SliceThickness": 2,
  "SliceTiming": [0, 0.785, 0.0975, 0.8825, 0.195, 0.98, 0.295, 1.0775, 0.3925, 1.175, 0.49, 1.275, 0.5875, 1.3725, 0.685, 0, 0.785, 0.0975, 0.8825, 0.195, 0.98, 0.295, 1.0775, 0.3925, 1.175, 0.49, 1.275, 0.5875, 1.3725, 0.685, 0, 0.785, 0.0975, 0.8825, 0.195, 0.98, 0.295, 1.0775, 0.3925, 1.175, 0.49, 1.275, 0.5875, 1.3725, 0.685, 0, 0.785, 0.0975, 0.8825, 0.195, 0.98, 0.295, 1.0775, 0.3925, 1.175, 0.49, 1.275, 0.5875, 1.3725, 0.685],
  "SoftwareVersions": "syngo MR E11",
  "SpacingBetweenSlices": 2,
  "StationName": "MRC35049",
  "TaskName": "s06e05a",
  "TotalReadoutTime": 0.0576811,
  "TxRefAmp": 329.197,
  "WipMemBlock": "ef74566d-c786-462d-9a51-64d1bf50babc||Sequence: R017 ve11c/master r/75a17815+; Jun 28 2022 16:32:11 by eja",
  "dcmmeta_affine": [
    [-1.9992040395736694, 0.04536836966872215, -0.03354163467884064, 97.73622131347656],
    [0.05471106246113777, 1.8493460416793823, -0.7595564723014832, -72.42237091064453],
    [-0.013785123825073242, 0.76017165184021, 1.849851131439209, -69.73092651367188],
    [0.0, 0.0, 0.0, 1.0]
],
  "dcmmeta_reorient_transform": [
    [0.0, -1.0, 0.0, 103.0],
    [1.0, 0.0, 0.0, 0.0],
    [0.0, 0.0, 1.0, 0.0],
    [0.0, 0.0, 0.0, 1.0]
],
  "dcmmeta_shape": [104, 104, 60, 452],
  "dcmmeta_slice_dim": 2,
  "dcmmeta_version": 0.6,
  "global": {
    "const": {
      "AcquisitionMatrix": [104, 0, 0, 104],
      "AngioFlag": "N",
      "BitsAllocated": 16,
      "BitsStored": 16,
      "BodyPartExamined": "BRAIN",
      "Columns": 832,
      "EchoNumbers": 1,
      "EchoTime": 37.0,
      "EchoTrainLength": 104,
      "FlipAngle": 52.0,
      "HighBit": 15,
      "ImageOrientationPatient": [0.99960200453514, -0.0273555317376, -0.0068925621277, 0.02268418499926, 0.92467301566864, -0.3800858348389],
      "ImagePositionPatient": [-846.63350578599, -771.30740062846, 290.28702732906],
      "ImageType": [
        "ORIGINAL",
        "PRIMARY",
        "M",
        "MB",
        "ND",
        "MOSAIC"
],
      "ImagedNucleus": "1H",
      "ImagingFrequency": 123.258799,
      "InPlanePhaseEncodingDirection": "COL",
      "MRAcquisitionType": "2D",
      "MagneticFieldStrength": 3.0,
      "Manufacturer": "SIEMENS",
      "ManufacturerModelName": "Prisma_fit",
      "Modality": "MR",
      "NumberOfAverages": 1.0,
      "NumberOfPhaseEncodingSteps": 104,
      "PercentPhaseFieldOfView": 100.0,
      "PercentSampling": 100.0,
      "PerformedProcedureStepStartTime": "173243.608000",
      "PhotometricInterpretation": "MONOCHROME2",
      "PixelBandwidth": 2290.0,
      "PixelRepresentation": 0,
      "PixelSpacing": [2.0, 2.0],
      "ProtocolName": "func_task-friends-s06e05a",
      "RepetitionTime": 1490.0,
      "Rows": 832,
      "SAR": 0.0999375232173,
      "SamplesPerPixel": 1,
      "ScanOptions": "FS",
      "ScanningSequence": "EP",
      "SequenceName": "epfid2d1_104",
      "SequenceVariant": [
        "SK",
        "SS"
],
      "SeriesDescription": "func_task-friends-s06e05a",
      "SeriesNumber": 14,
      "SeriesTime": "180346.371000",
      "SliceLocation": -38.630594270629,
      "SliceThickness": 2.0,
      "SmallestImagePixelValue": 0,
      "SoftwareVersions": "syngo MR E11",
      "SpacingBetweenSlices": 2.0000000773826,
      "SpecificCharacterSet": "ISO_IR 100",
      "StudyID": "1",
      "StudyTime": "173243.528000",
      "TransmitCoilName": "Body",
      "VariableFlipAngleFlag": "N",
      "WindowCenterWidthExplanation": "Algo1",
      "dBdt": 0.0},
    "slices": {}
  },
  "time": {
    "samples": {
      "AcquisitionNumber": [1, 2, 3, 4, 5, 6, 7, 8, 9, 10, 11, 12, 13, 14, 15, 16, 17, 18, 19, 20, 21, 22, 23, 24, 25, 26, 27, 28, 29, 30, 31, 32, 33, 34, 35, 36, 37, 38, 39, 40, 41, 42, 43, 44, 45, 46, 47, 48, 49, 50, 51, 52, 53, 54, 55, 56, 57, 58, 59, 60, 61, 62, 63, 64, 65, 66, 67, 68, 69, 70, 71, 72, 73, 74, 75, 76, 77, 78, 79, 80, 81, 82, 83, 84, 85, 86, 87, 88, 89, 90, 91, 92, 93, 94, 95, 96, 97, 98, 99, 100, 101, 102, 103, 104, 105, 106, 107, 108, 109, 110, 111, 112, 113, 114, 115, 116, 117, 118, 119, 120, 121, 122, 123, 124, 125, 126, 127, 128, 129, 130, 131, 132, 133, 134, 135, 136, 137, 138, 139, 140, 141, 142, 143, 144, 145, 146, 147, 148, 149, 150, 151, 152, 153, 154, 155, 156, 157, 158, 159, 160, 161, 162, 163, 164, 165, 166, 167, 168, 169, 170, 171, 172, 173, 174, 175, 176, 177, 178, 179, 180, 181, 182, 183, 184, 185, 186, 187, 188, 189, 190, 191, 192, 193, 194, 195, 196, 197, 198, 199, 200, 201, 202, 203, 204, 205, 206, 207, 208, 209, 210, 211, 212, 213, 214, 215, 216, 217, 218, 219, 220, 221, 222, 223, 224, 225, 226, 227, 228, 229, 230, 231, 232, 233, 234, 235, 236, 237, 238, 239, 240, 241, 242, 243, 244, 245, 246, 247, 248, 249, 250, 251, 252, 253, 254, 255, 256, 257, 258, 259, 260, 261, 262, 263, 264, 265, 266, 267, 268, 269, 270, 271, 272, 273, 274, 275, 276, 277, 278, 279, 280, 281, 282, 283, 284, 285, 286, 287, 288, 289, 290, 291, 292, 293, 294, 295, 296, 297, 298, 299, 300, 301, 302, 303, 304, 305, 306, 307, 308, 309, 310, 311, 312, 313, 314, 315, 316, 317, 318, 319, 320, 321, 322, 323, 324, 325, 326, 327, 328, 329, 330, 331, 332, 333, 334, 335, 336, 337, 338, 339, 340, 341, 342, 343, 344, 345, 346, 347, 348, 349, 350, 351, 352, 353, 354, 355, 356, 357, 358, 359, 360, 361, 362, 363, 364, 365, 366, 367, 368, 369, 370, 371, 372, 373, 374, 375, 376, 377, 378, 379, 380, 381, 382, 383, 384, 385, 386, 387, 388, 389, 390, 391, 392, 393, 394, 395, 396, 397, 398, 399, 400, 401, 402, 403, 404, 405, 406, 407, 408, 409, 410, 411, 412, 413, 414, 415, 416, 417, 418, 419, 420, 421, 422, 423, 424, 425, 426, 427, 428, 429, 430, 431, 432, 433, 434, 435, 436, 437, 438, 439, 440, 441, 442, 443, 444, 445, 446, 447, 448, 449, 450, 451, 452],
      "AcquisitionTime": ["180224.100000", "180225.590000", "180227.080000", "180228.570000", "180230.060000", "180231.550000", "180233.040000", "180234.530000", "180236.020000", "180237.510000", "180239.000000", "180240.490000", "180241.980000", "180243.470000", "180244.960000", "180246.450000", "180247.940000", "180249.430000", "180250.920000", "180252.410000", "180253.900000", "180255.390000", "180256.880000", "180258.370000", "180259.860000", "180301.350000", "180302.840000", "180304.330000", "180305.820000", "180307.310000", "180308.800000", "180310.290000", "180311.780000", "180313.270000", "180314.760000", "180316.250000", "180317.740000", "180319.230000", "180320.720000", "180322.210000", "180323.700000", "180325.190000", "180326.680000", "180328.170000", "180329.660000", "180331.150000", "180332.640000", "180334.130000", "180335.620000", "180337.110000", "180338.600000", "180340.090000", "180341.580000", "180343.070000", "180344.560000", "180346.050000", "180347.540000", "180349.030000", "180350.520000", "180352.010000", "180353.500000", "180354.990000", "180356.480000", "180357.970000", "180359.460000", "180400.950000", "180402.440000", "180403.930000", "180405.420000", "180406.910000", "180408.400000", "180409.890000", "180411.380000", "180412.870000", "180414.360000", "180415.850000", "180417.340000", "180418.830000", "180420.320000", "180421.810000", "180423.300000", "180424.790000", "180426.280000", "180427.770000", "180429.260000", "180430.750000", "180432.240000", "180433.730000", "180435.220000", "180436.710000", "180438.200000", "180439.690000", "180441.180000", "180442.670000", "180444.160000", "180445.650000", "180447.140000", "180448.630000", "180450.120000", "180451.610000", "180453.100000", "180454.590000", "180456.080000", "180457.570000", "180459.060000", "180500.550000", "180502.040000", "180503.530000", "180505.020000", "180506.510000", "180508.000000", "180509.490000", "180510.980000", "180512.470000", "180513.960000", "180515.450000", "180516.940000", "180518.430000", "180519.920000", "180521.410000", "180522.900000", "180524.390000", "180525.880000", "180527.370000", "180528.860000", "180530.350000", "180531.840000", "180533.330000", "180534.820000", "180536.310000", "180537.800000", "180539.290000", "180540.780000", "180542.270000", "180543.760000", "180545.250000", "180546.740000", "180548.230000", "180549.720000", "180551.210000", "180552.700000", "180554.190000", "180555.680000", "180557.170000", "180558.660000", "180600.150000", "180601.640000", "180603.130000", "180604.620000", "180606.110000", "180607.600000", "180609.090000", "180610.580000", "180612.070000", "180613.560000", "180615.050000", "180616.540000", "180618.030000", "180619.520000", "180621.010000", "180622.500000", "180623.990000", "180625.480000", "180626.970000", "180628.460000", "180629.950000", "180631.440000", "180632.930000", "180634.420000", "180635.910000", "180637.400000", "180638.890000", "180640.380000", "180641.870000", "180643.360000", "180644.850000", "180646.340000", "180647.830000", "180649.320000", "180650.810000", "180652.300000", "180653.790000", "180655.280000", "180656.770000", "180658.260000", "180659.750000", "180701.240000", "180702.730000", "180704.220000", "180705.710000", "180707.200000", "180708.690000", "180710.180000", "180711.670000", "180713.160000", "180714.650000", "180716.140000", "180717.630000", "180719.120000", "180720.610000", "180722.100000", "180723.590000", "180725.080000", "180726.570000", "180728.060000", "180729.550000", "180731.040000", "180732.530000", "180734.020000", "180735.510000", "180737.000000", "180738.490000", "180739.980000", "180741.470000", "180742.960000", "180744.450000", "180745.940000", "180747.430000", "180748.920000", "180750.410000", "180751.900000", "180753.390000", "180754.880000", "180756.370000", "180757.860000", "180759.350000", "180800.840000", "180802.330000", "180803.820000", "180805.310000", "180806.800000", "180808.290000", "180809.780000", "180811.270000", "180812.760000", "180814.250000", "180815.740000", "180817.230000", "180818.720000", "180820.210000", "180821.700000", "180823.190000", "180824.680000", "180826.170000", "180827.660000", "180829.150000", "180830.640000", "180832.130000", "180833.620000", "180835.110000", "180836.600000", "180838.090000", "180839.580000", "180841.070000", "180842.560000", "180844.050000", "180845.540000", "180847.030000", "180848.520000", "180850.010000", "180851.500000", "180852.990000", "180854.480000", "180855.970000", "180857.460000", "180858.950000", "180900.440000", "180901.930000", "180903.420000", "180904.910000", "180906.400000", "180907.890000", "180909.380000", "180910.870000", "180912.360000", "180913.850000", "180915.340000", "180916.830000", "180918.320000", "180919.810000", "180921.300000", "180922.790000", "180924.280000", "180925.770000", "180927.260000", "180928.750000", "180930.240000", "180931.730000", "180933.220000", "180934.710000", "180936.200000", "180937.690000", "180939.180000", "180940.670000", "180942.160000", "180943.650000", "180945.140000", "180946.630000", "180948.120000", "180949.610000", "180951.100000", "180952.590000", "180954.080000", "180955.570000", "180957.060000", "180958.550000", "181000.040000", "181001.530000", "181003.020000", "181004.510000", "181006.000000", "181007.490000", "181008.980000", "181010.470000", "181011.960000", "181013.450000", "181014.940000", "181016.430000", "181017.920000", "181019.410000", "181020.900000", "181022.390000", "181023.880000", "181025.370000", "181026.860000", "181028.350000", "181029.840000", "181031.330000", "181032.820000", "181034.310000", "181035.800000", "181037.290000", "181038.780000", "181040.270000", "181041.760000", "181043.250000", "181044.740000", "181046.230000", "181047.720000", "181049.210000", "181050.700000", "181052.190000", "181053.680000", "181055.170000", "181056.660000", "181058.150000", "181059.640000", "181101.130000", "181102.620000", "181104.110000", "181105.600000", "181107.090000", "181108.580000", "181110.070000", "181111.560000", "181113.050000", "181114.540000", "181116.030000", "181117.520000", "181119.010000", "181120.500000", "181121.990000", "181123.480000", "181124.970000", "181126.460000", "181127.950000", "181129.440000", "181130.930000", "181132.420000", "181133.910000", "181135.400000", "181136.890000", "181138.380000", "181139.870000", "181141.360000", "181142.850000", "181144.340000", "181145.830000", "181147.320000", "181148.810000", "181150.300000", "181151.790000", "181153.280000", "181154.770000", "181156.260000", "181157.750000", "181159.240000", "181200.730000", "181202.220000", "181203.710000", "181205.200000", "181206.690000", "181208.180000", "181209.670000", "181211.160000", "181212.650000", "181214.140000", "181215.630000", "181217.120000", "181218.610000", "181220.100000", "181221.590000", "181223.080000", "181224.570000", "181226.060000", "181227.550000", "181229.040000", "181230.530000", "181232.020000", "181233.510000", "181235.000000", "181236.490000", "181237.980000", "181239.470000", "181240.960000", "181242.450000", "181243.940000", "181245.430000", "181246.920000", "181248.410000", "181249.900000", "181251.390000", "181252.880000", "181254.370000", "181255.860000", "181257.350000", "181258.840000", "181300.330000", "181301.820000", "181303.310000", "181304.800000", "181306.290000", "181307.780000", "181309.270000", "181310.760000", "181312.250000", "181313.740000", "181315.230000", "181316.720000", "181318.210000", "181319.700000", "181321.190000", "181322.680000", "181324.170000", "181325.660000", "181327.150000", "181328.640000", "181330.130000", "181331.620000", "181333.110000", "181334.600000", "181336.090000"],
      "ContentTime": ["180346.373000", "180346.377000", "180346.380000", "180346.382000", "180346.385000", "180346.389000", "180346.392000", "180346.395000", "180346.398000", "180346.401000", "180346.404000", "180346.406000", "180346.409000", "180346.412000", "180346.415000", "180346.418000", "180346.421000", "180346.424000", "180346.427000", "180346.430000", "180346.439000", "180346.442000", "180346.445000", "180346.447000", "180346.450000", "180346.453000", "180346.456000", "180346.459000", "180346.462000", "180346.465000", "180346.468000", "180346.471000", "180406.343000", "180406.346000", "180406.349000", "180406.352000", "180406.355000", "180406.358000", "180406.360000", "180406.363000", "180406.366000", "180406.369000", "180406.372000", "180406.375000", "180406.378000", "180406.381000", "180406.384000", "180406.387000", "180406.390000", "180406.393000", "180406.395000", "180406.399000", "180426.343000", "180426.346000", "180426.349000", "180426.352000", "180426.355000", "180426.357000", "180426.360000", "180426.363000", "180426.366000", "180426.369000", "180426.372000", "180426.375000", "180426.388000", "180426.391000", "180426.394000", "180426.396000", "180426.399000", "180426.402000", "180426.405000", "180426.408000", "180446.343000", "180446.346000", "180446.349000", "180446.352000", "180446.355000", "180446.358000", "180446.360000", "180446.377000", "180446.380000", "180446.383000", "180446.386000", "180446.389000", "180446.392000", "180446.395000", "180446.397000", "180446.400000", "180446.403000", "180446.406000", "180446.409000", "180446.412000", "180526.342000", "180526.345000", "180526.348000", "180526.351000", "180526.354000", "180526.357000", "180526.360000", "180526.363000", "180526.366000", "180526.368000", "180526.372000", "180526.374000", "180526.385000", "180526.388000", "180526.391000", "180526.394000", "180526.397000", "180526.400000", "180526.403000", "180526.405000", "180526.408000", "180526.411000", "180526.414000", "180526.417000", "180526.420000", "180526.423000", "180526.426000", "180526.429000", "180526.432000", "180606.343000", "180606.346000", "180606.349000", "180606.352000", "180606.355000", "180606.358000", "180606.361000", "180606.364000", "180606.367000", "180606.370000", "180606.372000", "180606.375000", "180606.378000", "180606.381000", "180606.384000", "180606.387000", "180606.390000", "180606.393000", "180606.396000", "180606.399000", "180606.402000", "180606.404000", "180606.407000", "180606.410000", "180606.413000", "180606.416000", "180606.419000", "180646.343000", "180646.346000", "180646.349000", "180646.352000", "180646.355000", "180646.358000", "180646.361000", "180646.364000", "180646.367000", "180646.370000", "180646.373000", "180646.376000", "180646.379000", "180646.381000", "180646.384000", "180646.387000", "180646.390000", "180646.393000", "180646.396000", "180646.399000", "180646.402000", "180646.405000", "180646.408000", "180646.411000", "180646.414000", "180646.417000", "180646.420000", "180726.343000", "180726.346000", "180726.349000", "180726.352000", "180726.355000", "180726.358000", "180726.361000", "180726.364000", "180726.367000", "180726.370000", "180726.373000", "180726.376000", "180726.378000", "180726.382000", "180726.384000", "180726.387000", "180726.390000", "180726.393000", "180726.396000", "180726.399000", "180726.402000", "180726.405000", "180726.408000", "180726.411000", "180726.413000", "180726.417000", "180726.419000", "180806.343000", "180806.346000", "180806.352000", "180806.355000", "180806.358000", "180806.361000", "180806.364000", "180806.367000", "180806.370000", "180806.373000", "180806.375000", "180806.378000", "180806.381000", "180806.384000", "180806.387000", "180806.390000", "180806.393000", "180806.396000", "180806.399000", "180806.402000", "180806.405000", "180806.408000", "180806.411000", "180806.413000", "180806.416000", "180806.419000", "180806.422000", "180826.344000", "180826.347000", "180826.350000", "180826.353000", "180826.356000", "180826.359000", "180826.361000", "180826.365000", "180826.367000", "180826.370000", "180826.373000", "180826.376000", "180826.379000", "180906.343000", "180906.346000", "180906.349000", "180906.352000", "180906.355000", "180906.358000", "180906.361000", "180906.364000", "180906.384000", "180906.386000", "180906.389000", "180906.392000", "180906.395000", "180906.398000", "180906.401000", "180906.404000", "180906.407000", "180906.410000", "180906.413000", "180906.416000", "180906.419000", "180906.422000", "180906.425000", "180906.427000", "180906.430000", "180906.433000", "180906.436000", "180946.343000", "180946.346000", "180946.349000", "180946.352000", "180946.355000", "180946.358000", "180946.361000", "180946.364000", "180946.367000", "180946.370000", "180946.373000", "180946.376000", "180946.384000", "180946.387000", "180946.390000", "180946.393000", "180946.396000", "180946.399000", "180946.402000", "180946.405000", "180946.408000", "180946.410000", "180946.413000", "180946.416000", "180946.419000", "180946.422000", "180946.425000", "181026.343000", "181026.346000", "181026.349000", "181026.352000", "181026.355000", "181026.358000", "181026.361000", "181026.364000", "181026.367000", "181026.370000", "181026.373000", "181026.375000", "181026.378000", "181026.381000", "181026.384000", "181026.387000", "181026.390000", "181026.393000", "181026.396000", "181026.408000", "181026.411000", "181026.414000", "181026.417000", "181026.420000", "181026.423000", "181026.426000", "181026.429000", "181106.343000", "181106.346000", "181106.349000", "181106.352000", "181106.355000", "181106.358000", "181106.361000", "181106.364000", "181106.366000", "181106.370000", "181106.372000", "181106.375000", "181106.378000", "181106.381000", "181106.384000", "181106.387000", "181106.390000", "181106.393000", "181106.396000", "181106.399000", "181106.402000", "181106.405000", "181106.407000", "181106.410000", "181106.413000", "181106.416000", "181106.419000", "181146.343000", "181146.346000", "181146.349000", "181146.352000", "181146.355000", "181146.358000", "181146.361000", "181146.364000", "181146.367000", "181146.370000", "181146.373000", "181146.376000", "181146.379000", "181146.382000", "181146.385000", "181146.388000", "181146.390000", "181146.393000", "181146.396000", "181146.399000", "181146.402000", "181146.405000", "181146.408000", "181146.411000", "181146.414000", "181146.417000", "181226.342000", "181226.345000", "181226.348000", "181226.351000", "181226.354000", "181226.357000", "181226.360000", "181226.363000", "181226.366000", "181226.369000", "181226.372000", "181226.375000", "181226.378000", "181226.380000", "181226.384000", "181226.386000", "181226.389000", "181226.392000", "181226.395000", "181226.398000", "181226.401000", "181226.404000", "181226.407000", "181226.409000", "181226.412000", "181226.415000", "181226.418000", "181306.343000", "181306.351000", "181306.354000", "181306.357000", "181306.359000", "181306.363000", "181306.365000", "181306.368000", "181306.371000", "181306.374000", "181306.377000", "181306.380000", "181306.383000", "181306.386000", "181306.389000", "181306.392000", "181306.395000", "181306.398000", "181306.401000", "181306.403000", "181306.406000", "181306.409000", "181306.412000", "181306.415000", "181306.418000", "181306.421000", "181306.424000", "181338.374000", "181338.378000", "181338.381000", "181338.384000", "181338.387000", "181338.390000", "181338.393000", "181338.396000", "181338.399000", "181338.402000", "181338.405000", "181338.408000", "181338.412000", "181338.415000", "181338.418000", "181338.421000", "181338.424000", "181338.426000", "181338.430000", "181338.432000", "181338.435000", "181338.438000"],
