{
  "AcquisitionMatrixPE": 104,
  "AcquisitionNumber": 1,
  "AcquisitionTime": "17:49:15.202500",
  "BandwidthPerPixelPhaseEncode": 17.17,
  "BaseResolution": 104,
  "BodyPartExamined": "BRAIN",
  "CoilCombinationMethod": "Sum of Squares",
  "ConsistencyInfo": "N4_VE11C_LATEST_20160120",
  "ConversionSoftware": "dcm2niix",
  "ConversionSoftwareVersion": "v1.0.20220505",
  "DerivedVendorReportedEchoSpacing": 0.000560011,
  "DeviceSerialNumber": "167006",
  "DwellTime": 2.1e-06,
  "EchoTime": 0.037,
  "EchoTrainLength": 104,
  "EffectiveEchoSpacing": 0.000560011,
  "FlipAngle": 52,
  "HeudiconvVersion": "0.5.3.post811+g6206e14",
  "ImageComments": "Unaliased MB4/PE3/LB",
  "ImageOrientationPatientDICOM": [0.999602, -0.0273555, -0.00689256, 0.0226842, 0.924673, -0.380086],
  "ImageOrientationText": "Tra>Cor(-22.3)>Sag(-1.0)",
  "ImageType": [
    "ORIGINAL",
    "PRIMARY",
    "M",
    "MB",
    "ND",
    "MOSAIC"
],
  "ImagingFrequency": 123.259,
  "InPlanePhaseEncodingDirectionDICOM": "COL",
  "InstitutionAddress": "Chemin Queen-Mary 4565,Montreal,District,CA,H3W 1W5",
  "InstitutionName": "IUGM",
  "InstitutionalDepartmentName": "Department",
  "MRAcquisitionType": "2D",
  "MagneticFieldStrength": 3,
  "Manufacturer": "Siemens",
  "ManufacturersModelName": "Prisma_fit",
  "MatrixCoilMode": "SENSE",
  "Modality": "MR",
  "MultibandAccelerationFactor": 4,
  "PartialFourier": 1,
  "PatientPosition": "HFS",
  "PercentPhaseFOV": 100,
  "PercentSampling": 100,
  "PhaseEncodingDirection": "j",
  "PhaseEncodingSteps": 104,
  "PhaseResolution": 1,
  "PixelBandwidth": 2290,
  "ProcedureStepDescription": "video^friends",
  "ProtocolName": "func_task-friends-s06e04b",
  "PulseSequenceDetails": "%CustomerSeq%\\cmrr_mbep2d_bold",
  "ReceiveCoilActiveElements": "HC1-7;NC1,2",
  "ReceiveCoilName": "HeadNeck_64",
  "ReconMatrixPE": 104,
  "RepetitionTime": 1.49,
  "SAR": 0.0999375,
  "ScanOptions": "FS",
  "ScanningSequence": "EP",
  "SequenceName": "epfid2d1_104",
  "SequenceVariant": "SK\\SS",
  "SeriesDescription": "func_task-friends-s06e04b",
  "SeriesNumber": 12,
  "ShimSetting": [606, -7264, -8837, 371, 13, -412, 10, 13],
  "SliceThickness": 2,
  "SliceTiming": [0, 0.785, 0.1, 0.8825, 0.1975, 0.98, 0.295, 1.08, 0.3925, 1.1775, 0.49, 1.275, 0.59, 1.3725, 0.6875, 0, 0.785, 0.1, 0.8825, 0.1975, 0.98, 0.295, 1.08, 0.3925, 1.1775, 0.49, 1.275, 0.59, 1.3725, 0.6875, 0, 0.785, 0.1, 0.8825, 0.1975, 0.98, 0.295, 1.08, 0.3925, 1.1775, 0.49, 1.275, 0.59, 1.3725, 0.6875, 0, 0.785, 0.1, 0.8825, 0.1975, 0.98, 0.295, 1.08, 0.3925, 1.1775, 0.49, 1.275, 0.59, 1.3725, 0.6875],
  "SoftwareVersions": "syngo MR E11",
  "SpacingBetweenSlices": 2,
  "StationName": "MRC35049",
  "TaskName": "s06e04b",
  "TotalReadoutTime": 0.0576811,
  "TxRefAmp": 329.197,
  "WipMemBlock": "9fdf7092-a621-4d90-b473-4a4bf8954bea||Sequence: R017 ve11c/master r/75a17815+; Jun 28 2022 16:32:11 by eja",
  "dcmmeta_affine": [
    [-1.9992040395736694, 0.04536836966872215, -0.03354163467884064, 97.73622131347656],
    [0.05471106246113777, 1.8493460416793823, -0.7595564723014832, -72.42237091064453],
    [-0.013785123825073242, 0.76017165184021, 1.849851131439209, -69.73092651367188],
    [0.0, 0.0, 0.0, 1.0]
],
  "dcmmeta_reorient_transform": [
    [0.0, -1.0, 0.0, 103.0],
    [1.0, 0.0, 0.0, 0.0],
    [0.0, 0.0, 1.0, 0.0],
    [0.0, 0.0, 0.0, 1.0]
],
  "dcmmeta_shape": [104, 104, 60, 474],
  "dcmmeta_slice_dim": 2,
  "dcmmeta_version": 0.6,
  "global": {
    "const": {
      "AcquisitionMatrix": [104, 0, 0, 104],
      "AngioFlag": "N",
      "BitsAllocated": 16,
      "BitsStored": 16,
      "BodyPartExamined": "BRAIN",
      "Columns": 832,
      "EchoNumbers": 1,
      "EchoTime": 37.0,
      "EchoTrainLength": 104,
      "FlipAngle": 52.0,
      "HighBit": 15,
      "ImageOrientationPatient": [0.99960200453514, -0.0273555317376, -0.0068925621277, 0.02268418499926, 0.92467301566864, -0.3800858348389],
      "ImagePositionPatient": [-846.63350578599, -771.30740062846, 290.28702732906],
      "ImageType": [
        "ORIGINAL",
        "PRIMARY",
        "M",
        "MB",
        "ND",
        "MOSAIC"
],
      "ImagedNucleus": "1H",
      "ImagingFrequency": 123.258797,
      "InPlanePhaseEncodingDirection": "COL",
      "MRAcquisitionType": "2D",
      "MagneticFieldStrength": 3.0,
      "Manufacturer": "SIEMENS",
      "ManufacturerModelName": "Prisma_fit",
      "Modality": "MR",
      "NumberOfAverages": 1.0,
      "NumberOfPhaseEncodingSteps": 104,
      "PercentPhaseFieldOfView": 100.0,
      "PercentSampling": 100.0,
      "PerformedProcedureStepStartTime": "173243.608000",
      "PhotometricInterpretation": "MONOCHROME2",
      "PixelBandwidth": 2290.0,
      "PixelRepresentation": 0,
      "PixelSpacing": [2.0, 2.0],
      "ProtocolName": "func_task-friends-s06e04b",
      "RepetitionTime": 1490.0,
      "Rows": 832,
      "SAR": 0.09993752978437,
      "SamplesPerPixel": 1,
      "ScanOptions": "FS",
      "ScanningSequence": "EP",
      "SequenceName": "epfid2d1_104",
      "SequenceVariant": [
        "SK",
        "SS"
],
      "SeriesDescription": "func_task-friends-s06e04b",
      "SeriesNumber": 12,
      "SeriesTime": "175006.631000",
      "SliceLocation": -38.630594270629,
      "SliceThickness": 2.0,
      "SmallestImagePixelValue": 0,
      "SoftwareVersions": "syngo MR E11",
      "SpacingBetweenSlices": 2.0000000773826,
      "SpecificCharacterSet": "ISO_IR 100",
      "StudyID": "1",
      "StudyTime": "173243.528000",
      "TransmitCoilName": "Body",
      "VariableFlipAngleFlag": "N",
      "WindowCenterWidthExplanation": "Algo1",
      "dBdt": 0.0},
    "slices": {}
  },
  "time": {
    "samples": {
      "AcquisitionNumber": [1, 2, 3, 4, 5, 6, 7, 8, 9, 10, 11, 12, 13, 14, 15, 16, 17, 18, 19, 20, 21, 22, 23, 24, 25, 26, 27, 28, 29, 30, 31, 32, 33, 34, 35, 36, 37, 38, 39, 40, 41, 42, 43, 44, 45, 46, 47, 48, 49, 50, 51, 52, 53, 54, 55, 56, 57, 58, 59, 60, 61, 62, 63, 64, 65, 66, 67, 68, 69, 70, 71, 72, 73, 74, 75, 76, 77, 78, 79, 80, 81, 82, 83, 84, 85, 86, 87, 88, 89, 90, 91, 92, 93, 94, 95, 96, 97, 98, 99, 100, 101, 102, 103, 104, 105, 106, 107, 108, 109, 110, 111, 112, 113, 114, 115, 116, 117, 118, 119, 120, 121, 122, 123, 124, 125, 126, 127, 128, 129, 130, 131, 132, 133, 134, 135, 136, 137, 138, 139, 140, 141, 142, 143, 144, 145, 146, 147, 148, 149, 150, 151, 152, 153, 154, 155, 156, 157, 158, 159, 160, 161, 162, 163, 164, 165, 166, 167, 168, 169, 170, 171, 172, 173, 174, 175, 176, 177, 178, 179, 180, 181, 182, 183, 184, 185, 186, 187, 188, 189, 190, 191, 192, 193, 194, 195, 196, 197, 198, 199, 200, 201, 202, 203, 204, 205, 206, 207, 208, 209, 210, 211, 212, 213, 214, 215, 216, 217, 218, 219, 220, 221, 222, 223, 224, 225, 226, 227, 228, 229, 230, 231, 232, 233, 234, 235, 236, 237, 238, 239, 240, 241, 242, 243, 244, 245, 246, 247, 248, 249, 250, 251, 252, 253, 254, 255, 256, 257, 258, 259, 260, 261, 262, 263, 264, 265, 266, 267, 268, 269, 270, 271, 272, 273, 274, 275, 276, 277, 278, 279, 280, 281, 282, 283, 284, 285, 286, 287, 288, 289, 290, 291, 292, 293, 294, 295, 296, 297, 298, 299, 300, 301, 302, 303, 304, 305, 306, 307, 308, 309, 310, 311, 312, 313, 314, 315, 316, 317, 318, 319, 320, 321, 322, 323, 324, 325, 326, 327, 328, 329, 330, 331, 332, 333, 334, 335, 336, 337, 338, 339, 340, 341, 342, 343, 344, 345, 346, 347, 348, 349, 350, 351, 352, 353, 354, 355, 356, 357, 358, 359, 360, 361, 362, 363, 364, 365, 366, 367, 368, 369, 370, 371, 372, 373, 374, 375, 376, 377, 378, 379, 380, 381, 382, 383, 384, 385, 386, 387, 388, 389, 390, 391, 392, 393, 394, 395, 396, 397, 398, 399, 400, 401, 402, 403, 404, 405, 406, 407, 408, 409, 410, 411, 412, 413, 414, 415, 416, 417, 418, 419, 420, 421, 422, 423, 424, 425, 426, 427, 428, 429, 430, 431, 432, 433, 434, 435, 436, 437, 438, 439, 440, 441, 442, 443, 444, 445, 446, 447, 448, 449, 450, 451, 452, 453, 454, 455, 456, 457, 458, 459, 460, 461, 462, 463, 464, 465, 466, 467, 468, 469, 470, 471, 472, 473, 474],
      "AcquisitionTime": ["174915.202500", "174916.692500", "174918.182500", "174919.672500", "174921.162500", "174922.652500", "174924.142500", "174925.632500", "174927.122500", "174928.612500", "174930.102500", "174931.592500", "174933.082500", "174934.572500", "174936.062500", "174937.552500", "174939.042500", "174940.532500", "174942.022500", "174943.512500", "174945.002500", "174946.492500", "174947.982500", "174949.472500", "174950.962500", "174952.452500", "174953.942500", "174955.432500", "174956.922500", "174958.412500", "174959.902500", "175001.392500", "175002.882500", "175004.372500", "175005.862500", "175007.352500", "175008.842500", "175010.332500", "175011.822500", "175013.312500", "175014.802500", "175016.292500", "175017.782500", "175019.272500", "175020.762500", "175022.252500", "175023.742500", "175025.232500", "175026.722500", "175028.212500", "175029.702500", "175031.192500", "175032.682500", "175034.172500", "175035.662500", "175037.152500", "175038.642500", "175040.132500", "175041.622500", "175043.112500", "175044.602500", "175046.092500", "175047.582500", "175049.072500", "175050.562500", "175052.052500", "175053.542500", "175055.032500", "175056.522500", "175058.012500", "175059.502500", "175100.992500", "175102.482500", "175103.972500", "175105.462500", "175106.952500", "175108.442500", "175109.932500", "175111.422500", "175112.912500", "175114.402500", "175115.892500", "175117.382500", "175118.872500", "175120.362500", "175121.852500", "175123.342500", "175124.832500", "175126.322500", "175127.812500", "175129.302500", "175130.792500", "175132.282500", "175133.772500", "175135.262500", "175136.752500", "175138.242500", "175139.732500", "175141.222500", "175142.712500", "175144.202500", "175145.692500", "175147.182500", "175148.672500", "175150.162500", "175151.652500", "175153.142500", "175154.632500", "175156.122500", "175157.612500", "175159.102500", "175200.592500", "175202.082500", "175203.572500", "175205.062500", "175206.552500", "175208.042500", "175209.532500", "175211.022500", "175212.512500", "175214.002500", "175215.492500", "175216.982500", "175218.472500", "175219.962500", "175221.452500", "175222.942500", "175224.432500", "175225.922500", "175227.412500", "175228.902500", "175230.392500", "175231.882500", "175233.372500", "175234.862500", "175236.352500", "175237.842500", "175239.332500", "175240.822500", "175242.312500", "175243.802500", "175245.292500", "175246.782500", "175248.272500", "175249.762500", "175251.252500", "175252.742500", "175254.232500", "175255.722500", "175257.212500", "175258.702500", "175300.192500", "175301.682500", "175303.172500", "175304.662500", "175306.152500", "175307.642500", "175309.132500", "175310.622500", "175312.112500", "175313.602500", "175315.092500", "175316.582500", "175318.072500", "175319.562500", "175321.052500", "175322.542500", "175324.032500", "175325.522500", "175327.012500", "175328.502500", "175329.992500", "175331.482500", "175332.972500", "175334.462500", "175335.952500", "175337.442500", "175338.932500", "175340.422500", "175341.912500", "175343.402500", "175344.892500", "175346.382500", "175347.872500", "175349.362500", "175350.852500", "175352.342500", "175353.832500", "175355.322500", "175356.812500", "175358.302500", "175359.792500", "175401.282500", "175402.772500", "175404.262500", "175405.752500", "175407.242500", "175408.732500", "175410.222500", "175411.712500", "175413.202500", "175414.692500", "175416.182500", "175417.672500", "175419.162500", "175420.652500", "175422.142500", "175423.632500", "175425.122500", "175426.612500", "175428.102500", "175429.592500", "175431.082500", "175432.572500", "175434.062500", "175435.552500", "175437.042500", "175438.532500", "175440.022500", "175441.512500", "175443.002500", "175444.492500", "175445.982500", "175447.472500", "175448.962500", "175450.452500", "175451.942500", "175453.432500", "175454.922500", "175456.412500", "175457.902500", "175459.392500", "175500.882500", "175502.372500", "175503.862500", "175505.352500", "175506.842500", "175508.332500", "175509.822500", "175511.312500", "175512.802500", "175514.292500", "175515.782500", "175517.272500", "175518.762500", "175520.252500", "175521.742500", "175523.232500", "175524.722500", "175526.212500", "175527.702500", "175529.192500", "175530.682500", "175532.172500", "175533.662500", "175535.152500", "175536.642500", "175538.132500", "175539.622500", "175541.112500", "175542.602500", "175544.092500", "175545.582500", "175547.072500", "175548.562500", "175550.052500", "175551.542500", "175553.032500", "175554.522500", "175556.012500", "175557.502500", "175558.992500", "175600.482500", "175601.972500", "175603.462500", "175604.952500", "175606.442500", "175607.932500", "175609.422500", "175610.912500", "175612.402500", "175613.892500", "175615.382500", "175616.872500", "175618.362500", "175619.852500", "175621.342500", "175622.832500", "175624.322500", "175625.812500", "175627.302500", "175628.792500", "175630.282500", "175631.772500", "175633.262500", "175634.752500", "175636.242500", "175637.732500", "175639.222500", "175640.712500", "175642.202500", "175643.692500", "175645.182500", "175646.672500", "175648.162500", "175649.652500", "175651.142500", "175652.632500", "175654.122500", "175655.612500", "175657.102500", "175658.592500", "175700.082500", "175701.572500", "175703.062500", "175704.552500", "175706.042500", "175707.532500", "175709.022500", "175710.512500", "175712.002500", "175713.492500", "175714.982500", "175716.472500", "175717.962500", "175719.452500", "175720.942500", "175722.432500", "175723.922500", "175725.412500", "175726.902500", "175728.392500", "175729.882500", "175731.372500", "175732.862500", "175734.352500", "175735.842500", "175737.332500", "175738.822500", "175740.312500", "175741.802500", "175743.292500", "175744.782500", "175746.272500", "175747.762500", "175749.252500", "175750.742500", "175752.232500", "175753.722500", "175755.212500", "175756.702500", "175758.192500", "175759.682500", "175801.172500", "175802.662500", "175804.152500", "175805.642500", "175807.132500", "175808.622500", "175810.112500", "175811.602500", "175813.092500", "175814.582500", "175816.072500", "175817.562500", "175819.052500", "175820.542500", "175822.032500", "175823.522500", "175825.012500", "175826.502500", "175827.992500", "175829.482500", "175830.972500", "175832.462500", "175833.952500", "175835.442500", "175836.932500", "175838.422500", "175839.912500", "175841.402500", "175842.892500", "175844.382500", "175845.872500", "175847.362500", "175848.852500", "175850.342500", "175851.832500", "175853.322500", "175854.812500", "175856.302500", "175857.792500", "175859.282500", "175900.772500", "175902.262500", "175903.752500", "175905.242500", "175906.732500", "175908.222500", "175909.712500", "175911.202500", "175912.692500", "175914.182500", "175915.672500", "175917.162500", "175918.652500", "175920.142500", "175921.632500", "175923.122500", "175924.612500", "175926.102500", "175927.592500", "175929.082500", "175930.572500", "175932.062500", "175933.552500", "175935.042500", "175936.532500", "175938.022500", "175939.512500", "175941.002500", "175942.492500", "175943.982500", "175945.472500", "175946.962500", "175948.452500", "175949.942500", "175951.432500", "175952.922500", "175954.412500", "175955.902500", "175957.392500", "175958.882500", "180000.372500", "180001.862500", "180003.352500", "180004.842500", "180006.332500", "180007.822500", "180009.312500", "180010.802500", "180012.292500", "180013.782500", "180015.272500", "180016.762500", "180018.252500", "180019.742500", "180021.232500", "180022.722500", "180024.212500", "180025.702500", "180027.192500", "180028.682500", "180030.172500", "180031.662500", "180033.152500", "180034.642500", "180036.132500", "180037.622500", "180039.112500", "180040.602500", "180042.092500", "180043.582500", "180045.072500", "180046.562500", "180048.052500", "180049.542500", "180051.032500", "180052.522500", "180054.012500", "180055.502500", "180056.992500", "180058.482500", "180059.972500"],
      "ContentTime": ["175006.633000", "175026.594000", "175026.597000", "175026.600000", "175026.603000", "175026.606000", "175026.609000", "175026.620000", "175026.629000", "175026.632000", "175026.635000", "175026.637000", "175026.640000", "175026.643000", "175026.646000", "175026.649000", "175026.652000", "175026.655000", "175026.658000", "175026.661000", "175026.670000", "175046.594000", "175046.597000", "175046.600000", "175046.603000", "175046.606000", "175046.609000", "175046.612000", "175046.615000", "175046.617000", "175046.620000", "175046.623000", "175046.626000", "175046.629000", "175046.632000", "175046.635000", "175046.638000", "175046.640000", "175046.643000", "175046.646000", "175046.649000", "175046.652000", "175106.594000", "175106.597000", "175106.600000", "175106.603000", "175106.606000", "175106.609000", "175106.612000", "175106.614000", "175106.617000", "175106.620000", "175106.623000", "175106.626000", "175106.629000", "175106.632000", "175106.635000", "175106.638000", "175106.640000", "175106.643000", "175106.646000", "175106.649000", "175126.594000", "175126.597000", "175126.600000", "175126.603000", "175126.606000", "175126.609000", "175126.612000", "175126.615000", "175126.618000", "175126.621000", "175126.623000", "175126.660000", "175126.663000", "175126.666000", "175126.669000", "175126.672000", "175126.674000", "175126.678000", "175126.681000", "175126.683000", "175206.595000", "175206.598000", "175206.601000", "175206.604000", "175206.608000", "175206.611000", "175206.614000", "175206.616000", "175206.619000", "175206.622000", "175206.625000", "175206.628000", "175206.631000", "175206.640000", "175206.642000", "175206.645000", "175206.648000", "175206.651000", "175206.654000", "175206.657000", "175206.660000", "175206.662000", "175206.665000", "175206.668000", "175206.671000", "175206.674000", "175206.677000", "175206.680000", "175206.683000", "175206.686000", "175206.689000", "175206.692000", "175246.594000", "175246.610000", "175246.613000", "175246.616000", "175246.618000", "175246.621000", "175246.624000", "175246.627000", "175246.630000", "175246.633000", "175246.636000", "175246.639000", "175246.642000", "175246.644000", "175246.647000", "175246.650000", "175246.653000", "175246.656000", "175246.659000", "175246.662000", "175246.665000", "175246.667000", "175246.670000", "175246.673000", "175246.676000", "175246.679000", "175246.682000", "175326.594000", "175326.597000", "175326.600000", "175326.603000", "175326.606000", "175326.609000", "175326.612000", "175326.615000", "175326.618000", "175326.621000", "175326.624000", "175326.627000", "175326.629000", "175326.633000", "175326.635000", "175326.638000", "175326.641000", "175326.644000", "175326.647000", "175326.650000", "175326.653000", "175326.656000", "175326.659000", "175326.662000", "175326.664000", "175326.668000", "175326.670000", "175406.595000", "175406.598000", "175406.601000", "175406.604000", "175406.607000", "175406.610000", "175406.613000", "175406.616000", "175406.619000", "175406.622000", "175406.625000", "175406.628000", "175406.631000", "175406.633000", "175406.636000", "175406.639000", "175406.642000", "175406.645000", "175406.648000", "175406.651000", "175406.654000", "175406.657000", "175406.660000", "175406.663000", "175406.666000", "175406.669000", "175406.671000", "175446.594000", "175446.597000", "175446.600000", "175446.603000", "175446.606000", "175446.620000", "175446.630000", "175446.633000", "175446.635000", "175446.638000", "175446.641000", "175446.644000", "175446.647000", "175446.650000", "175446.653000", "175446.656000", "175446.659000", "175446.662000", "175446.665000", "175446.668000", "175446.671000", "175446.674000", "175446.677000", "175446.680000", "175446.683000", "175446.686000", "175446.689000", "175526.594000", "175526.597000", "175526.600000", "175526.603000", "175526.606000", "175526.609000", "175526.612000", "175526.615000", "175526.618000", "175526.621000", "175526.624000", "175526.626000", "175526.629000", "175526.632000", "175526.635000", "175526.638000", "175526.641000", "175526.644000", "175526.647000", "175526.650000", "175526.653000", "175526.656000", "175526.659000", "175526.662000", "175526.665000", "175526.668000", "175526.671000", "175606.594000", "175606.597000", "175606.600000", "175606.603000", "175606.606000", "175606.609000", "175606.612000", "175606.615000", "175606.618000", "175606.620000", "175606.623000", "175606.626000", "175606.629000", "175606.632000", "175606.635000", "175606.638000", "175606.641000", "175606.644000", "175606.647000", "175606.650000", "175606.653000", "175606.656000", "175606.658000", "175606.661000", "175606.664000", "175606.667000", "175606.670000", "175646.595000", "175646.598000", "175646.601000", "175646.604000", "175646.607000", "175646.610000", "175646.613000", "175646.616000", "175646.619000", "175646.622000", "175646.625000", "175646.627000", "175646.630000", "175646.633000", "175646.636000", "175646.639000", "175646.642000", "175646.645000", "175646.648000", "175646.651000", "175646.654000", "175646.657000", "175646.660000", "175646.663000", "175646.667000", "175646.670000", "175726.594000", "175726.597000", "175726.600000", "175726.603000", "175726.606000", "175726.609000", "175726.612000", "175726.615000", "175726.618000", "175726.621000", "175726.624000", "175726.627000", "175726.630000", "175726.633000", "175726.636000", "175726.638000", "175726.641000", "175726.644000", "175726.647000", "175726.650000", "175726.653000", "175726.656000", "175726.659000", "175726.662000", "175726.664000", "175726.667000", "175726.670000", "175806.594000", "175806.597000", "175806.600000", "175806.603000", "175806.606000", "175806.609000", "175806.612000", "175806.615000", "175806.618000", "175806.621000", "175806.624000", "175806.627000", "175806.630000", "175806.632000", "175806.635000", "175806.638000", "175806.641000", "175806.644000", "175806.647000", "175806.650000", "175806.653000", "175806.656000", "175806.659000", "175806.661000", "175806.664000", "175806.667000", "175806.670000", "175826.594000", "175826.597000", "175826.600000", "175826.603000", "175826.606000", "175826.609000", "175826.612000", "175826.615000", "175826.618000", "175826.622000", "175826.625000", "175826.628000", "175826.631000", "175906.594000", "175906.597000", "175906.600000", "175906.603000", "175906.606000", "175906.609000", "175906.612000", "175906.615000", "175906.618000", "175906.621000", "175906.624000", "175906.627000", "175906.629000", "175906.632000", "175906.635000", "175906.638000", "175906.641000", "175906.644000", "175906.647000", "175906.664000", "175906.666000", "175906.669000", "175906.672000", "175906.675000", "175906.678000", "175906.681000", "175906.684000", "175946.594000", "175946.597000", "175946.600000", "175946.603000", "175946.606000", "175946.609000", "175946.612000", "175946.615000", "175946.618000", "175946.621000", "175946.624000", "175946.627000", "175946.630000", "175946.633000", "175946.636000", "175946.638000", "175946.641000", "175946.644000", "175946.647000", "175946.650000", "175946.653000", "175946.656000", "175946.659000", "175946.662000", "175946.665000", "175946.668000", "175946.671000", "180026.594000", "180026.597000", "180026.600000", "180026.603000", "180026.606000", "180026.609000", "180026.612000", "180026.615000", "180026.618000", "180026.621000", "180026.624000", "180026.627000", "180026.630000", "180026.633000", "180026.636000", "180026.638000", "180026.641000", "180026.645000", "180026.647000", "180026.650000", "180026.653000", "180026.656000", "180026.659000", "180026.662000", "180026.665000", "180026.668000", "180026.671000", "180101.642000", "180101.645000", "180101.648000", "180101.651000", "180101.654000", "180101.658000", "180101.661000", "180101.664000", "180101.667000", "180101.670000", "180101.673000", "180101.676000", "180101.679000", "180101.682000", "180101.685000", "180101.688000", "180101.691000", "180101.694000", "180101.697000", "180101.700000", "180101.703000", "180101.706000", "180101.709000", "180101.712000"],
