{
  "AcquisitionMatrixPE": 104,
  "AcquisitionNumber": 1,
  "AcquisitionTime": "11:22:12.015000",
  "BandwidthPerPixelPhaseEncode": 17.17,
  "BaseResolution": 104,
  "BodyPartExamined": "BRAIN",
  "CoilString": "HC1-7;NC1_2",
  "ConsistencyInfo": "N4_VE11C_LATEST_20160120",
  "ConversionSoftware": "dcm2niix",
  "ConversionSoftwareVersion": "v1.0.20190902",
  "DerivedVendorReportedEchoSpacing": 0.000560011,
  "DeviceSerialNumber": "167006",
  "DwellTime": 2.1e-06,
  "EchoTime": 0.037,
  "EchoTrainLength": 104,
  "EffectiveEchoSpacing": 0.000560011,
  "FlipAngle": 52,
  "ImageComments": "Unaliased_MB4_PE3_LB",
  "ImageOrientationPatientDICOM": [0.997396, 0.0692462, 0.0201686, -0.0587322, 0.942109, -0.330124],
  "ImageType": [
    "ORIGINAL",
    "PRIMARY",
    "M",
    "MB",
    "ND",
    "MOSAIC"
],
  "ImagingFrequency": 123.259,
  "InPlanePhaseEncodingDirectionDICOM": "COL",
  "InstitutionAddress": "Chemin_Queen-Mary_4565_Montreal_District_CA_H3W_1W5",
  "InstitutionName": "IUGM",
  "InstitutionalDepartmentName": "Department",
  "MRAcquisitionType": "2D",
  "MagneticFieldStrength": 3,
  "Manufacturer": "Siemens",
  "ManufacturersModelName": "Prisma_fit",
  "Modality": "MR",
  "MultibandAccelerationFactor": 4,
  "PartialFourier": 1,
  "PatientPosition": "HFS",
  "PercentPhaseFOV": 100,
  "PhaseEncodingDirection": "j",
  "PhaseEncodingSteps": 104,
  "PhaseResolution": 1,
  "PixelBandwidth": 2290,
  "ProcedureStepDescription": "video_friends",
  "ProtocolName": "func_task-friends-s01e21a",
  "PulseSequenceDetails": "%CustomerSeq%_cmrr_mbep2d_bold",
  "ReceiveCoilActiveElements": "HC1-7;NC1,2",
  "ReceiveCoilName": "HeadNeck_64",
  "ReconMatrixPE": 104,
  "RepetitionTime": 1.49,
  "SAR": 0.038574,
  "ScanOptions": "FS",
  "ScanningSequence": "EP",
  "SequenceName": "epfid2d1_104",
  "SequenceVariant": "SK_SS",
  "SeriesDescription": "func_task-friends-s02e21a",
  "SeriesNumber": 28,
  "ShimSetting": [630, -7217, -8834, 670, 81, -51, 33, -21],
  "SliceThickness": 2,
  "SliceTiming": [0, 0.785, 0.0975, 0.8825, 0.195, 0.98, 0.295, 1.0775, 0.3925, 1.175, 0.49, 1.275, 0.5875, 1.3725, 0.685, 0, 0.785, 0.0975, 0.8825, 0.195, 0.98, 0.295, 1.0775, 0.3925, 1.175, 0.49, 1.275, 0.5875, 1.3725, 0.685, 0, 0.785, 0.0975, 0.8825, 0.195, 0.98, 0.295, 1.0775, 0.3925, 1.175, 0.49, 1.275, 0.5875, 1.3725, 0.685, 0, 0.785, 0.0975, 0.8825, 0.195, 0.98, 0.295, 1.0775, 0.3925, 1.175, 0.49, 1.275, 0.5875, 1.3725, 0.685],
  "SoftwareVersions": "syngo_MR_E11",
  "SpacingBetweenSlices": 2,
  "StationName": "MRC35049",
  "TaskName": "s01e21a",
  "TotalReadoutTime": 0.0576811,
  "TxRefAmp": 248.981,
  "WipMemBlock": "dfd42ca4-f17c-4971-9e8a-e650ea8a8739||Sequence: R016 ve11c/master r/e634e98; Dec 19 2017 11:00:25 by eja",
  "dcmmeta_affine": [
    [-1.9947913885116577, -0.11746437847614288, 0.08372173458337784, 106.39219665527344],
    [-0.13849230110645294, 1.8842170238494873, -0.6561601161956787, -63.27678680419922],
    [0.04033723846077919, 0.6602486968040466, 1.887444019317627, -60.34980392456055],
    [0.0, 0.0, 0.0, 1.0]
],
  "dcmmeta_reorient_transform": [
    [0.0, -1.0, 0.0, 103.0],
    [1.0, 0.0, 0.0, 0.0],
    [0.0, 0.0, 1.0, 0.0],
    [0.0, 0.0, 0.0, 1.0]
],
  "dcmmeta_shape": [104, 104, 60, 470],
  "dcmmeta_slice_dim": 2,
  "dcmmeta_version": 0.6,
  "global": {
    "const": {
      "AcquisitionMatrix": [104, 0, 0, 104],
      "AngioFlag": "N",
      "BitsAllocated": 16,
      "BitsStored": 16,
      "BodyPartExamined": "BRAIN",
      "Columns": 832,
      "EchoNumbers": 1,
      "EchoTime": 37.0,
      "EchoTrainLength": 104,
      "FlipAngle": 52.0,
      "HighBit": 15,
      "ImageOrientationPatient": [0.99739570768664, 0.06924614875639, 0.02016861846201, -0.0587321897583, 0.94210850971286, -0.3301243490154],
      "ImagePositionPatient": [-777.64040805189, -867.06375789903, 233.30358369869],
      "ImageType": [
        "ORIGINAL",
        "PRIMARY",
        "M",
        "MB",
        "ND",
        "MOSAIC"
],
      "ImagedNucleus": "1H",
      "ImagingFrequency": 123.259082,
      "InPlanePhaseEncodingDirection": "COL",
      "MRAcquisitionType": "2D",
      "MagneticFieldStrength": 3.0,
      "Manufacturer": "SIEMENS",
      "ManufacturerModelName": "Prisma_fit",
      "Modality": "MR",
      "NumberOfAverages": 1.0,
      "NumberOfPhaseEncodingSteps": 104,
      "PercentPhaseFieldOfView": 100.0,
      "PercentSampling": 100.0,
      "PerformedProcedureStepStartTime": "093816.263000",
      "PhotometricInterpretation": "MONOCHROME2",
      "PixelBandwidth": 2290.0,
      "PixelRepresentation": 0,
      "PixelSpacing": [2.0, 2.0],
      "ProtocolName": "func_task-friends-s01e21a",
      "RepetitionTime": 1490.0,
      "Rows": 832,
      "SAR": 0.03857403843456,
      "SamplesPerPixel": 1,
      "ScanOptions": "FS",
      "ScanningSequence": "EP",
      "SequenceName": "epfid2d1_104",
      "SequenceVariant": [
        "SK",
        "SS"
],
      "SeriesDescription": "func_task-friends-s02e21a",
      "SeriesNumber": 28,
      "SeriesTime": "112345.914000",
      "SliceLocation": -31.739913818261,
      "SliceThickness": 2.0,
      "SmallestImagePixelValue": 0,
      "SoftwareVersions": "syngo MR E11",
      "SpacingBetweenSlices": 2.0000000395156,
      "SpecificCharacterSet": "ISO_IR 100",
      "StudyID": "1",
      "StudyTime": "093816.120000",
      "TransmitCoilName": "Body",
      "VariableFlipAngleFlag": "N",
      "WindowCenterWidthExplanation": "Algo1",
      "dBdt": 0.0},
    "slices": {}
  },
  "time": {
    "samples": {
      "AcquisitionNumber": [1, 2, 3, 4, 5, 6, 7, 8, 9, 10, 11, 12, 13, 14, 15, 16, 17, 18, 19, 20, 21, 22, 23, 24, 25, 26, 27, 28, 29, 30, 31, 32, 33, 34, 35, 36, 37, 38, 39, 40, 41, 42, 43, 44, 45, 46, 47, 48, 49, 50, 51, 52, 53, 54, 55, 56, 57, 58, 59, 60, 61, 62, 63, 64, 65, 66, 67, 68, 69, 70, 71, 72, 73, 74, 75, 76, 77, 78, 79, 80, 81, 82, 83, 84, 85, 86, 87, 88, 89, 90, 91, 92, 93, 94, 95, 96, 97, 98, 99, 100, 101, 102, 103, 104, 105, 106, 107, 108, 109, 110, 111, 112, 113, 114, 115, 116, 117, 118, 119, 120, 121, 122, 123, 124, 125, 126, 127, 128, 129, 130, 131, 132, 133, 134, 135, 136, 137, 138, 139, 140, 141, 142, 143, 144, 145, 146, 147, 148, 149, 150, 151, 152, 153, 154, 155, 156, 157, 158, 159, 160, 161, 162, 163, 164, 165, 166, 167, 168, 169, 170, 171, 172, 173, 174, 175, 176, 177, 178, 179, 180, 181, 182, 183, 184, 185, 186, 187, 188, 189, 190, 191, 192, 193, 194, 195, 196, 197, 198, 199, 200, 201, 202, 203, 204, 205, 206, 207, 208, 209, 210, 211, 212, 213, 214, 215, 216, 217, 218, 219, 220, 221, 222, 223, 224, 225, 226, 227, 228, 229, 230, 231, 232, 233, 234, 235, 236, 237, 238, 239, 240, 241, 242, 243, 244, 245, 246, 247, 248, 249, 250, 251, 252, 253, 254, 255, 256, 257, 258, 259, 260, 261, 262, 263, 264, 265, 266, 267, 268, 269, 270, 271, 272, 273, 274, 275, 276, 277, 278, 279, 280, 281, 282, 283, 284, 285, 286, 287, 288, 289, 290, 291, 292, 293, 294, 295, 296, 297, 298, 299, 300, 301, 302, 303, 304, 305, 306, 307, 308, 309, 310, 311, 312, 313, 314, 315, 316, 317, 318, 319, 320, 321, 322, 323, 324, 325, 326, 327, 328, 329, 330, 331, 332, 333, 334, 335, 336, 337, 338, 339, 340, 341, 342, 343, 344, 345, 346, 347, 348, 349, 350, 351, 352, 353, 354, 355, 356, 357, 358, 359, 360, 361, 362, 363, 364, 365, 366, 367, 368, 369, 370, 371, 372, 373, 374, 375, 376, 377, 378, 379, 380, 381, 382, 383, 384, 385, 386, 387, 388, 389, 390, 391, 392, 393, 394, 395, 396, 397, 398, 399, 400, 401, 402, 403, 404, 405, 406, 407, 408, 409, 410, 411, 412, 413, 414, 415, 416, 417, 418, 419, 420, 421, 422, 423, 424, 425, 426, 427, 428, 429, 430, 431, 432, 433, 434, 435, 436, 437, 438, 439, 440, 441, 442, 443, 444, 445, 446, 447, 448, 449, 450, 451, 452, 453, 454, 455, 456, 457, 458, 459, 460, 461, 462, 463, 464, 465, 466, 467, 468, 469, 470],
      "AcquisitionTime": ["112212.015000", "112213.505000", "112214.995000", "112216.485000", "112217.975000", "112219.465000", "112220.955000", "112222.445000", "112223.935000", "112225.425000", "112226.915000", "112228.405000", "112229.895000", "112231.385000", "112232.875000", "112234.365000", "112235.855000", "112237.345000", "112238.835000", "112240.325000", "112241.815000", "112243.305000", "112244.795000", "112246.285000", "112247.775000", "112249.265000", "112250.755000", "112252.245000", "112253.735000", "112255.225000", "112256.715000", "112258.205000", "112259.695000", "112301.185000", "112302.675000", "112304.165000", "112305.655000", "112307.145000", "112308.635000", "112310.125000", "112311.615000", "112313.105000", "112314.595000", "112316.085000", "112317.575000", "112319.065000", "112320.555000", "112322.045000", "112323.535000", "112325.025000", "112326.515000", "112328.005000", "112329.495000", "112330.985000", "112332.475000", "112333.965000", "112335.455000", "112336.945000", "112338.435000", "112339.925000", "112341.415000", "112342.905000", "112344.395000", "112345.885000", "112347.375000", "112348.865000", "112350.355000", "112351.845000", "112353.335000", "112354.825000", "112356.315000", "112357.805000", "112359.295000", "112400.785000", "112402.275000", "112403.765000", "112405.255000", "112406.745000", "112408.235000", "112409.725000", "112411.215000", "112412.705000", "112414.195000", "112415.685000", "112417.175000", "112418.665000", "112420.155000", "112421.645000", "112423.135000", "112424.625000", "112426.115000", "112427.605000", "112429.095000", "112430.585000", "112432.075000", "112433.565000", "112435.055000", "112436.545000", "112438.035000", "112439.525000", "112441.015000", "112442.505000", "112443.995000", "112445.485000", "112446.975000", "112448.465000", "112449.955000", "112451.445000", "112452.935000", "112454.425000", "112455.915000", "112457.405000", "112458.895000", "112500.385000", "112501.875000", "112503.365000", "112504.855000", "112506.345000", "112507.835000", "112509.325000", "112510.815000", "112512.305000", "112513.795000", "112515.285000", "112516.775000", "112518.265000", "112519.755000", "112521.245000", "112522.735000", "112524.225000", "112525.715000", "112527.205000", "112528.695000", "112530.185000", "112531.675000", "112533.165000", "112534.655000", "112536.145000", "112537.635000", "112539.125000", "112540.615000", "112542.105000", "112543.595000", "112545.085000", "112546.575000", "112548.065000", "112549.555000", "112551.045000", "112552.535000", "112554.025000", "112555.515000", "112557.005000", "112558.495000", "112559.985000", "112601.475000", "112602.965000", "112604.455000", "112605.945000", "112607.435000", "112608.925000", "112610.415000", "112611.905000", "112613.395000", "112614.885000", "112616.375000", "112617.865000", "112619.355000", "112620.845000", "112622.335000", "112623.825000", "112625.315000", "112626.805000", "112628.295000", "112629.785000", "112631.275000", "112632.765000", "112634.255000", "112635.745000", "112637.235000", "112638.725000", "112640.215000", "112641.705000", "112643.195000", "112644.685000", "112646.175000", "112647.665000", "112649.155000", "112650.645000", "112652.135000", "112653.625000", "112655.115000", "112656.605000", "112658.095000", "112659.585000", "112701.075000", "112702.565000", "112704.055000", "112705.545000", "112707.035000", "112708.525000", "112710.015000", "112711.505000", "112712.995000", "112714.485000", "112715.975000", "112717.465000", "112718.955000", "112720.445000", "112721.935000", "112723.425000", "112724.915000", "112726.405000", "112727.895000", "112729.385000", "112730.875000", "112732.365000", "112733.855000", "112735.345000", "112736.835000", "112738.325000", "112739.815000", "112741.305000", "112742.795000", "112744.285000", "112745.775000", "112747.265000", "112748.755000", "112750.245000", "112751.735000", "112753.225000", "112754.715000", "112756.205000", "112757.695000", "112759.185000", "112800.675000", "112802.165000", "112803.655000", "112805.145000", "112806.635000", "112808.125000", "112809.615000", "112811.105000", "112812.595000", "112814.085000", "112815.575000", "112817.065000", "112818.555000", "112820.045000", "112821.535000", "112823.025000", "112824.515000", "112826.005000", "112827.495000", "112828.985000", "112830.475000", "112831.965000", "112833.455000", "112834.945000", "112836.435000", "112837.925000", "112839.415000", "112840.905000", "112842.395000", "112843.885000", "112845.375000", "112846.865000", "112848.355000", "112849.845000", "112851.335000", "112852.825000", "112854.315000", "112855.805000", "112857.295000", "112858.785000", "112900.275000", "112901.765000", "112903.255000", "112904.745000", "112906.235000", "112907.725000", "112909.215000", "112910.705000", "112912.195000", "112913.685000", "112915.175000", "112916.665000", "112918.155000", "112919.645000", "112921.135000", "112922.625000", "112924.115000", "112925.605000", "112927.095000", "112928.585000", "112930.075000", "112931.565000", "112933.055000", "112934.545000", "112936.035000", "112937.525000", "112939.015000", "112940.505000", "112941.995000", "112943.485000", "112944.975000", "112946.465000", "112947.955000", "112949.445000", "112950.935000", "112952.425000", "112953.915000", "112955.405000", "112956.895000", "112958.385000", "112959.875000", "113001.365000", "113002.855000", "113004.345000", "113005.835000", "113007.325000", "113008.815000", "113010.305000", "113011.795000", "113013.285000", "113014.775000", "113016.265000", "113017.755000", "113019.245000", "113020.735000", "113022.225000", "113023.715000", "113025.205000", "113026.695000", "113028.185000", "113029.675000", "113031.165000", "113032.655000", "113034.145000", "113035.635000", "113037.125000", "113038.615000", "113040.105000", "113041.595000", "113043.085000", "113044.575000", "113046.065000", "113047.555000", "113049.045000", "113050.535000", "113052.025000", "113053.515000", "113055.005000", "113056.495000", "113057.985000", "113059.475000", "113100.965000", "113102.455000", "113103.945000", "113105.435000", "113106.925000", "113108.415000", "113109.905000", "113111.395000", "113112.885000", "113114.375000", "113115.865000", "113117.355000", "113118.845000", "113120.335000", "113121.825000", "113123.315000", "113124.805000", "113126.295000", "113127.785000", "113129.275000", "113130.765000", "113132.255000", "113133.745000", "113135.235000", "113136.725000", "113138.215000", "113139.705000", "113141.195000", "113142.685000", "113144.175000", "113145.665000", "113147.155000", "113148.645000", "113150.135000", "113151.625000", "113153.115000", "113154.605000", "113156.095000", "113157.585000", "113159.075000", "113200.565000", "113202.055000", "113203.545000", "113205.035000", "113206.525000", "113208.015000", "113209.505000", "113210.995000", "113212.485000", "113213.975000", "113215.465000", "113216.955000", "113218.445000", "113219.935000", "113221.425000", "113222.915000", "113224.405000", "113225.895000", "113227.385000", "113228.875000", "113230.365000", "113231.855000", "113233.345000", "113234.835000", "113236.325000", "113237.815000", "113239.305000", "113240.795000", "113242.285000", "113243.775000", "113245.265000", "113246.755000", "113248.245000", "113249.735000", "113251.225000", "113252.715000", "113254.205000", "113255.695000", "113257.185000", "113258.675000", "113300.165000", "113301.655000", "113303.145000", "113304.635000", "113306.125000", "113307.615000", "113309.105000", "113310.595000", "113312.085000", "113313.575000", "113315.065000", "113316.555000", "113318.045000", "113319.535000", "113321.025000", "113322.515000", "113324.005000", "113325.495000", "113326.985000", "113328.475000", "113329.965000", "113331.455000", "113332.945000", "113334.435000", "113335.925000", "113337.415000", "113338.905000", "113340.395000", "113341.885000", "113343.375000", "113344.865000", "113346.355000", "113347.845000", "113349.335000", "113350.825000"],
      "ContentTime": ["112345.916000", "112345.920000", "112345.923000", "112345.926000", "112345.928000", "112345.931000", "112345.934000", "112345.937000", "112345.940000", "112345.943000", "112345.945000", "112345.948000", "112345.955000", "112345.958000", "112345.961000", "112345.964000", "112345.967000", "112345.970000", "112345.972000", "112345.975000", "112345.978000", "112345.981000", "112345.985000", "112345.988000", "112345.991000", "112345.994000", "112345.996000", "112346.000000", "112346.003000", "112346.006000", "112346.009000", "112346.012000", "112346.015000", "112346.017000", "112346.020000", "112346.023000", "112346.026000", "112346.029000", "112346.032000", "112405.886000", "112405.890000", "112405.893000", "112405.896000", "112405.899000", "112405.902000", "112405.905000", "112405.908000", "112405.911000", "112405.914000", "112405.917000", "112405.920000", "112405.922000", "112405.926000", "112405.928000", "112405.931000", "112405.934000", "112405.937000", "112405.940000", "112405.943000", "112425.886000", "112425.889000", "112425.892000", "112425.895000", "112425.897000", "112425.900000", "112425.903000", "112425.906000", "112425.909000", "112425.912000", "112425.915000", "112425.917000", "112425.920000", "112425.923000", "112425.926000", "112425.929000", "112425.931000", "112425.934000", "112425.937000", "112425.940000", "112425.943000", "112445.886000", "112445.889000", "112445.892000", "112445.894000", "112445.897000", "112445.900000", "112445.903000", "112445.906000", "112445.909000", "112445.912000", "112445.914000", "112445.917000", "112445.920000", "112445.923000", "112445.926000", "112445.929000", "112445.932000", "112445.934000", "112445.937000", "112445.940000", "112525.886000", "112525.889000", "112525.892000", "112525.895000", "112525.898000", "112525.900000", "112525.903000", "112525.906000", "112525.909000", "112525.912000", "112525.915000", "112525.918000", "112525.920000", "112525.923000", "112525.926000", "112525.929000", "112525.932000", "112525.935000", "112525.938000", "112525.941000", "112525.943000", "112525.946000", "112525.949000", "112525.952000", "112525.955000", "112525.957000", "112525.960000", "112525.963000", "112525.966000", "112605.886000", "112605.889000", "112605.892000", "112605.895000", "112605.898000", "112605.900000", "112605.903000", "112605.906000", "112605.909000", "112605.912000", "112605.915000", "112605.918000", "112605.920000", "112605.923000", "112605.926000", "112605.929000", "112605.932000", "112605.935000", "112605.938000", "112605.941000", "112605.943000", "112605.946000", "112605.949000", "112605.952000", "112605.955000", "112605.958000", "112605.960000", "112645.886000", "112645.889000", "112645.892000", "112645.895000", "112645.898000", "112645.900000", "112645.903000", "112645.906000", "112645.909000", "112645.912000", "112645.915000", "112645.918000", "112645.920000", "112645.923000", "112645.926000", "112645.929000", "112645.932000", "112645.943000", "112645.946000", "112645.949000", "112645.952000", "112645.955000", "112645.958000", "112645.960000", "112645.963000", "112645.966000", "112645.969000", "112725.886000", "112725.889000", "112725.892000", "112725.895000", "112725.898000", "112725.901000", "112725.903000", "112725.906000", "112725.909000", "112725.912000", "112725.915000", "112725.918000", "112725.920000", "112725.923000", "112725.926000", "112725.929000", "112725.932000", "112725.935000", "112725.938000", "112725.941000", "112725.944000", "112725.947000", "112725.949000", "112725.952000", "112725.955000", "112725.958000", "112725.961000", "112805.885000", "112805.888000", "112805.891000", "112805.894000", "112805.897000", "112805.899000", "112805.902000", "112805.905000", "112805.908000", "112805.911000", "112805.914000", "112805.916000", "112805.919000", "112805.922000", "112805.925000", "112805.928000", "112805.931000", "112805.934000", "112805.937000", "112805.940000", "112805.943000", "112805.945000", "112805.948000", "112805.951000", "112805.954000", "112805.957000", "112805.960000", "112845.886000", "112845.889000", "112845.892000", "112845.895000", "112845.898000", "112845.900000", "112845.903000", "112845.906000", "112845.909000", "112845.912000", "112845.915000", "112845.918000", "112845.921000", "112845.923000", "112845.926000", "112845.929000", "112845.932000", "112845.935000", "112845.938000", "112845.941000", "112845.944000", "112845.946000", "112845.949000", "112845.952000", "112845.955000", "112845.958000", "112845.961000", "112925.886000", "112925.889000", "112925.892000", "112925.895000", "112925.898000", "112925.901000", "112925.903000", "112925.906000", "112925.909000", "112925.912000", "112925.915000", "112925.918000", "112925.922000", "112925.925000", "112925.927000", "112925.930000", "112925.933000", "112925.936000", "112925.939000", "112925.942000", "112925.945000", "112925.948000", "112925.950000", "112925.953000", "112925.956000", "112925.959000", "113005.886000", "113005.889000", "113005.892000", "113005.894000", "113005.898000", "113005.900000", "113005.903000", "113005.906000", "113005.909000", "113005.912000", "113005.915000", "113005.917000", "113005.920000", "113005.923000", "113005.926000", "113005.929000", "113005.932000", "113005.935000", "113005.938000", "113005.941000", "113005.944000", "113005.946000", "113005.949000", "113005.952000", "113005.955000", "113005.958000", "113005.961000", "113045.886000", "113045.889000", "113045.892000", "113045.895000", "113045.898000", "113045.900000", "113045.903000", "113045.906000", "113045.909000", "113045.912000", "113045.915000", "113045.918000", "113045.921000", "113045.923000", "113045.926000", "113045.929000", "113045.932000", "113045.935000", "113045.938000", "113045.941000", "113045.944000", "113045.947000", "113045.950000", "113045.953000", "113045.956000", "113045.959000", "113045.961000", "113125.886000", "113125.889000", "113125.892000", "113125.895000", "113125.898000", "113125.901000", "113125.904000", "113125.906000", "113125.909000", "113125.912000", "113125.915000", "113125.918000", "113125.921000", "113125.923000", "113125.926000", "113125.929000", "113125.932000", "113125.935000", "113125.938000", "113125.941000", "113125.944000", "113125.947000", "113125.950000", "113125.953000", "113125.956000", "113125.958000", "113125.961000", "113205.886000", "113205.889000", "113205.892000", "113205.895000", "113205.898000", "113205.901000", "113205.903000", "113205.906000", "113205.909000", "113205.912000", "113205.915000", "113205.918000", "113205.921000", "113205.924000", "113205.926000", "113205.929000", "113205.932000", "113205.935000", "113205.938000", "113205.941000", "113205.944000", "113205.947000", "113205.950000", "113205.952000", "113205.955000", "113205.958000", "113205.961000", "113245.885000", "113245.888000", "113245.891000", "113245.894000", "113245.897000", "113245.900000", "113245.902000", "113245.905000", "113245.908000", "113245.911000", "113245.914000", "113245.917000", "113245.920000", "113245.923000", "113245.925000", "113245.928000", "113245.931000", "113245.934000", "113245.937000", "113245.940000", "113245.943000", "113245.946000", "113245.948000", "113245.951000", "113245.954000", "113245.957000", "113245.960000", "113325.886000", "113325.890000", "113325.893000", "113325.896000", "113325.900000", "113325.903000", "113325.906000", "113325.909000", "113325.912000", "113325.915000", "113325.918000", "113325.921000", "113325.925000", "113325.930000", "113325.934000", "113325.937000", "113325.940000", "113325.944000", "113325.947000", "113325.951000", "113325.954000", "113325.957000", "113325.960000", "113325.963000", "113325.966000", "113325.969000", "113403.226000", "113403.229000", "113403.232000", "113403.238000", "113403.241000", "113403.244000", "113403.247000", "113403.250000", "113403.253000", "113403.256000", "113403.259000", "113403.262000", "113403.265000", "113403.268000", "113403.271000", "113403.274000", "113403.277000", "113403.280000", "113403.283000"],
