{
  "AcquisitionMatrixPE": 104,
  "AcquisitionNumber": 1,
  "AcquisitionTime": "11:06:49.422500",
  "BandwidthPerPixelPhaseEncode": 17.17,
  "BaseResolution": 104,
  "BodyPartExamined": "BRAIN",
  "CoilString": "HC1-7;NC1_2",
  "ConsistencyInfo": "N4_VE11C_LATEST_20160120",
  "ConversionSoftware": "dcm2niix",
  "ConversionSoftwareVersion": "v1.0.20200427",
  "DerivedVendorReportedEchoSpacing": 0.000560011,
  "DeviceSerialNumber": "167006",
  "DwellTime": 2.1e-06,
  "EchoTime": 0.037,
  "EchoTrainLength": 104,
  "EffectiveEchoSpacing": 0.000560011,
  "FlipAngle": 52,
  "ImageComments": "Unaliased_MB4_PE3_LB",
  "ImageOrientationPatientDICOM": [0.997396, 0.0692462, 0.0201686, -0.0587322, 0.942109, -0.330124],
  "ImageType": [
    "ORIGINAL",
    "PRIMARY",
    "M",
    "MB",
    "ND",
    "MOSAIC"
],
  "ImagingFrequency": 123.259,
  "InPlanePhaseEncodingDirectionDICOM": "COL",
  "InstitutionAddress": "Chemin_Queen-Mary_4565_Montreal_District_CA_H3W_1W5",
  "InstitutionName": "IUGM",
  "InstitutionalDepartmentName": "Department",
  "MRAcquisitionType": "2D",
  "MagneticFieldStrength": 3,
  "Manufacturer": "Siemens",
  "ManufacturersModelName": "Prisma_fit",
  "Modality": "MR",
  "MultibandAccelerationFactor": 4,
  "PartialFourier": 1,
  "PatientPosition": "HFS",
  "PercentPhaseFOV": 100,
  "PercentSampling": 100,
  "PhaseEncodingDirection": "j",
  "PhaseEncodingSteps": 104,
  "PhaseResolution": 1,
  "PixelBandwidth": 2290,
  "ProcedureStepDescription": "video_friends",
  "ProtocolName": "func_task-friends-s01e20b",
  "PulseSequenceDetails": "%CustomerSeq%_cmrr_mbep2d_bold",
  "ReceiveCoilActiveElements": "HC1-7;NC1,2",
  "ReceiveCoilName": "HeadNeck_64",
  "ReconMatrixPE": 104,
  "RepetitionTime": 1.49,
  "SAR": 0.0385681,
  "ScanOptions": "FS",
  "ScanningSequence": "EP",
  "SequenceName": "epfid2d1_104",
  "SequenceVariant": "SK_SS",
  "SeriesDescription": "func_task-friends-s02e20b",
  "SeriesNumber": 26,
  "ShimSetting": [630, -7217, -8834, 670, 81, -51, 33, -21],
  "SliceThickness": 2,
  "SliceTiming": [0, 0.785, 0.0975, 0.8825, 0.195, 0.98, 0.295, 1.0775, 0.3925, 1.175, 0.49, 1.275, 0.5875, 1.3725, 0.685, 0, 0.785, 0.0975, 0.8825, 0.195, 0.98, 0.295, 1.0775, 0.3925, 1.175, 0.49, 1.275, 0.5875, 1.3725, 0.685, 0, 0.785, 0.0975, 0.8825, 0.195, 0.98, 0.295, 1.0775, 0.3925, 1.175, 0.49, 1.275, 0.5875, 1.3725, 0.685, 0, 0.785, 0.0975, 0.8825, 0.195, 0.98, 0.295, 1.0775, 0.3925, 1.175, 0.49, 1.275, 0.5875, 1.3725, 0.685],
  "SoftwareVersions": "syngo_MR_E11",
  "SpacingBetweenSlices": 2,
  "StationName": "MRC35049",
  "TaskName": "s01e20b",
  "TotalReadoutTime": 0.0576811,
  "TxRefAmp": 248.981,
  "WipMemBlock": "6c7995fe-7926-4174-8d39-2f6d2b134c65||Sequence: R016 ve11c/master r/e634e98; Dec 19 2017 11:00:25 by eja",
  "dcmmeta_affine": [
    [-1.9947913885116577, -0.11746437847614288, 0.08372173458337784, 106.39219665527344],
    [-0.13849230110645294, 1.8842170238494873, -0.6561601161956787, -63.27678680419922],
    [0.04033723846077919, 0.6602486968040466, 1.887444019317627, -60.34980392456055],
    [0.0, 0.0, 0.0, 1.0]
],
  "dcmmeta_reorient_transform": [
    [0.0, -1.0, 0.0, 103.0],
    [1.0, 0.0, 0.0, 0.0],
    [0.0, 0.0, 1.0, 0.0],
    [0.0, 0.0, 0.0, 1.0]
],
  "dcmmeta_shape": [104, 104, 60, 460],
  "dcmmeta_slice_dim": 2,
  "dcmmeta_version": 0.6,
  "global": {
    "const": {
      "AcquisitionMatrix": [104, 0, 0, 104],
      "AngioFlag": "N",
      "BitsAllocated": 16,
      "BitsStored": 16,
      "BodyPartExamined": "BRAIN",
      "Columns": 832,
      "EchoNumbers": 1,
      "EchoTime": 37.0,
      "EchoTrainLength": 104,
      "FlipAngle": 52.0,
      "HighBit": 15,
      "ImageOrientationPatient": [0.99739570768664, 0.06924614875639, 0.02016861846201, -0.0587321897583, 0.94210850971286, -0.3301243490154],
      "ImagePositionPatient": [-777.64040805189, -867.06375789903, 233.30358369869],
      "ImageType": [
        "ORIGINAL",
        "PRIMARY",
        "M",
        "MB",
        "ND",
        "MOSAIC"
],
      "ImagedNucleus": "1H",
      "ImagingFrequency": 123.259078,
      "InPlanePhaseEncodingDirection": "COL",
      "MRAcquisitionType": "2D",
      "MagneticFieldStrength": 3.0,
      "Manufacturer": "SIEMENS",
      "ManufacturerModelName": "Prisma_fit",
      "Modality": "MR",
      "NumberOfAverages": 1.0,
      "NumberOfPhaseEncodingSteps": 104,
      "PercentPhaseFieldOfView": 100.0,
      "PercentSampling": 100.0,
      "PerformedProcedureStepStartTime": "093816.263000",
      "PhotometricInterpretation": "MONOCHROME2",
      "PixelBandwidth": 2290.0,
      "PixelRepresentation": 0,
      "PixelSpacing": [2.0, 2.0],
      "ProtocolName": "func_task-friends-s01e20b",
      "RepetitionTime": 1490.0,
      "Rows": 832,
      "SAR": 0.03856813093429,
      "SamplesPerPixel": 1,
      "ScanOptions": "FS",
      "ScanningSequence": "EP",
      "SequenceName": "epfid2d1_104",
      "SequenceVariant": [
        "SK",
        "SS"
],
      "SeriesDescription": "func_task-friends-s02e20b",
      "SeriesNumber": 26,
      "SeriesTime": "110821.880000",
      "SliceLocation": -31.739913818261,
      "SliceThickness": 2.0,
      "SmallestImagePixelValue": 0,
      "SoftwareVersions": "syngo MR E11",
      "SpacingBetweenSlices": 2.0000000395156,
      "SpecificCharacterSet": "ISO_IR 100",
      "StudyID": "1",
      "StudyTime": "093816.120000",
      "TransmitCoilName": "Body",
      "VariableFlipAngleFlag": "N",
      "WindowCenterWidthExplanation": "Algo1",
      "dBdt": 0.0},
    "slices": {}
  },
  "time": {
    "samples": {
      "AcquisitionNumber": [1, 2, 3, 4, 5, 6, 7, 8, 9, 10, 11, 12, 13, 14, 15, 16, 17, 18, 19, 20, 21, 22, 23, 24, 25, 26, 27, 28, 29, 30, 31, 32, 33, 34, 35, 36, 37, 38, 39, 40, 41, 42, 43, 44, 45, 46, 47, 48, 49, 50, 51, 52, 53, 54, 55, 56, 57, 58, 59, 60, 61, 62, 63, 64, 65, 66, 67, 68, 69, 70, 71, 72, 73, 74, 75, 76, 77, 78, 79, 80, 81, 82, 83, 84, 85, 86, 87, 88, 89, 90, 91, 92, 93, 94, 95, 96, 97, 98, 99, 100, 101, 102, 103, 104, 105, 106, 107, 108, 109, 110, 111, 112, 113, 114, 115, 116, 117, 118, 119, 120, 121, 122, 123, 124, 125, 126, 127, 128, 129, 130, 131, 132, 133, 134, 135, 136, 137, 138, 139, 140, 141, 142, 143, 144, 145, 146, 147, 148, 149, 150, 151, 152, 153, 154, 155, 156, 157, 158, 159, 160, 161, 162, 163, 164, 165, 166, 167, 168, 169, 170, 171, 172, 173, 174, 175, 176, 177, 178, 179, 180, 181, 182, 183, 184, 185, 186, 187, 188, 189, 190, 191, 192, 193, 194, 195, 196, 197, 198, 199, 200, 201, 202, 203, 204, 205, 206, 207, 208, 209, 210, 211, 212, 213, 214, 215, 216, 217, 218, 219, 220, 221, 222, 223, 224, 225, 226, 227, 228, 229, 230, 231, 232, 233, 234, 235, 236, 237, 238, 239, 240, 241, 242, 243, 244, 245, 246, 247, 248, 249, 250, 251, 252, 253, 254, 255, 256, 257, 258, 259, 260, 261, 262, 263, 264, 265, 266, 267, 268, 269, 270, 271, 272, 273, 274, 275, 276, 277, 278, 279, 280, 281, 282, 283, 284, 285, 286, 287, 288, 289, 290, 291, 292, 293, 294, 295, 296, 297, 298, 299, 300, 301, 302, 303, 304, 305, 306, 307, 308, 309, 310, 311, 312, 313, 314, 315, 316, 317, 318, 319, 320, 321, 322, 323, 324, 325, 326, 327, 328, 329, 330, 331, 332, 333, 334, 335, 336, 337, 338, 339, 340, 341, 342, 343, 344, 345, 346, 347, 348, 349, 350, 351, 352, 353, 354, 355, 356, 357, 358, 359, 360, 361, 362, 363, 364, 365, 366, 367, 368, 369, 370, 371, 372, 373, 374, 375, 376, 377, 378, 379, 380, 381, 382, 383, 384, 385, 386, 387, 388, 389, 390, 391, 392, 393, 394, 395, 396, 397, 398, 399, 400, 401, 402, 403, 404, 405, 406, 407, 408, 409, 410, 411, 412, 413, 414, 415, 416, 417, 418, 419, 420, 421, 422, 423, 424, 425, 426, 427, 428, 429, 430, 431, 432, 433, 434, 435, 436, 437, 438, 439, 440, 441, 442, 443, 444, 445, 446, 447, 448, 449, 450, 451, 452, 453, 454, 455, 456, 457, 458, 459, 460],
      "AcquisitionTime": ["110649.422500", "110650.912500", "110652.402500", "110653.892500", "110655.382500", "110656.872500", "110658.362500", "110659.852500", "110701.342500", "110702.832500", "110704.322500", "110705.812500", "110707.302500", "110708.792500", "110710.282500", "110711.772500", "110713.262500", "110714.752500", "110716.242500", "110717.732500", "110719.222500", "110720.712500", "110722.202500", "110723.692500", "110725.182500", "110726.672500", "110728.162500", "110729.652500", "110731.142500", "110732.632500", "110734.122500", "110735.612500", "110737.102500", "110738.592500", "110740.082500", "110741.572500", "110743.062500", "110744.552500", "110746.042500", "110747.532500", "110749.022500", "110750.512500", "110752.002500", "110753.492500", "110754.982500", "110756.472500", "110757.962500", "110759.452500", "110800.942500", "110802.432500", "110803.922500", "110805.412500", "110806.902500", "110808.392500", "110809.882500", "110811.372500", "110812.862500", "110814.352500", "110815.842500", "110817.332500", "110818.822500", "110820.312500", "110821.802500", "110823.292500", "110824.782500", "110826.272500", "110827.762500", "110829.252500", "110830.742500", "110832.232500", "110833.722500", "110835.212500", "110836.702500", "110838.192500", "110839.682500", "110841.172500", "110842.662500", "110844.152500", "110845.642500", "110847.132500", "110848.622500", "110850.112500", "110851.602500", "110853.092500", "110854.582500", "110856.072500", "110857.562500", "110859.052500", "110900.542500", "110902.032500", "110903.522500", "110905.012500", "110906.502500", "110907.992500", "110909.482500", "110910.972500", "110912.462500", "110913.952500", "110915.442500", "110916.932500", "110918.422500", "110919.912500", "110921.402500", "110922.892500", "110924.382500", "110925.872500", "110927.362500", "110928.852500", "110930.342500", "110931.832500", "110933.322500", "110934.812500", "110936.302500", "110937.792500", "110939.282500", "110940.772500", "110942.262500", "110943.752500", "110945.242500", "110946.732500", "110948.222500", "110949.712500", "110951.202500", "110952.692500", "110954.182500", "110955.672500", "110957.162500", "110958.652500", "111000.142500", "111001.632500", "111003.122500", "111004.612500", "111006.102500", "111007.592500", "111009.082500", "111010.572500", "111012.062500", "111013.552500", "111015.042500", "111016.532500", "111018.022500", "111019.512500", "111021.002500", "111022.492500", "111023.982500", "111025.472500", "111026.962500", "111028.452500", "111029.942500", "111031.432500", "111032.922500", "111034.412500", "111035.902500", "111037.392500", "111038.882500", "111040.372500", "111041.862500", "111043.352500", "111044.842500", "111046.332500", "111047.822500", "111049.312500", "111050.802500", "111052.292500", "111053.782500", "111055.272500", "111056.762500", "111058.252500", "111059.742500", "111101.232500", "111102.722500", "111104.212500", "111105.702500", "111107.192500", "111108.682500", "111110.172500", "111111.662500", "111113.152500", "111114.642500", "111116.132500", "111117.622500", "111119.112500", "111120.602500", "111122.092500", "111123.582500", "111125.072500", "111126.562500", "111128.052500", "111129.542500", "111131.032500", "111132.522500", "111134.012500", "111135.502500", "111136.992500", "111138.482500", "111139.972500", "111141.462500", "111142.952500", "111144.442500", "111145.932500", "111147.422500", "111148.912500", "111150.402500", "111151.892500", "111153.382500", "111154.872500", "111156.362500", "111157.852500", "111159.342500", "111200.832500", "111202.322500", "111203.812500", "111205.302500", "111206.792500", "111208.282500", "111209.772500", "111211.262500", "111212.752500", "111214.242500", "111215.732500", "111217.222500", "111218.712500", "111220.202500", "111221.692500", "111223.182500", "111224.672500", "111226.162500", "111227.652500", "111229.142500", "111230.632500", "111232.122500", "111233.612500", "111235.102500", "111236.592500", "111238.082500", "111239.572500", "111241.062500", "111242.552500", "111244.042500", "111245.532500", "111247.022500", "111248.512500", "111250.002500", "111251.492500", "111252.982500", "111254.472500", "111255.962500", "111257.452500", "111258.942500", "111300.432500", "111301.922500", "111303.412500", "111304.902500", "111306.392500", "111307.882500", "111309.372500", "111310.862500", "111312.352500", "111313.842500", "111315.332500", "111316.822500", "111318.312500", "111319.802500", "111321.292500", "111322.782500", "111324.272500", "111325.762500", "111327.252500", "111328.742500", "111330.232500", "111331.722500", "111333.212500", "111334.702500", "111336.192500", "111337.682500", "111339.172500", "111340.662500", "111342.152500", "111343.642500", "111345.132500", "111346.622500", "111348.112500", "111349.602500", "111351.092500", "111352.582500", "111354.072500", "111355.562500", "111357.052500", "111358.542500", "111400.032500", "111401.522500", "111403.012500", "111404.502500", "111405.992500", "111407.482500", "111408.972500", "111410.462500", "111411.952500", "111413.442500", "111414.932500", "111416.422500", "111417.912500", "111419.402500", "111420.892500", "111422.382500", "111423.872500", "111425.362500", "111426.852500", "111428.342500", "111429.832500", "111431.322500", "111432.812500", "111434.302500", "111435.792500", "111437.282500", "111438.772500", "111440.262500", "111441.752500", "111443.242500", "111444.732500", "111446.222500", "111447.712500", "111449.202500", "111450.692500", "111452.182500", "111453.672500", "111455.162500", "111456.652500", "111458.142500", "111459.632500", "111501.122500", "111502.612500", "111504.102500", "111505.592500", "111507.082500", "111508.572500", "111510.062500", "111511.552500", "111513.042500", "111514.532500", "111516.022500", "111517.512500", "111519.002500", "111520.492500", "111521.982500", "111523.472500", "111524.962500", "111526.452500", "111527.942500", "111529.432500", "111530.922500", "111532.412500", "111533.902500", "111535.392500", "111536.882500", "111538.372500", "111539.862500", "111541.352500", "111542.842500", "111544.332500", "111545.822500", "111547.312500", "111548.802500", "111550.292500", "111551.782500", "111553.272500", "111554.762500", "111556.252500", "111557.742500", "111559.232500", "111600.722500", "111602.212500", "111603.702500", "111605.192500", "111606.682500", "111608.172500", "111609.662500", "111611.152500", "111612.642500", "111614.132500", "111615.622500", "111617.112500", "111618.602500", "111620.092500", "111621.582500", "111623.072500", "111624.562500", "111626.052500", "111627.542500", "111629.032500", "111630.522500", "111632.012500", "111633.502500", "111634.992500", "111636.482500", "111637.972500", "111639.462500", "111640.952500", "111642.442500", "111643.932500", "111645.422500", "111646.912500", "111648.402500", "111649.892500", "111651.382500", "111652.872500", "111654.362500", "111655.852500", "111657.342500", "111658.832500", "111700.322500", "111701.812500", "111703.302500", "111704.792500", "111706.282500", "111707.772500", "111709.262500", "111710.752500", "111712.242500", "111713.732500", "111715.222500", "111716.712500", "111718.202500", "111719.692500", "111721.182500", "111722.672500", "111724.162500", "111725.652500", "111727.142500", "111728.632500", "111730.122500", "111731.612500", "111733.102500", "111734.592500", "111736.082500", "111737.572500", "111739.062500", "111740.552500", "111742.042500", "111743.532500", "111745.022500", "111746.512500", "111748.002500", "111749.492500", "111750.982500", "111752.472500", "111753.962500", "111755.452500", "111756.942500", "111758.432500", "111759.922500", "111801.412500", "111802.902500", "111804.392500", "111805.882500", "111807.372500", "111808.862500", "111810.352500", "111811.842500", "111813.332500"],
      "ContentTime": ["110821.883000", "110821.886000", "110821.889000", "110821.892000", "110821.895000", "110821.897000", "110821.903000", "110821.906000", "110821.909000", "110821.912000", "110821.915000", "110821.918000", "110821.921000", "110821.927000", "110821.930000", "110821.933000", "110821.936000", "110821.939000", "110821.941000", "110821.944000", "110821.947000", "110821.950000", "110821.953000", "110821.956000", "110821.959000", "110821.961000", "110821.964000", "110821.967000", "110821.970000", "110821.973000", "110821.976000", "110821.979000", "110821.981000", "110821.984000", "110821.987000", "110821.990000", "110821.993000", "110821.995000", "110821.998000", "110822.001000", "110841.834000", "110841.837000", "110841.840000", "110841.842000", "110841.845000", "110841.848000", "110841.851000", "110841.859000", "110841.861000", "110841.864000", "110841.867000", "110841.870000", "110841.873000", "110841.876000", "110841.879000", "110841.881000", "110841.884000", "110841.887000", "110841.890000", "110841.893000", "110901.834000", "110901.837000", "110901.840000", "110901.842000", "110901.845000", "110901.848000", "110901.870000", "110901.873000", "110901.876000", "110901.878000", "110901.881000", "110901.884000", "110901.887000", "110901.890000", "110901.893000", "110901.896000", "110901.898000", "110901.901000", "110901.904000", "110901.907000", "110921.834000", "110921.837000", "110921.840000", "110921.843000", "110921.845000", "110921.848000", "110921.851000", "110921.854000", "110921.857000", "110921.859000", "110921.863000", "110921.865000", "110921.868000", "110921.871000", "110921.874000", "110921.877000", "110921.880000", "110921.882000", "110921.885000", "110921.888000", "111001.834000", "111001.837000", "111001.840000", "111001.842000", "111001.845000", "111001.848000", "111001.852000", "111001.855000", "111001.857000", "111001.860000", "111001.863000", "111001.866000", "111001.869000", "111001.872000", "111001.878000", "111001.880000", "111001.883000", "111001.886000", "111001.889000", "111001.892000", "111001.895000", "111001.897000", "111001.900000", "111001.903000", "111001.906000", "111001.909000", "111001.912000", "111001.915000", "111041.834000", "111041.837000", "111041.840000", "111041.842000", "111041.845000", "111041.848000", "111041.851000", "111041.854000", "111041.857000", "111041.860000", "111041.863000", "111041.865000", "111041.868000", "111041.871000", "111041.874000", "111041.877000", "111041.880000", "111041.883000", "111041.885000", "111041.888000", "111041.891000", "111041.894000", "111041.897000", "111041.900000", "111041.903000", "111041.905000", "111041.908000", "111121.834000", "111121.837000", "111121.840000", "111121.843000", "111121.846000", "111121.848000", "111121.851000", "111121.854000", "111121.863000", "111121.866000", "111121.869000", "111121.872000", "111121.875000", "111121.878000", "111121.881000", "111121.884000", "111121.887000", "111121.889000", "111121.892000", "111121.895000", "111121.898000", "111121.901000", "111121.904000", "111121.907000", "111121.910000", "111121.912000", "111121.915000", "111201.834000", "111201.837000", "111201.840000", "111201.843000", "111201.845000", "111201.848000", "111201.851000", "111201.854000", "111201.857000", "111201.860000", "111201.863000", "111201.866000", "111201.868000", "111201.871000", "111201.874000", "111201.877000", "111201.880000", "111201.883000", "111201.886000", "111201.888000", "111201.891000", "111201.894000", "111201.897000", "111201.900000", "111201.903000", "111201.905000", "111201.908000", "111241.835000", "111241.838000", "111241.841000", "111241.844000", "111241.847000", "111241.849000", "111241.852000", "111241.855000", "111241.858000", "111241.861000", "111241.864000", "111241.867000", "111241.869000", "111241.872000", "111241.875000", "111241.878000", "111241.881000", "111241.884000", "111241.887000", "111241.889000", "111241.892000", "111241.895000", "111241.898000", "111241.901000", "111241.904000", "111241.906000", "111241.909000", "111321.834000", "111321.888000", "111321.891000", "111321.893000", "111321.897000", "111321.899000", "111321.902000", "111321.905000", "111321.908000", "111321.911000", "111321.914000", "111321.916000", "111321.920000", "111321.922000", "111321.925000", "111321.928000", "111321.931000", "111321.934000", "111321.937000", "111321.940000", "111321.943000", "111321.945000", "111321.948000", "111321.951000", "111321.954000", "111321.957000", "111321.960000", "111401.834000", "111401.837000", "111401.840000", "111401.843000", "111401.846000", "111401.849000", "111401.852000", "111401.854000", "111401.857000", "111401.860000", "111401.863000", "111401.867000", "111401.870000", "111401.873000", "111401.876000", "111401.879000", "111401.882000", "111401.884000", "111401.887000", "111401.890000", "111401.893000", "111401.896000", "111401.899000", "111401.902000", "111401.905000", "111401.907000", "111441.834000", "111441.837000", "111441.840000", "111441.843000", "111441.845000", "111441.849000", "111441.851000", "111441.854000", "111441.857000", "111441.860000", "111441.863000", "111441.866000", "111441.868000", "111441.872000", "111441.874000", "111441.877000", "111441.880000", "111441.883000", "111441.886000", "111441.889000", "111441.892000", "111441.895000", "111441.897000", "111441.900000", "111441.903000", "111441.906000", "111441.909000", "111521.834000", "111521.837000", "111521.840000", "111521.842000", "111521.845000", "111521.848000", "111521.851000", "111521.854000", "111521.857000", "111521.860000", "111521.863000", "111521.865000", "111521.868000", "111521.871000", "111521.874000", "111521.877000", "111521.886000", "111521.889000", "111521.892000", "111521.895000", "111521.898000", "111521.901000", "111521.903000", "111521.906000", "111521.909000", "111521.912000", "111521.915000", "111601.834000", "111601.837000", "111601.840000", "111601.843000", "111601.846000", "111601.849000", "111601.852000", "111601.855000", "111601.857000", "111601.860000", "111601.863000", "111601.866000", "111601.869000", "111601.872000", "111601.875000", "111601.878000", "111601.880000", "111601.883000", "111601.886000", "111601.889000", "111601.892000", "111601.895000", "111601.898000", "111601.901000", "111601.903000", "111601.906000", "111601.909000", "111641.834000", "111641.856000", "111641.859000", "111641.862000", "111641.865000", "111641.868000", "111641.871000", "111641.874000", "111641.877000", "111641.879000", "111641.882000", "111641.885000", "111641.888000", "111641.891000", "111641.894000", "111641.897000", "111641.900000", "111641.903000", "111641.906000", "111641.909000", "111641.911000", "111641.914000", "111641.917000", "111641.920000", "111641.923000", "111641.926000", "111641.929000", "111721.835000", "111721.838000", "111721.841000", "111721.844000", "111721.847000", "111721.850000", "111721.852000", "111721.855000", "111721.858000", "111721.861000", "111721.864000", "111721.867000", "111721.870000", "111721.873000", "111721.876000", "111721.878000", "111721.881000", "111721.884000", "111721.887000", "111721.890000", "111721.893000", "111721.896000", "111721.899000", "111721.901000", "111721.904000", "111721.907000", "111721.910000", "111801.834000", "111801.837000", "111801.840000", "111801.843000", "111801.853000", "111801.855000", "111801.858000", "111801.861000", "111801.864000", "111801.867000", "111801.870000", "111801.873000", "111801.876000", "111801.878000", "111801.881000", "111801.884000", "111801.887000", "111801.890000", "111801.908000", "111801.911000", "111801.921000", "111801.924000", "111801.927000", "111801.930000", "111801.933000", "111801.936000", "111801.938000", "111815.214000", "111815.217000", "111815.220000", "111815.223000", "111815.226000", "111815.229000", "111815.232000", "111815.235000", "111815.237000"],
