{
  "AcquisitionMatrixPE": 104,
  "AcquisitionNumber": 1,
  "AcquisitionTime": "10:34:23.585000",
  "BandwidthPerPixelPhaseEncode": 17.17,
  "BaseResolution": 104,
  "BodyPartExamined": "BRAIN",
  "CoilString": "HC1-7;NC1_2",
  "ConsistencyInfo": "N4_VE11C_LATEST_20160120",
  "ConversionSoftware": "dcm2niix",
  "ConversionSoftwareVersion": "v1.0.20190902",
  "DerivedVendorReportedEchoSpacing": 0.000560011,
  "DeviceSerialNumber": "167006",
  "DwellTime": 2.1e-06,
  "EchoTime": 0.037,
  "EchoTrainLength": 104,
  "EffectiveEchoSpacing": 0.000560011,
  "FlipAngle": 52,
  "ImageComments": "Unaliased_MB4_PE3_LB",
  "ImageOrientationPatientDICOM": [0.998373, 0.0530103, 0.0210024, -0.0451612, 0.960012, -0.276293],
  "ImageType": [
    "ORIGINAL",
    "PRIMARY",
    "M",
    "MB",
    "ND",
    "MOSAIC"
],
  "ImagingFrequency": 123.259,
  "InPlanePhaseEncodingDirectionDICOM": "COL",
  "InstitutionAddress": "Chemin_Queen-Mary_4565_Montreal_District_CA_H3W_1W5",
  "InstitutionName": "IUGM",
  "InstitutionalDepartmentName": "Department",
  "MRAcquisitionType": "2D",
  "MagneticFieldStrength": 3,
  "Manufacturer": "Siemens",
  "ManufacturersModelName": "Prisma_fit",
  "Modality": "MR",
  "MultibandAccelerationFactor": 4,
  "PartialFourier": 1,
  "PatientPosition": "HFS",
  "PercentPhaseFOV": 100,
  "PhaseEncodingDirection": "j",
  "PhaseEncodingSteps": 104,
  "PhaseResolution": 1,
  "PixelBandwidth": 2290,
  "ProcedureStepDescription": "video_friends",
  "ProtocolName": "func_task-friends-s02e19b",
  "PulseSequenceDetails": "%CustomerSeq%_cmrr_mbep2d_bold",
  "ReceiveCoilActiveElements": "HC1-7;NC1,2",
  "ReceiveCoilName": "HeadNeck_64",
  "ReconMatrixPE": 104,
  "RepetitionTime": 1.49,
  "SAR": 0.0351821,
  "ScanOptions": "FS",
  "ScanningSequence": "EP",
  "SequenceName": "epfid2d1_104",
  "SequenceVariant": "SK_SS",
  "SeriesDescription": "func_task-friends-s02e19b",
  "SeriesNumber": 15,
  "ShimSetting": [640, -7202, -8820, 688, 115, -4, 44, -17],
  "SliceThickness": 2,
  "SliceTiming": [0, 0.7825, 0.0975, 0.8825, 0.195, 0.98, 0.2925, 1.0775, 0.3925, 1.175, 0.49, 1.2725, 0.5875, 1.3725, 0.685, 0, 0.7825, 0.0975, 0.8825, 0.195, 0.98, 0.2925, 1.0775, 0.3925, 1.175, 0.49, 1.2725, 0.5875, 1.3725, 0.685, 0, 0.7825, 0.0975, 0.8825, 0.195, 0.98, 0.2925, 1.0775, 0.3925, 1.175, 0.49, 1.2725, 0.5875, 1.3725, 0.685, 0, 0.7825, 0.0975, 0.8825, 0.195, 0.98, 0.2925, 1.0775, 0.3925, 1.175, 0.49, 1.2725, 0.5875, 1.3725, 0.685],
  "SoftwareVersions": "syngo_MR_E11",
  "SpacingBetweenSlices": 2,
  "StationName": "MRC35049",
  "TaskName": "s02e19b",
  "TotalReadoutTime": 0.0576811,
  "TxRefAmp": 242.592,
  "WipMemBlock": "fc74410a-6d2e-4595-82f9-d782dd90debe||Sequence: R016 ve11c/master r/e634e98; Dec 19 2017 11:00:25 by eja",
  "dcmmeta_affine": [
    [-1.9967461824417114, -0.09032236039638519, 0.06961794197559357, 106.08202362060547],
    [-0.10602063685655594, 1.9200236797332764, -0.5497897267341614, -68.54228210449219],
    [0.042004894465208054, 0.5525857210159302, 1.9216879606246948, -54.74174118041992],
    [0.0, 0.0, 0.0, 1.0]
],
  "dcmmeta_reorient_transform": [
    [0.0, -1.0, 0.0, 103.0],
    [1.0, 0.0, 0.0, 0.0],
    [0.0, 0.0, 1.0, 0.0],
    [0.0, 0.0, 0.0, 1.0]
],
  "dcmmeta_shape": [104, 104, 60, 478],
  "dcmmeta_slice_dim": 2,
  "dcmmeta_version": 0.6,
  "global": {
    "const": {
      "AcquisitionMatrix": [104, 0, 0, 104],
      "AngioFlag": "N",
      "BitsAllocated": 16,
      "BitsStored": 16,
      "BodyPartExamined": "BRAIN",
      "Columns": 832,
      "EchoNumbers": 1,
      "EchoTime": 37.0,
      "EchoTrainLength": 104,
      "FlipAngle": 52.0,
      "HighBit": 15,
      "ImageOrientationPatient": [0.99837307833279, 0.05301031664606, 0.02100244722389, -0.0451611790844, 0.96001183690266, -0.2762928535277],
      "ImagePositionPatient": [-790.71708581729, -866.7002802938, 188.02600387853],
      "ImageType": [
        "ORIGINAL",
        "PRIMARY",
        "M",
        "MB",
        "ND",
        "MOSAIC"
],
      "ImagedNucleus": "1H",
      "ImagingFrequency": 123.259072,
      "InPlanePhaseEncodingDirection": "COL",
      "MRAcquisitionType": "2D",
      "MagneticFieldStrength": 3.0,
      "Manufacturer": "SIEMENS",
      "ManufacturerModelName": "Prisma_fit",
      "Modality": "MR",
      "NumberOfAverages": 1.0,
      "NumberOfPhaseEncodingSteps": 104,
      "PercentPhaseFieldOfView": 100.0,
      "PercentSampling": 100.0,
      "PerformedProcedureStepStartTime": "093816.263000",
      "PhotometricInterpretation": "MONOCHROME2",
      "PixelBandwidth": 2290.0,
      "PixelRepresentation": 0,
      "PixelSpacing": [2.0, 2.0],
      "ProtocolName": "func_task-friends-s02e19b",
      "RepetitionTime": 1490.0,
      "Rows": 832,
      "SAR": 0.03518208816797,
      "SamplesPerPixel": 1,
      "ScanOptions": "FS",
      "ScanningSequence": "EP",
      "SequenceName": "epfid2d1_104",
      "SequenceVariant": [
        "SK",
        "SS"
],
      "SeriesDescription": "func_task-friends-s02e19b",
      "SeriesNumber": 15,
      "SeriesTime": "103537.844000",
      "SliceLocation": -30.063743634519,
      "SliceThickness": 2.0,
      "SmallestImagePixelValue": 0,
      "SoftwareVersions": "syngo MR E11",
      "SpacingBetweenSlices": 1.9999999849734,
      "SpecificCharacterSet": "ISO_IR 100",
      "StudyID": "1",
      "StudyTime": "093816.120000",
      "TransmitCoilName": "Body",
      "VariableFlipAngleFlag": "N",
      "WindowCenterWidthExplanation": "Algo1",
      "dBdt": 0.0},
    "slices": {}
  },
  "time": {
    "samples": {
      "AcquisitionNumber": [1, 2, 3, 4, 5, 6, 7, 8, 9, 10, 11, 12, 13, 14, 15, 16, 17, 18, 19, 20, 21, 22, 23, 24, 25, 26, 27, 28, 29, 30, 31, 32, 33, 34, 35, 36, 37, 38, 39, 40, 41, 42, 43, 44, 45, 46, 47, 48, 49, 50, 51, 52, 53, 54, 55, 56, 57, 58, 59, 60, 61, 62, 63, 64, 65, 66, 67, 68, 69, 70, 71, 72, 73, 74, 75, 76, 77, 78, 79, 80, 81, 82, 83, 84, 85, 86, 87, 88, 89, 90, 91, 92, 93, 94, 95, 96, 97, 98, 99, 100, 101, 102, 103, 104, 105, 106, 107, 108, 109, 110, 111, 112, 113, 114, 115, 116, 117, 118, 119, 120, 121, 122, 123, 124, 125, 126, 127, 128, 129, 130, 131, 132, 133, 134, 135, 136, 137, 138, 139, 140, 141, 142, 143, 144, 145, 146, 147, 148, 149, 150, 151, 152, 153, 154, 155, 156, 157, 158, 159, 160, 161, 162, 163, 164, 165, 166, 167, 168, 169, 170, 171, 172, 173, 174, 175, 176, 177, 178, 179, 180, 181, 182, 183, 184, 185, 186, 187, 188, 189, 190, 191, 192, 193, 194, 195, 196, 197, 198, 199, 200, 201, 202, 203, 204, 205, 206, 207, 208, 209, 210, 211, 212, 213, 214, 215, 216, 217, 218, 219, 220, 221, 222, 223, 224, 225, 226, 227, 228, 229, 230, 231, 232, 233, 234, 235, 236, 237, 238, 239, 240, 241, 242, 243, 244, 245, 246, 247, 248, 249, 250, 251, 252, 253, 254, 255, 256, 257, 258, 259, 260, 261, 262, 263, 264, 265, 266, 267, 268, 269, 270, 271, 272, 273, 274, 275, 276, 277, 278, 279, 280, 281, 282, 283, 284, 285, 286, 287, 288, 289, 290, 291, 292, 293, 294, 295, 296, 297, 298, 299, 300, 301, 302, 303, 304, 305, 306, 307, 308, 309, 310, 311, 312, 313, 314, 315, 316, 317, 318, 319, 320, 321, 322, 323, 324, 325, 326, 327, 328, 329, 330, 331, 332, 333, 334, 335, 336, 337, 338, 339, 340, 341, 342, 343, 344, 345, 346, 347, 348, 349, 350, 351, 352, 353, 354, 355, 356, 357, 358, 359, 360, 361, 362, 363, 364, 365, 366, 367, 368, 369, 370, 371, 372, 373, 374, 375, 376, 377, 378, 379, 380, 381, 382, 383, 384, 385, 386, 387, 388, 389, 390, 391, 392, 393, 394, 395, 396, 397, 398, 399, 400, 401, 402, 403, 404, 405, 406, 407, 408, 409, 410, 411, 412, 413, 414, 415, 416, 417, 418, 419, 420, 421, 422, 423, 424, 425, 426, 427, 428, 429, 430, 431, 432, 433, 434, 435, 436, 437, 438, 439, 440, 441, 442, 443, 444, 445, 446, 447, 448, 449, 450, 451, 452, 453, 454, 455, 456, 457, 458, 459, 460, 461, 462, 463, 464, 465, 466, 467, 468, 469, 470, 471, 472, 473, 474, 475, 476, 477, 478],
      "AcquisitionTime": ["103423.585000", "103425.075000", "103426.565000", "103428.055000", "103429.545000", "103431.035000", "103432.525000", "103434.015000", "103435.505000", "103436.995000", "103438.485000", "103439.975000", "103441.465000", "103442.955000", "103444.445000", "103445.935000", "103447.425000", "103448.915000", "103450.405000", "103451.895000", "103453.385000", "103454.875000", "103456.365000", "103457.855000", "103459.345000", "103500.835000", "103502.325000", "103503.815000", "103505.305000", "103506.795000", "103508.285000", "103509.775000", "103511.265000", "103512.755000", "103514.245000", "103515.735000", "103517.225000", "103518.715000", "103520.205000", "103521.695000", "103523.185000", "103524.675000", "103526.165000", "103527.655000", "103529.145000", "103530.635000", "103532.125000", "103533.615000", "103535.105000", "103536.595000", "103538.085000", "103539.575000", "103541.065000", "103542.555000", "103544.045000", "103545.535000", "103547.025000", "103548.515000", "103550.005000", "103551.495000", "103552.985000", "103554.475000", "103555.965000", "103557.455000", "103558.945000", "103600.435000", "103601.925000", "103603.415000", "103604.905000", "103606.395000", "103607.885000", "103609.375000", "103610.865000", "103612.355000", "103613.845000", "103615.335000", "103616.825000", "103618.315000", "103619.805000", "103621.295000", "103622.785000", "103624.275000", "103625.765000", "103627.255000", "103628.745000", "103630.235000", "103631.725000", "103633.215000", "103634.705000", "103636.195000", "103637.685000", "103639.175000", "103640.665000", "103642.155000", "103643.645000", "103645.135000", "103646.625000", "103648.115000", "103649.605000", "103651.095000", "103652.585000", "103654.075000", "103655.565000", "103657.055000", "103658.545000", "103700.035000", "103701.525000", "103703.015000", "103704.505000", "103705.995000", "103707.485000", "103708.975000", "103710.465000", "103711.955000", "103713.445000", "103714.935000", "103716.425000", "103717.915000", "103719.405000", "103720.895000", "103722.385000", "103723.875000", "103725.365000", "103726.855000", "103728.345000", "103729.835000", "103731.325000", "103732.815000", "103734.305000", "103735.795000", "103737.285000", "103738.775000", "103740.265000", "103741.755000", "103743.245000", "103744.735000", "103746.225000", "103747.715000", "103749.205000", "103750.695000", "103752.185000", "103753.675000", "103755.165000", "103756.655000", "103758.145000", "103759.635000", "103801.125000", "103802.615000", "103804.105000", "103805.595000", "103807.085000", "103808.575000", "103810.065000", "103811.555000", "103813.045000", "103814.535000", "103816.025000", "103817.515000", "103819.005000", "103820.495000", "103821.985000", "103823.475000", "103824.965000", "103826.455000", "103827.945000", "103829.435000", "103830.925000", "103832.415000", "103833.905000", "103835.395000", "103836.885000", "103838.375000", "103839.865000", "103841.355000", "103842.845000", "103844.335000", "103845.825000", "103847.315000", "103848.805000", "103850.295000", "103851.785000", "103853.275000", "103854.765000", "103856.255000", "103857.745000", "103859.235000", "103900.725000", "103902.215000", "103903.705000", "103905.195000", "103906.685000", "103908.175000", "103909.665000", "103911.155000", "103912.645000", "103914.135000", "103915.625000", "103917.115000", "103918.605000", "103920.095000", "103921.585000", "103923.075000", "103924.565000", "103926.055000", "103927.545000", "103929.035000", "103930.525000", "103932.015000", "103933.505000", "103934.995000", "103936.485000", "103937.975000", "103939.465000", "103940.955000", "103942.445000", "103943.935000", "103945.425000", "103946.915000", "103948.405000", "103949.895000", "103951.385000", "103952.875000", "103954.365000", "103955.855000", "103957.345000", "103958.835000", "104000.325000", "104001.815000", "104003.305000", "104004.795000", "104006.285000", "104007.775000", "104009.265000", "104010.755000", "104012.245000", "104013.735000", "104015.225000", "104016.715000", "104018.205000", "104019.695000", "104021.185000", "104022.675000", "104024.165000", "104025.655000", "104027.145000", "104028.635000", "104030.125000", "104031.615000", "104033.105000", "104034.595000", "104036.085000", "104037.575000", "104039.065000", "104040.555000", "104042.045000", "104043.535000", "104045.025000", "104046.515000", "104048.005000", "104049.495000", "104050.985000", "104052.475000", "104053.965000", "104055.455000", "104056.945000", "104058.435000", "104059.925000", "104101.415000", "104102.905000", "104104.395000", "104105.885000", "104107.375000", "104108.865000", "104110.355000", "104111.845000", "104113.335000", "104114.825000", "104116.315000", "104117.805000", "104119.295000", "104120.785000", "104122.275000", "104123.765000", "104125.255000", "104126.745000", "104128.235000", "104129.725000", "104131.215000", "104132.705000", "104134.195000", "104135.685000", "104137.175000", "104138.665000", "104140.155000", "104141.645000", "104143.135000", "104144.625000", "104146.115000", "104147.605000", "104149.095000", "104150.585000", "104152.075000", "104153.565000", "104155.055000", "104156.545000", "104158.035000", "104159.525000", "104201.015000", "104202.505000", "104203.995000", "104205.485000", "104206.975000", "104208.465000", "104209.955000", "104211.445000", "104212.935000", "104214.425000", "104215.915000", "104217.405000", "104218.895000", "104220.385000", "104221.875000", "104223.365000", "104224.855000", "104226.345000", "104227.835000", "104229.325000", "104230.815000", "104232.305000", "104233.795000", "104235.285000", "104236.775000", "104238.265000", "104239.755000", "104241.245000", "104242.735000", "104244.225000", "104245.715000", "104247.205000", "104248.695000", "104250.185000", "104251.675000", "104253.165000", "104254.655000", "104256.145000", "104257.635000", "104259.125000", "104300.615000", "104302.105000", "104303.595000", "104305.085000", "104306.575000", "104308.065000", "104309.555000", "104311.045000", "104312.535000", "104314.025000", "104315.515000", "104317.005000", "104318.495000", "104319.985000", "104321.475000", "104322.965000", "104324.455000", "104325.945000", "104327.435000", "104328.925000", "104330.415000", "104331.905000", "104333.395000", "104334.885000", "104336.375000", "104337.865000", "104339.355000", "104340.845000", "104342.335000", "104343.825000", "104345.315000", "104346.805000", "104348.295000", "104349.785000", "104351.275000", "104352.765000", "104354.255000", "104355.745000", "104357.235000", "104358.725000", "104400.215000", "104401.705000", "104403.195000", "104404.685000", "104406.175000", "104407.665000", "104409.155000", "104410.645000", "104412.135000", "104413.625000", "104415.115000", "104416.605000", "104418.095000", "104419.585000", "104421.075000", "104422.565000", "104424.055000", "104425.545000", "104427.035000", "104428.525000", "104430.015000", "104431.505000", "104432.995000", "104434.485000", "104435.975000", "104437.465000", "104438.955000", "104440.445000", "104441.935000", "104443.425000", "104444.915000", "104446.405000", "104447.895000", "104449.385000", "104450.875000", "104452.365000", "104453.855000", "104455.345000", "104456.835000", "104458.325000", "104459.815000", "104501.305000", "104502.795000", "104504.285000", "104505.775000", "104507.265000", "104508.755000", "104510.245000", "104511.735000", "104513.225000", "104514.715000", "104516.205000", "104517.695000", "104519.185000", "104520.675000", "104522.165000", "104523.655000", "104525.145000", "104526.635000", "104528.125000", "104529.615000", "104531.105000", "104532.595000", "104534.085000", "104535.575000", "104537.065000", "104538.555000", "104540.045000", "104541.535000", "104543.025000", "104544.515000", "104546.005000", "104547.495000", "104548.985000", "104550.475000", "104551.965000", "104553.455000", "104554.945000", "104556.435000", "104557.925000", "104559.415000", "104600.905000", "104602.395000", "104603.885000", "104605.375000", "104606.865000", "104608.355000", "104609.845000", "104611.335000", "104612.825000", "104614.315000"],
      "ContentTime": ["103537.846000", "103537.850000", "103537.853000", "103537.855000", "103537.858000", "103537.861000", "103537.864000", "103537.867000", "103537.870000", "103537.873000", "103537.876000", "103537.879000", "103537.881000", "103537.884000", "103537.887000", "103537.896000", "103537.904000", "103537.911000", "103537.914000", "103537.917000", "103557.814000", "103557.817000", "103557.820000", "103557.823000", "103557.825000", "103557.828000", "103557.831000", "103557.834000", "103557.838000", "103557.841000", "103557.843000", "103557.846000", "103557.849000", "103557.852000", "103557.855000", "103557.858000", "103557.861000", "103557.864000", "103557.867000", "103557.870000", "103617.814000", "103617.817000", "103617.820000", "103617.826000", "103617.829000", "103617.832000", "103617.835000", "103617.838000", "103617.840000", "103617.843000", "103617.846000", "103617.849000", "103617.852000", "103617.855000", "103617.858000", "103617.861000", "103617.864000", "103617.866000", "103617.869000", "103617.872000", "103637.814000", "103637.826000", "103637.828000", "103637.831000", "103637.834000", "103637.837000", "103637.840000", "103637.843000", "103637.846000", "103637.849000", "103637.852000", "103637.854000", "103637.857000", "103637.860000", "103637.863000", "103637.866000", "103637.869000", "103637.872000", "103637.875000", "103637.878000", "103637.880000", "103657.814000", "103657.817000", "103657.820000", "103657.822000", "103657.825000", "103657.828000", "103657.831000", "103657.834000", "103657.837000", "103657.840000", "103657.843000", "103657.846000", "103657.849000", "103657.851000", "103657.854000", "103657.857000", "103657.860000", "103657.863000", "103657.866000", "103657.869000", "103737.814000", "103737.817000", "103737.821000", "103737.823000", "103737.826000", "103737.829000", "103737.832000", "103737.835000", "103737.838000", "103737.841000", "103737.844000", "103737.847000", "103737.849000", "103737.852000", "103737.864000", "103737.866000", "103737.869000", "103737.872000", "103737.875000", "103737.878000", "103737.881000", "103737.884000", "103737.886000", "103737.889000", "103737.892000", "103737.895000", "103737.898000", "103737.901000", "103737.904000", "103817.814000", "103817.817000", "103817.820000", "103817.823000", "103817.826000", "103817.829000", "103817.832000", "103817.834000", "103817.837000", "103817.840000", "103817.843000", "103817.846000", "103817.849000", "103817.852000", "103817.855000", "103817.858000", "103817.860000", "103817.863000", "103817.866000", "103817.869000", "103817.872000", "103817.875000", "103817.878000", "103817.880000", "103817.883000", "103817.886000", "103857.814000", "103857.817000", "103857.820000", "103857.823000", "103857.825000", "103857.828000", "103857.831000", "103857.834000", "103857.837000", "103857.840000", "103857.843000", "103857.846000", "103857.848000", "103857.852000", "103857.854000", "103857.857000", "103857.860000", "103857.863000", "103857.866000", "103857.869000", "103857.872000", "103857.875000", "103857.877000", "103857.880000", "103857.883000", "103857.886000", "103857.889000", "103937.814000", "103937.817000", "103937.820000", "103937.823000", "103937.826000", "103937.829000", "103937.831000", "103937.834000", "103937.837000", "103937.840000", "103937.843000", "103937.846000", "103937.859000", "103937.862000", "103937.865000", "103937.867000", "103937.870000", "103937.873000", "103937.876000", "103937.879000", "103937.882000", "103937.885000", "103937.887000", "103937.890000", "103937.893000", "103937.896000", "103937.899000", "104017.814000", "104017.817000", "104017.820000", "104017.824000", "104017.827000", "104017.830000", "104017.833000", "104017.836000", "104017.839000", "104017.842000", "104017.845000", "104017.848000", "104017.851000", "104017.853000", "104017.856000", "104017.859000", "104017.862000", "104017.865000", "104017.868000", "104017.871000", "104017.874000", "104017.877000", "104017.880000", "104017.883000", "104017.886000", "104017.888000", "104017.891000", "104057.814000", "104057.817000", "104057.820000", "104057.823000", "104057.826000", "104057.829000", "104057.831000", "104057.834000", "104057.837000", "104057.840000", "104057.843000", "104057.846000", "104057.849000", "104057.852000", "104057.855000", "104057.857000", "104057.860000", "104057.863000", "104057.866000", "104057.869000", "104057.872000", "104057.875000", "104057.878000", "104057.881000", "104057.883000", "104057.886000", "104057.889000", "104137.814000", "104137.817000", "104137.820000", "104137.823000", "104137.826000", "104137.829000", "104137.832000", "104137.834000", "104137.837000", "104137.840000", "104137.843000", "104137.846000", "104137.849000", "104137.852000", "104137.855000", "104137.858000", "104137.861000", "104137.864000", "104137.866000", "104137.869000", "104137.872000", "104137.875000", "104137.878000", "104137.881000", "104137.884000", "104137.887000", "104137.890000", "104217.814000", "104217.817000", "104217.820000", "104217.823000", "104217.826000", "104217.829000", "104217.832000", "104217.834000", "104217.837000", "104217.840000", "104217.843000", "104217.846000", "104217.849000", "104217.852000", "104217.855000", "104217.858000", "104217.861000", "104217.864000", "104217.867000", "104217.870000", "104217.872000", "104217.875000", "104217.878000", "104217.881000", "104217.884000", "104217.887000", "104257.814000", "104257.817000", "104257.820000", "104257.823000", "104257.826000", "104257.829000", "104257.832000", "104257.834000", "104257.837000", "104257.840000", "104257.843000", "104257.846000", "104257.849000", "104257.852000", "104257.855000", "104257.857000", "104257.860000", "104257.863000", "104257.866000", "104257.869000", "104257.872000", "104257.875000", "104257.878000", "104257.881000", "104257.884000", "104257.886000", "104257.889000", "104337.814000", "104337.817000", "104337.820000", "104337.823000", "104337.826000", "104337.829000", "104337.832000", "104337.835000", "104337.838000", "104337.841000", "104337.844000", "104337.846000", "104337.849000", "104337.852000", "104337.855000", "104337.858000", "104337.861000", "104337.864000", "104337.867000", "104337.870000", "104337.873000", "104337.876000", "104337.879000", "104337.881000", "104337.884000", "104337.887000", "104337.890000", "104417.814000", "104417.817000", "104417.820000", "104417.823000", "104417.826000", "104417.829000", "104417.831000", "104417.840000", "104417.843000", "104417.846000", "104417.849000", "104417.852000", "104417.855000", "104417.858000", "104417.861000", "104417.864000", "104417.867000", "104417.870000", "104417.872000", "104417.875000", "104417.878000", "104417.881000", "104417.884000", "104417.887000", "104417.890000", "104417.893000", "104417.895000", "104457.813000", "104457.816000", "104457.819000", "104457.822000", "104457.825000", "104457.827000", "104457.830000", "104457.833000", "104457.836000", "104457.839000", "104457.842000", "104457.845000", "104457.848000", "104457.851000", "104457.853000", "104457.857000", "104457.859000", "104457.862000", "104457.865000", "104457.868000", "104457.871000", "104457.874000", "104457.877000", "104457.880000", "104457.883000", "104457.886000", "104457.889000", "104537.814000", "104537.817000", "104537.820000", "104537.823000", "104537.826000", "104537.829000", "104537.832000", "104537.835000", "104537.837000", "104537.840000", "104537.843000", "104537.846000", "104537.849000", "104537.852000", "104537.855000", "104537.858000", "104537.861000", "104537.864000", "104537.867000", "104537.870000", "104537.872000", "104537.875000", "104537.878000", "104537.881000", "104537.884000", "104537.887000", "104537.890000", "104616.373000", "104616.376000", "104616.379000", "104616.382000", "104616.385000", "104616.388000", "104616.391000", "104616.394000", "104616.397000", "104616.400000", "104616.403000", "104616.406000", "104616.409000", "104616.412000", "104616.415000", "104616.418000", "104616.421000", "104616.424000", "104616.429000", "104616.432000", "104616.435000", "104616.438000", "104616.440000", "104616.443000", "104616.446000", "104616.449000"],
