{
  "AcquisitionMatrixPE": 104,
  "AcquisitionNumber": 1,
  "AcquisitionTime": "10:53:51.010000",
  "BandwidthPerPixelPhaseEncode": 17.17,
  "BaseResolution": 104,
  "BodyPartExamined": "BRAIN",
  "CoilString": "HC1-7;NC1_2",
  "ConsistencyInfo": "N4_VE11C_LATEST_20160120",
  "ConversionSoftware": "dcm2niix",
  "ConversionSoftwareVersion": "v1.0.20190902",
  "DerivedVendorReportedEchoSpacing": 0.000560011,
  "DeviceSerialNumber": "167006",
  "DwellTime": 2.1e-06,
  "EchoTime": 0.037,
  "EchoTrainLength": 104,
  "EffectiveEchoSpacing": 0.000560011,
  "FlipAngle": 52,
  "ImageComments": "Unaliased_MB4_PE3_LB",
  "ImageOrientationPatientDICOM": [0.997396, 0.0692462, 0.0201686, -0.0587322, 0.942109, -0.330124],
  "ImageType": [
    "ORIGINAL",
    "PRIMARY",
    "M",
    "MB",
    "ND",
    "MOSAIC"
],
  "ImagingFrequency": 123.259,
  "InPlanePhaseEncodingDirectionDICOM": "COL",
  "InstitutionAddress": "Chemin_Queen-Mary_4565_Montreal_District_CA_H3W_1W5",
  "InstitutionName": "IUGM",
  "InstitutionalDepartmentName": "Department",
  "MRAcquisitionType": "2D",
  "MagneticFieldStrength": 3,
  "Manufacturer": "Siemens",
  "ManufacturersModelName": "Prisma_fit",
  "Modality": "MR",
  "MultibandAccelerationFactor": 4,
  "PartialFourier": 1,
  "PatientPosition": "HFS",
  "PercentPhaseFOV": 100,
  "PhaseEncodingDirection": "j",
  "PhaseEncodingSteps": 104,
  "PhaseResolution": 1,
  "PixelBandwidth": 2290,
  "ProcedureStepDescription": "video_friends",
  "ProtocolName": "func_task-friends-s01e20a",
  "PulseSequenceDetails": "%CustomerSeq%_cmrr_mbep2d_bold",
  "ReceiveCoilActiveElements": "HC1-7;NC1,2",
  "ReceiveCoilName": "HeadNeck_64",
  "ReconMatrixPE": 104,
  "RepetitionTime": 1.49,
  "SAR": 0.0385681,
  "ScanOptions": "FS",
  "ScanningSequence": "EP",
  "SequenceName": "epfid2d1_104",
  "SequenceVariant": "SK_SS",
  "SeriesDescription": "func_task-friends-s02e20a",
  "SeriesNumber": 24,
  "ShimSetting": [630, -7217, -8834, 670, 81, -51, 33, -21],
  "SliceThickness": 2,
  "SliceTiming": [0, 0.785, 0.1, 0.8825, 0.1975, 0.98, 0.295, 1.08, 0.3925, 1.1775, 0.49, 1.275, 0.59, 1.3725, 0.6875, 0, 0.785, 0.1, 0.8825, 0.1975, 0.98, 0.295, 1.08, 0.3925, 1.1775, 0.49, 1.275, 0.59, 1.3725, 0.6875, 0, 0.785, 0.1, 0.8825, 0.1975, 0.98, 0.295, 1.08, 0.3925, 1.1775, 0.49, 1.275, 0.59, 1.3725, 0.6875, 0, 0.785, 0.1, 0.8825, 0.1975, 0.98, 0.295, 1.08, 0.3925, 1.1775, 0.49, 1.275, 0.59, 1.3725, 0.6875],
  "SoftwareVersions": "syngo_MR_E11",
  "SpacingBetweenSlices": 2,
  "StationName": "MRC35049",
  "TaskName": "s01e20a",
  "TotalReadoutTime": 0.0576811,
  "TxRefAmp": 248.981,
  "WipMemBlock": "73d43a73-fe3e-4d14-8e7a-2edcc75f7ed2||Sequence: R016 ve11c/master r/e634e98; Dec 19 2017 11:00:25 by eja",
  "dcmmeta_affine": [
    [-1.9947913885116577, -0.11746437847614288, 0.08372173458337784, 106.39219665527344],
    [-0.13849230110645294, 1.8842170238494873, -0.6561601161956787, -63.27678680419922],
    [0.04033723846077919, 0.6602486968040466, 1.887444019317627, -60.34980392456055],
    [0.0, 0.0, 0.0, 1.0]
],
  "dcmmeta_reorient_transform": [
    [0.0, -1.0, 0.0, 103.0],
    [1.0, 0.0, 0.0, 0.0],
    [0.0, 0.0, 1.0, 0.0],
    [0.0, 0.0, 0.0, 1.0]
],
  "dcmmeta_shape": [104, 104, 60, 449],
  "dcmmeta_slice_dim": 2,
  "dcmmeta_version": 0.6,
  "global": {
    "const": {
      "AcquisitionMatrix": [104, 0, 0, 104],
      "AngioFlag": "N",
      "BitsAllocated": 16,
      "BitsStored": 16,
      "BodyPartExamined": "BRAIN",
      "Columns": 832,
      "EchoNumbers": 1,
      "EchoTime": 37.0,
      "EchoTrainLength": 104,
      "FlipAngle": 52.0,
      "HighBit": 15,
      "ImageOrientationPatient": [0.99739570768664, 0.06924614875639, 0.02016861846201, -0.0587321897583, 0.94210850971286, -0.3301243490154],
      "ImagePositionPatient": [-777.64040805189, -867.06375789903, 233.30358369869],
      "ImageType": [
        "ORIGINAL",
        "PRIMARY",
        "M",
        "MB",
        "ND",
        "MOSAIC"
],
      "ImagedNucleus": "1H",
      "ImagingFrequency": 123.259073,
      "InPlanePhaseEncodingDirection": "COL",
      "MRAcquisitionType": "2D",
      "MagneticFieldStrength": 3.0,
      "Manufacturer": "SIEMENS",
      "ManufacturerModelName": "Prisma_fit",
      "Modality": "MR",
      "NumberOfAverages": 1.0,
      "NumberOfPhaseEncodingSteps": 104,
      "PercentPhaseFieldOfView": 100.0,
      "PercentSampling": 100.0,
      "PerformedProcedureStepStartTime": "093816.263000",
      "PhotometricInterpretation": "MONOCHROME2",
      "PixelBandwidth": 2290.0,
      "PixelRepresentation": 0,
      "PixelSpacing": [2.0, 2.0],
      "ProtocolName": "func_task-friends-s01e20a",
      "RepetitionTime": 1490.0,
      "Rows": 832,
      "SAR": 0.03856813093429,
      "SamplesPerPixel": 1,
      "ScanOptions": "FS",
      "ScanningSequence": "EP",
      "SequenceName": "epfid2d1_104",
      "SequenceVariant": [
        "SK",
        "SS"
],
      "SeriesDescription": "func_task-friends-s02e20a",
      "SeriesNumber": 24,
      "SeriesTime": "105525.773000",
      "SliceLocation": -31.739913818261,
      "SliceThickness": 2.0,
      "SmallestImagePixelValue": 0,
      "SoftwareVersions": "syngo MR E11",
      "SpacingBetweenSlices": 2.0000000395156,
      "SpecificCharacterSet": "ISO_IR 100",
      "StudyID": "1",
      "StudyTime": "093816.120000",
      "TransmitCoilName": "Body",
      "VariableFlipAngleFlag": "N",
      "WindowCenterWidthExplanation": "Algo1",
      "dBdt": 0.0},
    "slices": {}
  },
  "time": {
    "samples": {
      "AcquisitionNumber": [1, 2, 3, 4, 5, 6, 7, 8, 9, 10, 11, 12, 13, 14, 15, 16, 17, 18, 19, 20, 21, 22, 23, 24, 25, 26, 27, 28, 29, 30, 31, 32, 33, 34, 35, 36, 37, 38, 39, 40, 41, 42, 43, 44, 45, 46, 47, 48, 49, 50, 51, 52, 53, 54, 55, 56, 57, 58, 59, 60, 61, 62, 63, 64, 65, 66, 67, 68, 69, 70, 71, 72, 73, 74, 75, 76, 77, 78, 79, 80, 81, 82, 83, 84, 85, 86, 87, 88, 89, 90, 91, 92, 93, 94, 95, 96, 97, 98, 99, 100, 101, 102, 103, 104, 105, 106, 107, 108, 109, 110, 111, 112, 113, 114, 115, 116, 117, 118, 119, 120, 121, 122, 123, 124, 125, 126, 127, 128, 129, 130, 131, 132, 133, 134, 135, 136, 137, 138, 139, 140, 141, 142, 143, 144, 145, 146, 147, 148, 149, 150, 151, 152, 153, 154, 155, 156, 157, 158, 159, 160, 161, 162, 163, 164, 165, 166, 167, 168, 169, 170, 171, 172, 173, 174, 175, 176, 177, 178, 179, 180, 181, 182, 183, 184, 185, 186, 187, 188, 189, 190, 191, 192, 193, 194, 195, 196, 197, 198, 199, 200, 201, 202, 203, 204, 205, 206, 207, 208, 209, 210, 211, 212, 213, 214, 215, 216, 217, 218, 219, 220, 221, 222, 223, 224, 225, 226, 227, 228, 229, 230, 231, 232, 233, 234, 235, 236, 237, 238, 239, 240, 241, 242, 243, 244, 245, 246, 247, 248, 249, 250, 251, 252, 253, 254, 255, 256, 257, 258, 259, 260, 261, 262, 263, 264, 265, 266, 267, 268, 269, 270, 271, 272, 273, 274, 275, 276, 277, 278, 279, 280, 281, 282, 283, 284, 285, 286, 287, 288, 289, 290, 291, 292, 293, 294, 295, 296, 297, 298, 299, 300, 301, 302, 303, 304, 305, 306, 307, 308, 309, 310, 311, 312, 313, 314, 315, 316, 317, 318, 319, 320, 321, 322, 323, 324, 325, 326, 327, 328, 329, 330, 331, 332, 333, 334, 335, 336, 337, 338, 339, 340, 341, 342, 343, 344, 345, 346, 347, 348, 349, 350, 351, 352, 353, 354, 355, 356, 357, 358, 359, 360, 361, 362, 363, 364, 365, 366, 367, 368, 369, 370, 371, 372, 373, 374, 375, 376, 377, 378, 379, 380, 381, 382, 383, 384, 385, 386, 387, 388, 389, 390, 391, 392, 393, 394, 395, 396, 397, 398, 399, 400, 401, 402, 403, 404, 405, 406, 407, 408, 409, 410, 411, 412, 413, 414, 415, 416, 417, 418, 419, 420, 421, 422, 423, 424, 425, 426, 427, 428, 429, 430, 431, 432, 433, 434, 435, 436, 437, 438, 439, 440, 441, 442, 443, 444, 445, 446, 447, 448, 449],
      "AcquisitionTime": ["105351.010000", "105352.500000", "105353.990000", "105355.480000", "105356.970000", "105358.460000", "105359.950000", "105401.440000", "105402.930000", "105404.420000", "105405.910000", "105407.400000", "105408.890000", "105410.380000", "105411.870000", "105413.360000", "105414.850000", "105416.340000", "105417.830000", "105419.320000", "105420.810000", "105422.300000", "105423.790000", "105425.280000", "105426.770000", "105428.260000", "105429.750000", "105431.240000", "105432.730000", "105434.220000", "105435.710000", "105437.200000", "105438.690000", "105440.180000", "105441.670000", "105443.160000", "105444.650000", "105446.140000", "105447.630000", "105449.120000", "105450.610000", "105452.100000", "105453.590000", "105455.080000", "105456.570000", "105458.060000", "105459.550000", "105501.040000", "105502.530000", "105504.020000", "105505.510000", "105507.000000", "105508.490000", "105509.980000", "105511.470000", "105512.960000", "105514.450000", "105515.940000", "105517.430000", "105518.920000", "105520.410000", "105521.900000", "105523.390000", "105524.880000", "105526.370000", "105527.860000", "105529.350000", "105530.840000", "105532.330000", "105533.820000", "105535.310000", "105536.800000", "105538.290000", "105539.780000", "105541.270000", "105542.760000", "105544.250000", "105545.740000", "105547.230000", "105548.720000", "105550.210000", "105551.700000", "105553.190000", "105554.680000", "105556.170000", "105557.660000", "105559.150000", "105600.640000", "105602.130000", "105603.620000", "105605.110000", "105606.600000", "105608.090000", "105609.580000", "105611.070000", "105612.560000", "105614.050000", "105615.540000", "105617.030000", "105618.520000", "105620.010000", "105621.500000", "105622.990000", "105624.480000", "105625.970000", "105627.460000", "105628.950000", "105630.440000", "105631.930000", "105633.420000", "105634.910000", "105636.400000", "105637.890000", "105639.380000", "105640.870000", "105642.360000", "105643.850000", "105645.340000", "105646.830000", "105648.320000", "105649.810000", "105651.300000", "105652.790000", "105654.280000", "105655.770000", "105657.260000", "105658.750000", "105700.240000", "105701.730000", "105703.220000", "105704.710000", "105706.200000", "105707.690000", "105709.180000", "105710.670000", "105712.160000", "105713.650000", "105715.140000", "105716.630000", "105718.120000", "105719.610000", "105721.100000", "105722.590000", "105724.080000", "105725.570000", "105727.060000", "105728.550000", "105730.040000", "105731.530000", "105733.020000", "105734.510000", "105736.000000", "105737.490000", "105738.980000", "105740.470000", "105741.960000", "105743.450000", "105744.940000", "105746.430000", "105747.920000", "105749.410000", "105750.900000", "105752.390000", "105753.880000", "105755.370000", "105756.860000", "105758.350000", "105759.840000", "105801.330000", "105802.820000", "105804.310000", "105805.800000", "105807.290000", "105808.780000", "105810.270000", "105811.760000", "105813.250000", "105814.740000", "105816.230000", "105817.720000", "105819.210000", "105820.700000", "105822.190000", "105823.680000", "105825.170000", "105826.660000", "105828.150000", "105829.640000", "105831.130000", "105832.620000", "105834.110000", "105835.600000", "105837.090000", "105838.580000", "105840.070000", "105841.560000", "105843.050000", "105844.540000", "105846.030000", "105847.520000", "105849.010000", "105850.500000", "105851.990000", "105853.480000", "105854.970000", "105856.460000", "105857.950000", "105859.440000", "105900.930000", "105902.420000", "105903.910000", "105905.400000", "105906.890000", "105908.380000", "105909.870000", "105911.360000", "105912.850000", "105914.340000", "105915.830000", "105917.320000", "105918.810000", "105920.300000", "105921.790000", "105923.280000", "105924.770000", "105926.260000", "105927.750000", "105929.240000", "105930.730000", "105932.220000", "105933.710000", "105935.200000", "105936.690000", "105938.180000", "105939.670000", "105941.160000", "105942.650000", "105944.140000", "105945.630000", "105947.120000", "105948.610000", "105950.100000", "105951.590000", "105953.080000", "105954.570000", "105956.060000", "105957.550000", "105959.040000", "110000.530000", "110002.020000", "110003.510000", "110005.000000", "110006.490000", "110007.980000", "110009.470000", "110010.960000", "110012.450000", "110013.940000", "110015.430000", "110016.920000", "110018.410000", "110019.900000", "110021.390000", "110022.880000", "110024.370000", "110025.860000", "110027.350000", "110028.840000", "110030.330000", "110031.820000", "110033.310000", "110034.800000", "110036.290000", "110037.780000", "110039.270000", "110040.760000", "110042.250000", "110043.740000", "110045.230000", "110046.720000", "110048.210000", "110049.700000", "110051.190000", "110052.680000", "110054.170000", "110055.660000", "110057.150000", "110058.640000", "110100.130000", "110101.620000", "110103.110000", "110104.600000", "110106.090000", "110107.580000", "110109.070000", "110110.560000", "110112.050000", "110113.540000", "110115.030000", "110116.520000", "110118.010000", "110119.500000", "110120.990000", "110122.480000", "110123.970000", "110125.460000", "110126.950000", "110128.440000", "110129.930000", "110131.420000", "110132.910000", "110134.400000", "110135.890000", "110137.380000", "110138.870000", "110140.360000", "110141.850000", "110143.340000", "110144.830000", "110146.320000", "110147.810000", "110149.300000", "110150.790000", "110152.280000", "110153.770000", "110155.260000", "110156.750000", "110158.240000", "110159.730000", "110201.220000", "110202.710000", "110204.200000", "110205.690000", "110207.180000", "110208.670000", "110210.160000", "110211.650000", "110213.140000", "110214.630000", "110216.120000", "110217.610000", "110219.100000", "110220.590000", "110222.080000", "110223.570000", "110225.060000", "110226.550000", "110228.040000", "110229.530000", "110231.020000", "110232.510000", "110234.000000", "110235.490000", "110236.980000", "110238.470000", "110239.960000", "110241.450000", "110242.940000", "110244.430000", "110245.920000", "110247.410000", "110248.900000", "110250.390000", "110251.880000", "110253.370000", "110254.860000", "110256.350000", "110257.840000", "110259.330000", "110300.820000", "110302.310000", "110303.800000", "110305.290000", "110306.780000", "110308.270000", "110309.760000", "110311.250000", "110312.740000", "110314.230000", "110315.720000", "110317.210000", "110318.700000", "110320.190000", "110321.680000", "110323.170000", "110324.660000", "110326.150000", "110327.640000", "110329.130000", "110330.620000", "110332.110000", "110333.600000", "110335.090000", "110336.580000", "110338.070000", "110339.560000", "110341.050000", "110342.540000", "110344.030000", "110345.520000", "110347.010000", "110348.500000", "110349.990000", "110351.480000", "110352.970000", "110354.460000", "110355.950000", "110357.440000", "110358.930000", "110400.420000", "110401.910000", "110403.400000", "110404.890000", "110406.380000", "110407.870000", "110409.360000", "110410.850000", "110412.340000", "110413.830000", "110415.320000", "110416.810000", "110418.300000", "110419.790000", "110421.280000", "110422.770000", "110424.260000", "110425.750000", "110427.240000", "110428.730000", "110430.220000", "110431.710000", "110433.200000", "110434.690000", "110436.180000", "110437.670000", "110439.160000", "110440.650000", "110442.140000", "110443.630000", "110445.120000", "110446.610000", "110448.100000", "110449.590000", "110451.080000", "110452.570000", "110454.060000", "110455.550000", "110457.040000", "110458.530000"],
      "ContentTime": ["105525.775000", "105525.779000", "105525.782000", "105525.784000", "105525.787000", "105525.790000", "105525.793000", "105525.796000", "105525.799000", "105525.802000", "105525.804000", "105525.807000", "105525.810000", "105525.813000", "105525.816000", "105525.819000", "105525.821000", "105525.828000", "105525.831000", "105525.834000", "105525.840000", "105525.843000", "105525.846000", "105525.848000", "105525.851000", "105525.854000", "105525.857000", "105525.860000", "105525.863000", "105525.866000", "105525.869000", "105525.871000", "105525.874000", "105525.877000", "105525.880000", "105525.883000", "105525.886000", "105525.889000", "105525.892000", "105525.895000", "105545.746000", "105545.749000", "105545.752000", "105545.754000", "105545.757000", "105545.760000", "105545.763000", "105545.766000", "105545.769000", "105545.772000", "105545.775000", "105545.777000", "105545.780000", "105545.783000", "105545.786000", "105545.795000", "105545.798000", "105545.800000", "105545.803000", "105545.806000", "105605.747000", "105605.750000", "105605.753000", "105605.755000", "105605.758000", "105605.761000", "105605.764000", "105605.767000", "105605.770000", "105605.773000", "105605.776000", "105605.779000", "105605.782000", "105605.785000", "105605.788000", "105605.790000", "105605.794000", "105605.796000", "105605.799000", "105605.802000", "105625.747000", "105625.750000", "105625.753000", "105625.755000", "105625.758000", "105625.761000", "105625.764000", "105625.767000", "105625.827000", "105625.830000", "105625.832000", "105625.840000", "105625.843000", "105625.846000", "105625.849000", "105625.852000", "105625.855000", "105625.858000", "105625.860000", "105625.863000", "105705.747000", "105705.750000", "105705.753000", "105705.755000", "105705.758000", "105705.761000", "105705.764000", "105705.767000", "105705.770000", "105705.773000", "105705.776000", "105705.779000", "105705.782000", "105705.785000", "105705.787000", "105705.790000", "105705.793000", "105705.796000", "105705.799000", "105705.802000", "105705.805000", "105705.807000", "105705.810000", "105705.813000", "105705.816000", "105705.819000", "105705.822000", "105705.824000", "105705.827000", "105705.830000", "105745.746000", "105745.749000", "105745.752000", "105745.755000", "105745.758000", "105745.760000", "105745.763000", "105745.766000", "105745.769000", "105745.772000", "105745.775000", "105745.778000", "105745.781000", "105745.784000", "105745.786000", "105745.789000", "105745.792000", "105745.795000", "105745.798000", "105745.801000", "105745.804000", "105745.807000", "105745.809000", "105745.812000", "105745.815000", "105745.818000", "105745.821000", "105805.746000", "105805.749000", "105805.752000", "105805.767000", "105805.770000", "105805.773000", "105805.775000", "105805.778000", "105805.781000", "105805.784000", "105805.787000", "105805.790000", "105805.793000", "105845.747000", "105845.750000", "105845.753000", "105845.756000", "105845.759000", "105845.761000", "105845.764000", "105845.767000", "105845.770000", "105845.773000", "105845.776000", "105845.779000", "105845.782000", "105845.785000", "105845.788000", "105845.790000", "105845.793000", "105845.796000", "105845.799000", "105845.802000", "105845.805000", "105845.808000", "105845.811000", "105845.814000", "105845.817000", "105845.819000", "105845.822000", "105925.747000", "105925.750000", "105925.753000", "105925.756000", "105925.759000", "105925.761000", "105925.764000", "105925.767000", "105925.770000", "105925.773000", "105925.776000", "105925.779000", "105925.782000", "105925.785000", "105925.788000", "105925.791000", "105925.794000", "105925.797000", "105925.800000", "105925.803000", "105925.805000", "105925.808000", "105925.811000", "105925.814000", "105925.817000", "105925.819000", "105925.822000", "110005.746000", "110005.749000", "110005.752000", "110005.755000", "110005.758000", "110005.760000", "110005.764000", "110005.766000", "110005.769000", "110005.772000", "110005.775000", "110005.778000", "110005.781000", "110005.784000", "110005.787000", "110005.790000", "110005.792000", "110005.795000", "110005.798000", "110005.801000", "110005.804000", "110005.807000", "110005.810000", "110005.812000", "110005.815000", "110005.818000", "110005.821000", "110045.747000", "110045.750000", "110045.753000", "110045.756000", "110045.758000", "110045.761000", "110045.764000", "110045.767000", "110045.770000", "110045.773000", "110045.776000", "110045.779000", "110045.782000", "110045.784000", "110045.787000", "110045.790000", "110045.793000", "110045.796000", "110045.799000", "110045.802000", "110045.805000", "110045.807000", "110045.810000", "110045.813000", "110045.816000", "110045.819000", "110125.747000", "110125.750000", "110125.753000", "110125.756000", "110125.759000", "110125.762000", "110125.764000", "110125.768000", "110125.770000", "110125.773000", "110125.776000", "110125.779000", "110125.782000", "110125.785000", "110125.788000", "110125.791000", "110125.793000", "110125.796000", "110125.799000", "110125.802000", "110125.805000", "110125.808000", "110125.811000", "110125.814000", "110125.816000", "110125.819000", "110125.822000", "110205.747000", "110205.750000", "110205.753000", "110205.756000", "110205.758000", "110205.761000", "110205.764000", "110205.767000", "110205.770000", "110205.773000", "110205.776000", "110205.779000", "110205.782000", "110205.784000", "110205.787000", "110205.790000", "110205.793000", "110205.796000", "110205.799000", "110205.802000", "110205.805000", "110205.807000", "110205.810000", "110205.813000", "110205.816000", "110205.819000", "110205.822000", "110245.746000", "110245.749000", "110245.752000", "110245.755000", "110245.758000", "110245.761000", "110245.763000", "110245.766000", "110245.769000", "110245.805000", "110245.807000", "110245.810000", "110245.813000", "110245.816000", "110245.819000", "110245.822000", "110245.824000", "110245.839000", "110245.842000", "110245.845000", "110245.848000", "110245.858000", "110245.861000", "110245.864000", "110245.867000", "110245.870000", "110245.872000", "110325.747000", "110325.750000", "110325.753000", "110325.756000", "110325.759000", "110325.762000", "110325.764000", "110325.767000", "110325.809000", "110325.812000", "110325.814000", "110325.817000", "110325.820000", "110325.823000", "110325.826000", "110325.829000", "110325.832000", "110325.835000", "110325.838000", "110325.840000", "110325.843000", "110325.846000", "110325.849000", "110325.852000", "110325.855000", "110325.858000", "110325.861000", "110405.747000", "110405.750000", "110405.753000", "110405.756000", "110405.758000", "110405.761000", "110405.764000", "110405.767000", "110405.770000", "110405.773000", "110405.776000", "110405.779000", "110405.782000", "110405.785000", "110405.787000", "110405.791000", "110405.793000", "110405.796000", "110405.799000", "110405.802000", "110405.805000", "110405.808000", "110405.810000", "110405.813000", "110405.816000", "110405.819000", "110405.822000", "110445.746000", "110445.749000", "110445.752000", "110445.755000", "110445.758000", "110445.761000", "110445.763000", "110445.766000", "110445.897000", "110445.900000", "110445.903000", "110445.906000", "110445.909000", "110445.912000", "110445.915000", "110445.918000", "110445.920000", "110445.923000", "110445.926000", "110445.929000", "110445.932000", "110445.935000", "110445.938000", "110445.941000", "110445.943000", "110445.946000", "110517.180000", "110517.183000", "110517.186000", "110517.189000", "110517.191000", "110517.194000", "110517.197000", "110517.200000", "110517.203000", "110517.206000", "110517.209000"],
