{
  "AcquisitionMatrixPE": 104,
  "AcquisitionNumber": 1,
  "AcquisitionTime": "10:10:0.522500",
  "BandwidthPerPixelPhaseEncode": 17.17,
  "BaseResolution": 104,
  "BodyPartExamined": "BRAIN",
  "CoilString": "HC1-7;NC1_2",
  "ConsistencyInfo": "N4_VE11C_LATEST_20160120",
  "ConversionSoftware": "dcm2niix",
  "ConversionSoftwareVersion": "v1.0.20200427",
  "DerivedVendorReportedEchoSpacing": 0.000560011,
  "DeviceSerialNumber": "167006",
  "DwellTime": 2.1e-06,
  "EchoTime": 0.037,
  "EchoTrainLength": 104,
  "EffectiveEchoSpacing": 0.000560011,
  "FlipAngle": 52,
  "ImageComments": "Unaliased_MB4_PE3_LB",
  "ImageOrientationPatientDICOM": [0.998373, 0.0530103, 0.0210024, -0.0451612, 0.960012, -0.276293],
  "ImageType": [
    "ORIGINAL",
    "PRIMARY",
    "M",
    "MB",
    "ND",
    "MOSAIC"
],
  "ImagingFrequency": 123.259,
  "InPlanePhaseEncodingDirectionDICOM": "COL",
  "InstitutionAddress": "Chemin_Queen-Mary_4565_Montreal_District_CA_H3W_1W5",
  "InstitutionName": "IUGM",
  "InstitutionalDepartmentName": "Department",
  "MRAcquisitionType": "2D",
  "MagneticFieldStrength": 3,
  "Manufacturer": "Siemens",
  "ManufacturersModelName": "Prisma_fit",
  "Modality": "MR",
  "MultibandAccelerationFactor": 4,
  "PartialFourier": 1,
  "PatientPosition": "HFS",
  "PercentPhaseFOV": 100,
  "PercentSampling": 100,
  "PhaseEncodingDirection": "j",
  "PhaseEncodingSteps": 104,
  "PhaseResolution": 1,
  "PixelBandwidth": 2290,
  "ProcedureStepDescription": "video_friends",
  "ProtocolName": "func_task-friends-s02e18b",
  "PulseSequenceDetails": "%CustomerSeq%_cmrr_mbep2d_bold",
  "ReceiveCoilActiveElements": "HC1-7;NC1,2",
  "ReceiveCoilName": "HeadNeck_64",
  "ReconMatrixPE": 104,
  "RepetitionTime": 1.49,
  "SAR": 0.0351764,
  "ScanOptions": "FS",
  "ScanningSequence": "EP",
  "SequenceName": "epfid2d1_104",
  "SequenceVariant": "SK_SS",
  "SeriesDescription": "func_task-friends-s02e18b",
  "SeriesNumber": 11,
  "ShimSetting": [640, -7202, -8820, 688, 115, -4, 44, -17],
  "SliceThickness": 2,
  "SliceTiming": [0, 0.785, 0.1, 0.8825, 0.1975, 0.98, 0.295, 1.08, 0.3925, 1.1775, 0.49, 1.275, 0.59, 1.3725, 0.6875, 0, 0.785, 0.1, 0.8825, 0.1975, 0.98, 0.295, 1.08, 0.3925, 1.1775, 0.49, 1.275, 0.59, 1.3725, 0.6875, 0, 0.785, 0.1, 0.8825, 0.1975, 0.98, 0.295, 1.08, 0.3925, 1.1775, 0.49, 1.275, 0.59, 1.3725, 0.6875, 0, 0.785, 0.1, 0.8825, 0.1975, 0.98, 0.295, 1.08, 0.3925, 1.1775, 0.49, 1.275, 0.59, 1.3725, 0.6875],
  "SoftwareVersions": "syngo_MR_E11",
  "SpacingBetweenSlices": 2,
  "StationName": "MRC35049",
  "TaskName": "s02e18b",
  "TotalReadoutTime": 0.0576811,
  "TxRefAmp": 242.592,
  "WipMemBlock": "3468a101-64aa-48a2-b315-be5ab7ca7f84||Sequence: R016 ve11c/master r/e634e98; Dec 19 2017 11:00:25 by eja",
  "dcmmeta_affine": [
    [-1.9967461824417114, -0.09032236039638519, 0.06961794197559357, 106.08202362060547],
    [-0.10602063685655594, 1.9200236797332764, -0.5497897267341614, -68.54228210449219],
    [0.042004894465208054, 0.5525857210159302, 1.9216879606246948, -54.74174118041992],
    [0.0, 0.0, 0.0, 1.0]
],
  "dcmmeta_reorient_transform": [
    [0.0, -1.0, 0.0, 103.0],
    [1.0, 0.0, 0.0, 0.0],
    [0.0, 0.0, 1.0, 0.0],
    [0.0, 0.0, 0.0, 1.0]
],
  "dcmmeta_shape": [104, 104, 60, 460],
  "dcmmeta_slice_dim": 2,
  "dcmmeta_version": 0.6,
  "global": {
    "const": {
      "AcquisitionMatrix": [104, 0, 0, 104],
      "AngioFlag": "N",
      "BitsAllocated": 16,
      "BitsStored": 16,
      "BodyPartExamined": "BRAIN",
      "Columns": 832,
      "EchoNumbers": 1,
      "EchoTime": 37.0,
      "EchoTrainLength": 104,
      "FlipAngle": 52.0,
      "HighBit": 15,
      "ImageOrientationPatient": [0.99837307833279, 0.05301031664606, 0.02100244722389, -0.0451611790844, 0.96001183690266, -0.2762928535277],
      "ImagePositionPatient": [-790.71708581729, -866.7002802938, 188.02600387853],
      "ImageType": [
        "ORIGINAL",
        "PRIMARY",
        "M",
        "MB",
        "ND",
        "MOSAIC"
],
      "ImagedNucleus": "1H",
      "ImagingFrequency": 123.259068,
      "InPlanePhaseEncodingDirection": "COL",
      "MRAcquisitionType": "2D",
      "MagneticFieldStrength": 3.0,
      "Manufacturer": "SIEMENS",
      "ManufacturerModelName": "Prisma_fit",
      "Modality": "MR",
      "NumberOfAverages": 1.0,
      "NumberOfPhaseEncodingSteps": 104,
      "PercentPhaseFieldOfView": 100.0,
      "PercentSampling": 100.0,
      "PerformedProcedureStepStartTime": "093816.263000",
      "PhotometricInterpretation": "MONOCHROME2",
      "PixelBandwidth": 2290.0,
      "PixelRepresentation": 0,
      "PixelSpacing": [2.0, 2.0],
      "ProtocolName": "func_task-friends-s02e18b",
      "RepetitionTime": 1490.0,
      "Rows": 832,
      "SAR": 0.03517639731164,
      "SamplesPerPixel": 1,
      "ScanOptions": "FS",
      "ScanningSequence": "EP",
      "SequenceName": "epfid2d1_104",
      "SequenceVariant": [
        "SK",
        "SS"
],
      "SeriesDescription": "func_task-friends-s02e18b",
      "SeriesNumber": 11,
      "SeriesTime": "101125.921000",
      "SliceLocation": -30.063743634519,
      "SliceThickness": 2.0,
      "SmallestImagePixelValue": 0,
      "SoftwareVersions": "syngo MR E11",
      "SpacingBetweenSlices": 1.9999999849734,
      "SpecificCharacterSet": "ISO_IR 100",
      "StudyID": "1",
      "StudyTime": "093816.120000",
      "TransmitCoilName": "Body",
      "VariableFlipAngleFlag": "N",
      "WindowCenterWidthExplanation": "Algo1",
      "dBdt": 0.0},
    "slices": {}
  },
  "time": {
    "samples": {
      "AcquisitionNumber": [1, 2, 3, 4, 5, 6, 7, 8, 9, 10, 11, 12, 13, 14, 15, 16, 17, 18, 19, 20, 21, 22, 23, 24, 25, 26, 27, 28, 29, 30, 31, 32, 33, 34, 35, 36, 37, 38, 39, 40, 41, 42, 43, 44, 45, 46, 47, 48, 49, 50, 51, 52, 53, 54, 55, 56, 57, 58, 59, 60, 61, 62, 63, 64, 65, 66, 67, 68, 69, 70, 71, 72, 73, 74, 75, 76, 77, 78, 79, 80, 81, 82, 83, 84, 85, 86, 87, 88, 89, 90, 91, 92, 93, 94, 95, 96, 97, 98, 99, 100, 101, 102, 103, 104, 105, 106, 107, 108, 109, 110, 111, 112, 113, 114, 115, 116, 117, 118, 119, 120, 121, 122, 123, 124, 125, 126, 127, 128, 129, 130, 131, 132, 133, 134, 135, 136, 137, 138, 139, 140, 141, 142, 143, 144, 145, 146, 147, 148, 149, 150, 151, 152, 153, 154, 155, 156, 157, 158, 159, 160, 161, 162, 163, 164, 165, 166, 167, 168, 169, 170, 171, 172, 173, 174, 175, 176, 177, 178, 179, 180, 181, 182, 183, 184, 185, 186, 187, 188, 189, 190, 191, 192, 193, 194, 195, 196, 197, 198, 199, 200, 201, 202, 203, 204, 205, 206, 207, 208, 209, 210, 211, 212, 213, 214, 215, 216, 217, 218, 219, 220, 221, 222, 223, 224, 225, 226, 227, 228, 229, 230, 231, 232, 233, 234, 235, 236, 237, 238, 239, 240, 241, 242, 243, 244, 245, 246, 247, 248, 249, 250, 251, 252, 253, 254, 255, 256, 257, 258, 259, 260, 261, 262, 263, 264, 265, 266, 267, 268, 269, 270, 271, 272, 273, 274, 275, 276, 277, 278, 279, 280, 281, 282, 283, 284, 285, 286, 287, 288, 289, 290, 291, 292, 293, 294, 295, 296, 297, 298, 299, 300, 301, 302, 303, 304, 305, 306, 307, 308, 309, 310, 311, 312, 313, 314, 315, 316, 317, 318, 319, 320, 321, 322, 323, 324, 325, 326, 327, 328, 329, 330, 331, 332, 333, 334, 335, 336, 337, 338, 339, 340, 341, 342, 343, 344, 345, 346, 347, 348, 349, 350, 351, 352, 353, 354, 355, 356, 357, 358, 359, 360, 361, 362, 363, 364, 365, 366, 367, 368, 369, 370, 371, 372, 373, 374, 375, 376, 377, 378, 379, 380, 381, 382, 383, 384, 385, 386, 387, 388, 389, 390, 391, 392, 393, 394, 395, 396, 397, 398, 399, 400, 401, 402, 403, 404, 405, 406, 407, 408, 409, 410, 411, 412, 413, 414, 415, 416, 417, 418, 419, 420, 421, 422, 423, 424, 425, 426, 427, 428, 429, 430, 431, 432, 433, 434, 435, 436, 437, 438, 439, 440, 441, 442, 443, 444, 445, 446, 447, 448, 449, 450, 451, 452, 453, 454, 455, 456, 457, 458, 459, 460],
      "AcquisitionTime": ["101000.522500", "101002.012500", "101003.502500", "101004.992500", "101006.482500", "101007.972500", "101009.462500", "101010.952500", "101012.442500", "101013.932500", "101015.422500", "101016.912500", "101018.402500", "101019.892500", "101021.382500", "101022.872500", "101024.362500", "101025.852500", "101027.342500", "101028.832500", "101030.322500", "101031.812500", "101033.302500", "101034.792500", "101036.282500", "101037.772500", "101039.262500", "101040.752500", "101042.242500", "101043.732500", "101045.222500", "101046.712500", "101048.202500", "101049.692500", "101051.182500", "101052.672500", "101054.162500", "101055.652500", "101057.142500", "101058.632500", "101100.122500", "101101.612500", "101103.102500", "101104.592500", "101106.082500", "101107.572500", "101109.062500", "101110.552500", "101112.042500", "101113.532500", "101115.022500", "101116.512500", "101118.002500", "101119.492500", "101120.982500", "101122.472500", "101123.962500", "101125.452500", "101126.942500", "101128.432500", "101129.922500", "101131.412500", "101132.902500", "101134.392500", "101135.882500", "101137.372500", "101138.862500", "101140.352500", "101141.842500", "101143.332500", "101144.822500", "101146.312500", "101147.802500", "101149.292500", "101150.782500", "101152.272500", "101153.762500", "101155.252500", "101156.742500", "101158.232500", "101159.722500", "101201.212500", "101202.702500", "101204.192500", "101205.682500", "101207.172500", "101208.662500", "101210.152500", "101211.642500", "101213.132500", "101214.622500", "101216.112500", "101217.602500", "101219.092500", "101220.582500", "101222.072500", "101223.562500", "101225.052500", "101226.542500", "101228.032500", "101229.522500", "101231.012500", "101232.502500", "101233.992500", "101235.482500", "101236.972500", "101238.462500", "101239.952500", "101241.442500", "101242.932500", "101244.422500", "101245.912500", "101247.402500", "101248.892500", "101250.382500", "101251.872500", "101253.362500", "101254.852500", "101256.342500", "101257.832500", "101259.322500", "101300.812500", "101302.302500", "101303.792500", "101305.282500", "101306.772500", "101308.262500", "101309.752500", "101311.242500", "101312.732500", "101314.222500", "101315.712500", "101317.202500", "101318.692500", "101320.182500", "101321.672500", "101323.162500", "101324.652500", "101326.142500", "101327.632500", "101329.122500", "101330.612500", "101332.102500", "101333.592500", "101335.082500", "101336.572500", "101338.062500", "101339.552500", "101341.042500", "101342.532500", "101344.022500", "101345.512500", "101347.002500", "101348.492500", "101349.982500", "101351.472500", "101352.962500", "101354.452500", "101355.942500", "101357.432500", "101358.922500", "101400.412500", "101401.902500", "101403.392500", "101404.882500", "101406.372500", "101407.862500", "101409.352500", "101410.842500", "101412.332500", "101413.822500", "101415.312500", "101416.802500", "101418.292500", "101419.782500", "101421.272500", "101422.762500", "101424.252500", "101425.742500", "101427.232500", "101428.722500", "101430.212500", "101431.702500", "101433.192500", "101434.682500", "101436.172500", "101437.662500", "101439.152500", "101440.642500", "101442.132500", "101443.622500", "101445.112500", "101446.602500", "101448.092500", "101449.582500", "101451.072500", "101452.562500", "101454.052500", "101455.542500", "101457.032500", "101458.522500", "101500.012500", "101501.502500", "101502.992500", "101504.482500", "101505.972500", "101507.462500", "101508.952500", "101510.442500", "101511.932500", "101513.422500", "101514.912500", "101516.402500", "101517.892500", "101519.382500", "101520.872500", "101522.362500", "101523.852500", "101525.342500", "101526.832500", "101528.322500", "101529.812500", "101531.302500", "101532.792500", "101534.282500", "101535.772500", "101537.262500", "101538.752500", "101540.242500", "101541.732500", "101543.222500", "101544.712500", "101546.202500", "101547.692500", "101549.182500", "101550.672500", "101552.162500", "101553.652500", "101555.142500", "101556.632500", "101558.122500", "101559.612500", "101601.102500", "101602.592500", "101604.082500", "101605.572500", "101607.062500", "101608.552500", "101610.042500", "101611.532500", "101613.022500", "101614.512500", "101616.002500", "101617.492500", "101618.982500", "101620.472500", "101621.962500", "101623.452500", "101624.942500", "101626.432500", "101627.922500", "101629.412500", "101630.902500", "101632.392500", "101633.882500", "101635.372500", "101636.862500", "101638.352500", "101639.842500", "101641.332500", "101642.822500", "101644.312500", "101645.802500", "101647.292500", "101648.782500", "101650.272500", "101651.762500", "101653.252500", "101654.742500", "101656.232500", "101657.722500", "101659.212500", "101700.702500", "101702.192500", "101703.682500", "101705.172500", "101706.662500", "101708.152500", "101709.642500", "101711.132500", "101712.622500", "101714.112500", "101715.602500", "101717.092500", "101718.582500", "101720.072500", "101721.562500", "101723.052500", "101724.542500", "101726.032500", "101727.522500", "101729.012500", "101730.502500", "101731.992500", "101733.482500", "101734.972500", "101736.462500", "101737.952500", "101739.442500", "101740.932500", "101742.422500", "101743.912500", "101745.402500", "101746.892500", "101748.382500", "101749.872500", "101751.362500", "101752.852500", "101754.342500", "101755.832500", "101757.322500", "101758.812500", "101800.302500", "101801.792500", "101803.282500", "101804.772500", "101806.262500", "101807.752500", "101809.242500", "101810.732500", "101812.222500", "101813.712500", "101815.202500", "101816.692500", "101818.182500", "101819.672500", "101821.162500", "101822.652500", "101824.142500", "101825.632500", "101827.122500", "101828.612500", "101830.102500", "101831.592500", "101833.082500", "101834.572500", "101836.062500", "101837.552500", "101839.042500", "101840.532500", "101842.022500", "101843.512500", "101845.002500", "101846.492500", "101847.982500", "101849.472500", "101850.962500", "101852.452500", "101853.942500", "101855.432500", "101856.922500", "101858.412500", "101859.902500", "101901.392500", "101902.882500", "101904.372500", "101905.862500", "101907.352500", "101908.842500", "101910.332500", "101911.822500", "101913.312500", "101914.802500", "101916.292500", "101917.782500", "101919.272500", "101920.762500", "101922.252500", "101923.742500", "101925.232500", "101926.722500", "101928.212500", "101929.702500", "101931.192500", "101932.682500", "101934.172500", "101935.662500", "101937.152500", "101938.642500", "101940.132500", "101941.622500", "101943.112500", "101944.602500", "101946.092500", "101947.582500", "101949.072500", "101950.562500", "101952.052500", "101953.542500", "101955.032500", "101956.522500", "101958.012500", "101959.502500", "102000.992500", "102002.482500", "102003.972500", "102005.462500", "102006.952500", "102008.442500", "102009.932500", "102011.422500", "102012.912500", "102014.402500", "102015.892500", "102017.382500", "102018.872500", "102020.362500", "102021.852500", "102023.342500", "102024.832500", "102026.322500", "102027.812500", "102029.302500", "102030.792500", "102032.282500", "102033.772500", "102035.262500", "102036.752500", "102038.242500", "102039.732500", "102041.222500", "102042.712500", "102044.202500", "102045.692500", "102047.182500", "102048.672500", "102050.162500", "102051.652500", "102053.142500", "102054.632500", "102056.122500", "102057.612500", "102059.102500", "102100.592500", "102102.082500", "102103.572500", "102105.062500", "102106.552500", "102108.042500", "102109.532500", "102111.022500", "102112.512500", "102114.002500", "102115.492500", "102116.982500", "102118.472500", "102119.962500", "102121.452500", "102122.942500", "102124.432500"],
      "ContentTime": ["101125.924000", "101125.928000", "101125.930000", "101125.933000", "101125.936000", "101125.939000", "101125.942000", "101125.945000", "101125.948000", "101125.951000", "101125.953000", "101125.957000", "101125.960000", "101125.962000", "101125.965000", "101125.968000", "101125.971000", "101125.974000", "101125.977000", "101125.979000", "101125.982000", "101125.985000", "101125.988000", "101125.991000", "101125.994000", "101126.000000", "101126.003000", "101126.006000", "101126.009000", "101126.012000", "101126.017000", "101126.020000", "101126.022000", "101145.885000", "101145.888000", "101145.891000", "101145.894000", "101145.897000", "101145.912000", "101145.915000", "101145.918000", "101145.921000", "101145.924000", "101145.927000", "101145.930000", "101145.932000", "101145.935000", "101145.938000", "101145.941000", "101145.944000", "101145.947000", "101145.950000", "101145.953000", "101205.886000", "101205.889000", "101205.892000", "101205.895000", "101205.898000", "101205.900000", "101205.903000", "101205.906000", "101205.909000", "101205.912000", "101205.915000", "101205.918000", "101205.921000", "101205.923000", "101205.926000", "101205.929000", "101205.932000", "101205.935000", "101205.938000", "101205.941000", "101225.886000", "101225.889000", "101225.892000", "101225.895000", "101225.898000", "101225.900000", "101225.903000", "101225.906000", "101225.909000", "101225.912000", "101225.915000", "101225.918000", "101225.921000", "101225.923000", "101225.926000", "101225.929000", "101225.932000", "101225.935000", "101225.938000", "101225.941000", "101305.886000", "101305.889000", "101305.892000", "101305.894000", "101305.898000", "101305.900000", "101305.903000", "101305.906000", "101305.913000", "101305.916000", "101305.919000", "101305.922000", "101305.925000", "101305.928000", "101305.930000", "101305.933000", "101305.936000", "101305.939000", "101305.942000", "101305.945000", "101305.948000", "101305.951000", "101305.953000", "101305.956000", "101305.959000", "101305.962000", "101305.965000", "101305.968000", "101305.971000", "101305.974000", "101305.977000", "101345.885000", "101345.888000", "101345.891000", "101345.894000", "101345.897000", "101345.900000", "101345.903000", "101345.906000", "101345.909000", "101345.911000", "101345.914000", "101345.917000", "101345.920000", "101345.923000", "101345.926000", "101345.929000", "101345.932000", "101345.935000", "101345.937000", "101345.940000", "101345.943000", "101345.946000", "101345.949000", "101345.952000", "101345.955000", "101345.958000", "101345.961000", "101425.886000", "101425.889000", "101425.892000", "101425.895000", "101425.898000", "101425.901000", "101425.903000", "101425.906000", "101425.909000", "101425.912000", "101425.915000", "101425.918000", "101425.921000", "101425.924000", "101425.927000", "101425.929000", "101425.932000", "101425.935000", "101425.938000", "101425.941000", "101425.944000", "101425.947000", "101425.950000", "101425.953000", "101425.956000", "101425.959000", "101505.886000", "101505.889000", "101505.892000", "101505.895000", "101505.898000", "101505.901000", "101505.904000", "101505.906000", "101505.909000", "101505.912000", "101505.915000", "101505.918000", "101505.921000", "101505.924000", "101505.927000", "101505.929000", "101505.932000", "101505.935000", "101505.938000", "101505.941000", "101505.944000", "101505.947000", "101505.950000", "101505.952000", "101505.955000", "101505.958000", "101505.961000", "101545.886000", "101545.889000", "101545.892000", "101545.895000", "101545.898000", "101545.909000", "101545.912000", "101545.915000", "101545.918000", "101545.921000", "101545.924000", "101545.927000", "101545.929000", "101545.932000", "101545.935000", "101545.938000", "101545.941000", "101545.944000", "101545.947000", "101545.950000", "101545.953000", "101545.955000", "101545.958000", "101545.961000", "101545.964000", "101545.967000", "101545.970000", "101625.885000", "101625.888000", "101625.891000", "101625.905000", "101625.907000", "101625.910000", "101625.913000", "101625.916000", "101625.919000", "101625.922000", "101625.925000", "101625.928000", "101625.930000", "101625.933000", "101625.936000", "101625.939000", "101625.942000", "101625.945000", "101625.948000", "101625.951000", "101625.954000", "101625.956000", "101625.959000", "101625.962000", "101625.965000", "101625.968000", "101625.972000", "101705.886000", "101705.889000", "101705.892000", "101705.895000", "101705.898000", "101705.901000", "101705.904000", "101705.907000", "101705.909000", "101705.912000", "101705.915000", "101705.918000", "101705.921000", "101705.924000", "101705.927000", "101705.930000", "101705.933000", "101705.936000", "101705.938000", "101705.941000", "101705.944000", "101705.947000", "101705.950000", "101705.953000", "101705.956000", "101705.959000", "101705.961000", "101745.886000", "101745.889000", "101745.892000", "101745.895000", "101745.898000", "101745.901000", "101745.903000", "101745.906000", "101745.909000", "101745.912000", "101745.915000", "101745.918000", "101745.921000", "101745.924000", "101745.927000", "101745.930000", "101745.933000", "101745.936000", "101745.938000", "101745.941000", "101745.944000", "101745.947000", "101745.950000", "101745.953000", "101745.956000", "101745.959000", "101745.962000", "101805.886000", "101805.889000", "101805.892000", "101805.895000", "101805.898000", "101805.901000", "101805.904000", "101805.907000", "101805.909000", "101805.912000", "101805.915000", "101805.918000", "101805.921000", "101845.886000", "101845.889000", "101845.892000", "101845.895000", "101845.898000", "101845.901000", "101845.904000", "101845.906000", "101845.909000", "101845.912000", "101845.915000", "101845.918000", "101845.921000", "101845.924000", "101845.927000", "101845.930000", "101845.933000", "101845.935000", "101845.938000", "101845.941000", "101845.944000", "101845.947000", "101845.950000", "101845.953000", "101845.956000", "101845.959000", "101845.961000", "101925.886000", "101925.889000", "101925.892000", "101925.895000", "101925.898000", "101925.901000", "101925.903000", "101925.906000", "101925.909000", "101925.912000", "101925.915000", "101925.918000", "101925.921000", "101925.924000", "101925.927000", "101925.930000", "101925.933000", "101925.935000", "101925.938000", "101925.941000", "101925.944000", "101925.947000", "101925.950000", "101925.953000", "101925.956000", "101925.959000", "101925.962000", "102005.886000", "102005.889000", "102005.892000", "102005.895000", "102005.898000", "102005.918000", "102005.921000", "102005.923000", "102005.926000", "102005.929000", "102005.932000", "102005.935000", "102005.938000", "102005.941000", "102005.944000", "102005.947000", "102005.950000", "102005.953000", "102005.956000", "102005.958000", "102005.961000", "102005.964000", "102005.967000", "102005.970000", "102005.973000", "102005.976000", "102005.979000", "102045.885000", "102045.888000", "102045.891000", "102045.894000", "102045.897000", "102045.900000", "102045.903000", "102045.906000", "102045.908000", "102045.911000", "102045.914000", "102045.917000", "102045.920000", "102045.923000", "102045.926000", "102045.929000", "102045.933000", "102045.937000", "102045.940000", "102045.943000", "102045.946000", "102045.950000", "102045.952000", "102045.955000", "102045.958000", "102045.962000", "102125.886000", "102125.889000", "102125.892000", "102125.895000", "102125.898000", "102125.901000", "102125.903000", "102125.906000", "102125.909000", "102125.912000", "102125.915000", "102125.918000", "102125.921000", "102125.924000", "102125.927000", "102125.930000", "102125.933000", "102125.935000", "102125.938000", "102125.941000", "102125.944000", "102125.947000", "102125.950000", "102125.953000", "102125.956000", "102125.959000", "102125.961000", "102126.221000"],
