{
  "AcquisitionMatrixPE": 104,
  "AcquisitionNumber": 1,
  "AcquisitionTime": "11:47:18.225000",
  "BandwidthPerPixelPhaseEncode": 17.17,
  "BaseResolution": 104,
  "BodyPartExamined": "BRAIN",
  "CoilString": "HC1-7;NC1_2",
  "ConsistencyInfo": "N4_VE11C_LATEST_20160120",
  "ConversionSoftware": "dcm2niix",
  "ConversionSoftwareVersion": "v1.0.20200427",
  "DerivedVendorReportedEchoSpacing": 0.000560011,
  "DeviceSerialNumber": "167006",
  "DwellTime": 2.1e-06,
  "EchoTime": 0.037,
  "EchoTrainLength": 104,
  "EffectiveEchoSpacing": 0.000560011,
  "FlipAngle": 52,
  "ImageComments": "Unaliased_MB4_PE3_LB",
  "ImageOrientationPatientDICOM": [0.997396, 0.0692462, 0.0201686, -0.0587322, 0.942109, -0.330124],
  "ImageType": [
    "ORIGINAL",
    "PRIMARY",
    "M",
    "MB",
    "ND",
    "MOSAIC"
],
  "ImagingFrequency": 123.259,
  "InPlanePhaseEncodingDirectionDICOM": "COL",
  "InstitutionAddress": "Chemin_Queen-Mary_4565_Montreal_District_CA_H3W_1W5",
  "InstitutionName": "IUGM",
  "InstitutionalDepartmentName": "Department",
  "MRAcquisitionType": "2D",
  "MagneticFieldStrength": 3,
  "Manufacturer": "Siemens",
  "ManufacturersModelName": "Prisma_fit",
  "Modality": "MR",
  "MultibandAccelerationFactor": 4,
  "PartialFourier": 1,
  "PatientPosition": "HFS",
  "PercentPhaseFOV": 100,
  "PercentSampling": 100,
  "PhaseEncodingDirection": "j",
  "PhaseEncodingSteps": 104,
  "PhaseResolution": 1,
  "PixelBandwidth": 2290,
  "ProcedureStepDescription": "video_friends",
  "ProtocolName": "func_task-friends-s02e22a",
  "PulseSequenceDetails": "%CustomerSeq%_cmrr_mbep2d_bold",
  "ReceiveCoilActiveElements": "HC1-7;NC1,2",
  "ReceiveCoilName": "HeadNeck_64",
  "ReconMatrixPE": 104,
  "RepetitionTime": 1.49,
  "SAR": 0.0385656,
  "ScanOptions": "FS",
  "ScanningSequence": "EP",
  "SequenceName": "epfid2d1_104",
  "SequenceVariant": "SK_SS",
  "SeriesDescription": "func_task-friends-s02e22a",
  "SeriesNumber": 32,
  "ShimSetting": [630, -7217, -8834, 670, 81, -51, 33, -21],
  "SliceThickness": 2,
  "SliceTiming": [0, 0.785, 0.0975, 0.8825, 0.195, 0.98, 0.295, 1.0775, 0.3925, 1.175, 0.49, 1.275, 0.5875, 1.3725, 0.685, 0, 0.785, 0.0975, 0.8825, 0.195, 0.98, 0.295, 1.0775, 0.3925, 1.175, 0.49, 1.275, 0.5875, 1.3725, 0.685, 0, 0.785, 0.0975, 0.8825, 0.195, 0.98, 0.295, 1.0775, 0.3925, 1.175, 0.49, 1.275, 0.5875, 1.3725, 0.685, 0, 0.785, 0.0975, 0.8825, 0.195, 0.98, 0.295, 1.0775, 0.3925, 1.175, 0.49, 1.275, 0.5875, 1.3725, 0.685],
  "SoftwareVersions": "syngo_MR_E11",
  "SpacingBetweenSlices": 2,
  "StationName": "MRC35049",
  "TaskName": "s02e22a",
  "TotalReadoutTime": 0.0576811,
  "TxRefAmp": 248.981,
  "WipMemBlock": "dfb2d28f-bf1d-4091-9499-d899bd545453||Sequence: R016 ve11c/master r/e634e98; Dec 19 2017 11:00:25 by eja",
  "dcmmeta_affine": [
    [-1.9947913885116577, -0.11746437847614288, 0.08372173458337784, 106.39219665527344],
    [-0.13849230110645294, 1.8842170238494873, -0.6561601161956787, -63.27678680419922],
    [0.04033723846077919, 0.6602486968040466, 1.887444019317627, -60.34980392456055],
    [0.0, 0.0, 0.0, 1.0]
],
  "dcmmeta_reorient_transform": [
    [0.0, -1.0, 0.0, 103.0],
    [1.0, 0.0, 0.0, 0.0],
    [0.0, 0.0, 1.0, 0.0],
    [0.0, 0.0, 0.0, 1.0]
],
  "dcmmeta_shape": [104, 104, 60, 453],
  "dcmmeta_slice_dim": 2,
  "dcmmeta_version": 0.6,
  "global": {
    "const": {
      "AcquisitionMatrix": [104, 0, 0, 104],
      "AngioFlag": "N",
      "BitsAllocated": 16,
      "BitsStored": 16,
      "BodyPartExamined": "BRAIN",
      "Columns": 832,
      "EchoNumbers": 1,
      "EchoTime": 37.0,
      "EchoTrainLength": 104,
      "FlipAngle": 52.0,
      "HighBit": 15,
      "ImageOrientationPatient": [0.99739570768664, 0.06924614875639, 0.02016861846201, -0.0587321897583, 0.94210850971286, -0.3301243490154],
      "ImagePositionPatient": [-777.64040805189, -867.06375789903, 233.30358369869],
      "ImageType": [
        "ORIGINAL",
        "PRIMARY",
        "M",
        "MB",
        "ND",
        "MOSAIC"
],
      "ImagedNucleus": "1H",
      "ImagingFrequency": 123.259081,
      "InPlanePhaseEncodingDirection": "COL",
      "MRAcquisitionType": "2D",
      "MagneticFieldStrength": 3.0,
      "Manufacturer": "SIEMENS",
      "ManufacturerModelName": "Prisma_fit",
      "Modality": "MR",
      "NumberOfAverages": 1.0,
      "NumberOfPhaseEncodingSteps": 104,
      "PercentPhaseFieldOfView": 100.0,
      "PercentSampling": 100.0,
      "PerformedProcedureStepStartTime": "093816.263000",
      "PhotometricInterpretation": "MONOCHROME2",
      "PixelBandwidth": 2290.0,
      "PixelRepresentation": 0,
      "PixelSpacing": [2.0, 2.0],
      "ProtocolName": "func_task-friends-s02e22a",
      "RepetitionTime": 1490.0,
      "Rows": 832,
      "SAR": 0.03856557752103,
      "SamplesPerPixel": 1,
      "ScanOptions": "FS",
      "ScanningSequence": "EP",
      "SequenceName": "epfid2d1_104",
      "SequenceVariant": [
        "SK",
        "SS"
],
      "SeriesDescription": "func_task-friends-s02e22a",
      "SeriesNumber": 32,
      "SeriesTime": "114821.864000",
      "SliceLocation": -31.739913818261,
      "SliceThickness": 2.0,
      "SmallestImagePixelValue": 0,
      "SoftwareVersions": "syngo MR E11",
      "SpacingBetweenSlices": 2.0000000395156,
      "SpecificCharacterSet": "ISO_IR 100",
      "StudyID": "1",
      "StudyTime": "093816.120000",
      "TransmitCoilName": "Body",
      "VariableFlipAngleFlag": "N",
      "WindowCenterWidthExplanation": "Algo1",
      "dBdt": 0.0},
    "slices": {}
  },
  "time": {
    "samples": {
      "AcquisitionNumber": [1, 2, 3, 4, 5, 6, 7, 8, 9, 10, 11, 12, 13, 14, 15, 16, 17, 18, 19, 20, 21, 22, 23, 24, 25, 26, 27, 28, 29, 30, 31, 32, 33, 34, 35, 36, 37, 38, 39, 40, 41, 42, 43, 44, 45, 46, 47, 48, 49, 50, 51, 52, 53, 54, 55, 56, 57, 58, 59, 60, 61, 62, 63, 64, 65, 66, 67, 68, 69, 70, 71, 72, 73, 74, 75, 76, 77, 78, 79, 80, 81, 82, 83, 84, 85, 86, 87, 88, 89, 90, 91, 92, 93, 94, 95, 96, 97, 98, 99, 100, 101, 102, 103, 104, 105, 106, 107, 108, 109, 110, 111, 112, 113, 114, 115, 116, 117, 118, 119, 120, 121, 122, 123, 124, 125, 126, 127, 128, 129, 130, 131, 132, 133, 134, 135, 136, 137, 138, 139, 140, 141, 142, 143, 144, 145, 146, 147, 148, 149, 150, 151, 152, 153, 154, 155, 156, 157, 158, 159, 160, 161, 162, 163, 164, 165, 166, 167, 168, 169, 170, 171, 172, 173, 174, 175, 176, 177, 178, 179, 180, 181, 182, 183, 184, 185, 186, 187, 188, 189, 190, 191, 192, 193, 194, 195, 196, 197, 198, 199, 200, 201, 202, 203, 204, 205, 206, 207, 208, 209, 210, 211, 212, 213, 214, 215, 216, 217, 218, 219, 220, 221, 222, 223, 224, 225, 226, 227, 228, 229, 230, 231, 232, 233, 234, 235, 236, 237, 238, 239, 240, 241, 242, 243, 244, 245, 246, 247, 248, 249, 250, 251, 252, 253, 254, 255, 256, 257, 258, 259, 260, 261, 262, 263, 264, 265, 266, 267, 268, 269, 270, 271, 272, 273, 274, 275, 276, 277, 278, 279, 280, 281, 282, 283, 284, 285, 286, 287, 288, 289, 290, 291, 292, 293, 294, 295, 296, 297, 298, 299, 300, 301, 302, 303, 304, 305, 306, 307, 308, 309, 310, 311, 312, 313, 314, 315, 316, 317, 318, 319, 320, 321, 322, 323, 324, 325, 326, 327, 328, 329, 330, 331, 332, 333, 334, 335, 336, 337, 338, 339, 340, 341, 342, 343, 344, 345, 346, 347, 348, 349, 350, 351, 352, 353, 354, 355, 356, 357, 358, 359, 360, 361, 362, 363, 364, 365, 366, 367, 368, 369, 370, 371, 372, 373, 374, 375, 376, 377, 378, 379, 380, 381, 382, 383, 384, 385, 386, 387, 388, 389, 390, 391, 392, 393, 394, 395, 396, 397, 398, 399, 400, 401, 402, 403, 404, 405, 406, 407, 408, 409, 410, 411, 412, 413, 414, 415, 416, 417, 418, 419, 420, 421, 422, 423, 424, 425, 426, 427, 428, 429, 430, 431, 432, 433, 434, 435, 436, 437, 438, 439, 440, 441, 442, 443, 444, 445, 446, 447, 448, 449, 450, 451, 452, 453],
      "AcquisitionTime": ["114718.225000", "114719.715000", "114721.205000", "114722.695000", "114724.185000", "114725.675000", "114727.165000", "114728.655000", "114730.145000", "114731.635000", "114733.125000", "114734.615000", "114736.105000", "114737.595000", "114739.085000", "114740.575000", "114742.065000", "114743.555000", "114745.045000", "114746.535000", "114748.025000", "114749.515000", "114751.005000", "114752.495000", "114753.985000", "114755.475000", "114756.965000", "114758.455000", "114759.945000", "114801.435000", "114802.925000", "114804.415000", "114805.905000", "114807.395000", "114808.885000", "114810.375000", "114811.865000", "114813.355000", "114814.845000", "114816.335000", "114817.825000", "114819.315000", "114820.805000", "114822.295000", "114823.785000", "114825.275000", "114826.765000", "114828.255000", "114829.745000", "114831.235000", "114832.725000", "114834.215000", "114835.705000", "114837.195000", "114838.685000", "114840.175000", "114841.665000", "114843.155000", "114844.645000", "114846.135000", "114847.625000", "114849.115000", "114850.605000", "114852.095000", "114853.585000", "114855.075000", "114856.565000", "114858.055000", "114859.545000", "114901.035000", "114902.525000", "114904.015000", "114905.505000", "114906.995000", "114908.485000", "114909.975000", "114911.465000", "114912.955000", "114914.445000", "114915.935000", "114917.425000", "114918.915000", "114920.405000", "114921.895000", "114923.385000", "114924.875000", "114926.365000", "114927.855000", "114929.345000", "114930.835000", "114932.325000", "114933.815000", "114935.305000", "114936.795000", "114938.285000", "114939.775000", "114941.265000", "114942.755000", "114944.245000", "114945.735000", "114947.225000", "114948.715000", "114950.205000", "114951.695000", "114953.185000", "114954.675000", "114956.165000", "114957.655000", "114959.145000", "115000.635000", "115002.125000", "115003.615000", "115005.105000", "115006.595000", "115008.085000", "115009.575000", "115011.065000", "115012.555000", "115014.045000", "115015.535000", "115017.025000", "115018.515000", "115020.005000", "115021.495000", "115022.985000", "115024.475000", "115025.965000", "115027.455000", "115028.945000", "115030.435000", "115031.925000", "115033.415000", "115034.905000", "115036.395000", "115037.885000", "115039.375000", "115040.865000", "115042.355000", "115043.845000", "115045.335000", "115046.825000", "115048.315000", "115049.805000", "115051.295000", "115052.785000", "115054.275000", "115055.765000", "115057.255000", "115058.745000", "115100.235000", "115101.725000", "115103.215000", "115104.705000", "115106.195000", "115107.685000", "115109.175000", "115110.665000", "115112.155000", "115113.645000", "115115.135000", "115116.625000", "115118.115000", "115119.605000", "115121.095000", "115122.585000", "115124.075000", "115125.565000", "115127.055000", "115128.545000", "115130.035000", "115131.525000", "115133.015000", "115134.505000", "115135.995000", "115137.485000", "115138.975000", "115140.465000", "115141.955000", "115143.445000", "115144.935000", "115146.425000", "115147.915000", "115149.405000", "115150.895000", "115152.385000", "115153.875000", "115155.365000", "115156.855000", "115158.345000", "115159.835000", "115201.325000", "115202.815000", "115204.305000", "115205.795000", "115207.285000", "115208.775000", "115210.265000", "115211.755000", "115213.245000", "115214.735000", "115216.225000", "115217.715000", "115219.205000", "115220.695000", "115222.185000", "115223.675000", "115225.165000", "115226.655000", "115228.145000", "115229.635000", "115231.125000", "115232.615000", "115234.105000", "115235.595000", "115237.085000", "115238.575000", "115240.065000", "115241.555000", "115243.045000", "115244.535000", "115246.025000", "115247.515000", "115249.005000", "115250.495000", "115251.985000", "115253.475000", "115254.965000", "115256.455000", "115257.945000", "115259.435000", "115300.925000", "115302.415000", "115303.905000", "115305.395000", "115306.885000", "115308.375000", "115309.865000", "115311.355000", "115312.845000", "115314.335000", "115315.825000", "115317.315000", "115318.805000", "115320.295000", "115321.785000", "115323.275000", "115324.765000", "115326.255000", "115327.745000", "115329.235000", "115330.725000", "115332.215000", "115333.705000", "115335.195000", "115336.685000", "115338.175000", "115339.665000", "115341.155000", "115342.645000", "115344.135000", "115345.625000", "115347.115000", "115348.605000", "115350.095000", "115351.585000", "115353.075000", "115354.565000", "115356.055000", "115357.545000", "115359.035000", "115400.525000", "115402.015000", "115403.505000", "115404.995000", "115406.485000", "115407.975000", "115409.465000", "115410.955000", "115412.445000", "115413.935000", "115415.425000", "115416.915000", "115418.405000", "115419.895000", "115421.385000", "115422.875000", "115424.365000", "115425.855000", "115427.345000", "115428.835000", "115430.325000", "115431.815000", "115433.305000", "115434.795000", "115436.285000", "115437.775000", "115439.265000", "115440.755000", "115442.245000", "115443.735000", "115445.225000", "115446.715000", "115448.205000", "115449.695000", "115451.185000", "115452.675000", "115454.165000", "115455.655000", "115457.145000", "115458.635000", "115500.125000", "115501.615000", "115503.105000", "115504.595000", "115506.085000", "115507.575000", "115509.065000", "115510.555000", "115512.045000", "115513.535000", "115515.025000", "115516.515000", "115518.005000", "115519.495000", "115520.985000", "115522.475000", "115523.965000", "115525.455000", "115526.945000", "115528.435000", "115529.925000", "115531.415000", "115532.905000", "115534.395000", "115535.885000", "115537.375000", "115538.865000", "115540.355000", "115541.845000", "115543.335000", "115544.825000", "115546.315000", "115547.805000", "115549.295000", "115550.785000", "115552.275000", "115553.765000", "115555.255000", "115556.745000", "115558.235000", "115559.725000", "115601.215000", "115602.705000", "115604.195000", "115605.685000", "115607.175000", "115608.665000", "115610.155000", "115611.645000", "115613.135000", "115614.625000", "115616.115000", "115617.605000", "115619.095000", "115620.585000", "115622.075000", "115623.565000", "115625.055000", "115626.545000", "115628.035000", "115629.525000", "115631.015000", "115632.505000", "115633.995000", "115635.485000", "115636.975000", "115638.465000", "115639.955000", "115641.445000", "115642.935000", "115644.425000", "115645.915000", "115647.405000", "115648.895000", "115650.385000", "115651.875000", "115653.365000", "115654.855000", "115656.345000", "115657.835000", "115659.325000", "115700.815000", "115702.305000", "115703.795000", "115705.285000", "115706.775000", "115708.265000", "115709.755000", "115711.245000", "115712.735000", "115714.225000", "115715.715000", "115717.205000", "115718.695000", "115720.185000", "115721.675000", "115723.165000", "115724.655000", "115726.145000", "115727.635000", "115729.125000", "115730.615000", "115732.105000", "115733.595000", "115735.085000", "115736.575000", "115738.065000", "115739.555000", "115741.045000", "115742.535000", "115744.025000", "115745.515000", "115747.005000", "115748.495000", "115749.985000", "115751.475000", "115752.965000", "115754.455000", "115755.945000", "115757.435000", "115758.925000", "115800.415000", "115801.905000", "115803.395000", "115804.885000", "115806.375000", "115807.865000", "115809.355000", "115810.845000", "115812.335000", "115813.825000", "115815.315000", "115816.805000", "115818.295000", "115819.785000", "115821.275000", "115822.765000", "115824.255000", "115825.745000", "115827.235000", "115828.725000", "115830.215000", "115831.705000"],
      "ContentTime": ["114821.867000", "114821.870000", "114821.873000", "114821.876000", "114821.882000", "114821.894000", "114821.897000", "114821.900000", "114821.902000", "114841.834000", "114841.837000", "114841.846000", "114841.848000", "114841.851000", "114841.854000", "114841.857000", "114841.860000", "114841.869000", "114841.872000", "114841.875000", "114841.877000", "114841.880000", "114841.883000", "114841.886000", "114841.889000", "114841.892000", "114841.895000", "114841.898000", "114841.900000", "114901.834000", "114901.837000", "114901.840000", "114901.843000", "114901.845000", "114901.848000", "114901.851000", "114901.854000", "114901.857000", "114901.860000", "114901.863000", "114901.865000", "114901.868000", "114901.871000", "114901.874000", "114901.877000", "114901.880000", "114901.882000", "114901.886000", "114901.888000", "114901.891000", "114921.834000", "114921.837000", "114921.840000", "114921.843000", "114921.845000", "114921.848000", "114921.851000", "114921.854000", "114921.857000", "114921.860000", "114921.863000", "114921.866000", "114921.869000", "114921.872000", "114921.875000", "114921.877000", "114921.880000", "114921.883000", "114921.886000", "114921.889000", "114941.835000", "114941.841000", "114941.844000", "114941.847000", "114941.850000", "114941.853000", "114941.855000", "114941.858000", "114941.861000", "114941.864000", "114941.867000", "114941.870000", "114941.873000", "114941.876000", "114941.879000", "114941.881000", "114941.884000", "114941.887000", "114941.894000", "114941.897000", "115021.834000", "115021.838000", "115021.841000", "115021.844000", "115021.847000", "115021.850000", "115021.853000", "115021.856000", "115021.858000", "115021.861000", "115021.864000", "115021.867000", "115021.870000", "115021.873000", "115021.876000", "115021.879000", "115021.882000", "115021.885000", "115021.887000", "115021.890000", "115021.893000", "115021.896000", "115021.899000", "115021.903000", "115021.906000", "115021.908000", "115021.911000", "115021.914000", "115021.917000", "115021.920000", "115021.923000", "115021.926000", "115101.834000", "115101.837000", "115101.840000", "115101.843000", "115101.846000", "115101.848000", "115101.851000", "115101.854000", "115101.857000", "115101.860000", "115101.863000", "115101.866000", "115101.869000", "115101.871000", "115101.874000", "115101.877000", "115101.880000", "115101.883000", "115101.886000", "115101.889000", "115101.892000", "115101.894000", "115101.897000", "115101.900000", "115101.903000", "115101.906000", "115101.909000", "115141.834000", "115141.837000", "115141.848000", "115141.851000", "115141.854000", "115141.857000", "115141.860000", "115141.880000", "115141.883000", "115141.885000", "115141.893000", "115141.895000", "115141.898000", "115141.901000", "115141.904000", "115141.907000", "115141.910000", "115141.913000", "115141.916000", "115141.919000", "115141.922000", "115141.925000", "115141.928000", "115141.931000", "115141.934000", "115141.937000", "115141.940000", "115221.834000", "115221.837000", "115221.840000", "115221.843000", "115221.846000", "115221.849000", "115221.852000", "115221.855000", "115221.857000", "115221.860000", "115221.863000", "115221.866000", "115221.869000", "115221.872000", "115221.875000", "115221.877000", "115221.880000", "115221.883000", "115221.886000", "115221.889000", "115221.892000", "115221.895000", "115221.898000", "115221.901000", "115221.903000", "115221.906000", "115221.909000", "115301.834000", "115301.837000", "115301.840000", "115301.843000", "115301.846000", "115301.848000", "115301.851000", "115301.854000", "115301.858000", "115301.860000", "115301.863000", "115301.866000", "115301.869000", "115301.872000", "115301.884000", "115301.887000", "115301.890000", "115301.893000", "115301.896000", "115301.899000", "115301.902000", "115301.904000", "115301.907000", "115301.910000", "115301.913000", "115301.916000", "115301.919000", "115341.834000", "115341.837000", "115341.840000", "115341.843000", "115341.846000", "115341.849000", "115341.851000", "115341.855000", "115341.857000", "115341.860000", "115341.863000", "115341.866000", "115341.869000", "115341.872000", "115341.875000", "115341.878000", "115341.880000", "115341.883000", "115341.886000", "115341.889000", "115341.892000", "115341.895000", "115341.898000", "115341.901000", "115341.903000", "115341.909000", "115341.912000", "115421.835000", "115421.838000", "115421.841000", "115421.844000", "115421.847000", "115421.850000", "115421.853000", "115421.855000", "115421.859000", "115421.861000", "115421.864000", "115421.867000", "115421.870000", "115421.873000", "115421.876000", "115421.879000", "115421.882000", "115421.885000", "115421.887000", "115421.890000", "115421.893000", "115421.896000", "115421.899000", "115421.902000", "115421.905000", "115421.908000", "115501.834000", "115501.862000", "115501.865000", "115501.868000", "115501.871000", "115501.874000", "115501.876000", "115501.879000", "115501.882000", "115501.885000", "115501.888000", "115501.891000", "115501.894000", "115501.897000", "115501.899000", "115501.902000", "115501.905000", "115501.908000", "115501.911000", "115501.914000", "115501.917000", "115501.920000", "115501.923000", "115501.925000", "115501.929000", "115501.931000", "115501.934000", "115541.834000", "115541.837000", "115541.840000", "115541.843000", "115541.846000", "115541.848000", "115541.851000", "115541.854000", "115541.857000", "115541.860000", "115541.863000", "115541.866000", "115541.869000", "115541.872000", "115541.875000", "115541.878000", "115541.880000", "115541.883000", "115541.886000", "115541.889000", "115541.892000", "115541.895000", "115541.898000", "115541.901000", "115541.904000", "115541.907000", "115541.909000", "115621.834000", "115621.837000", "115621.849000", "115621.852000", "115621.854000", "115621.857000", "115621.860000", "115621.863000", "115621.866000", "115621.869000", "115621.872000", "115621.875000", "115621.878000", "115621.880000", "115621.883000", "115621.886000", "115621.889000", "115621.892000", "115621.895000", "115621.898000", "115621.901000", "115621.904000", "115621.907000", "115621.909000", "115621.912000", "115621.915000", "115621.918000", "115701.834000", "115701.837000", "115701.840000", "115701.843000", "115701.846000", "115701.849000", "115701.851000", "115701.854000", "115701.857000", "115701.860000", "115701.863000", "115701.866000", "115701.869000", "115701.872000", "115701.875000", "115701.877000", "115701.880000", "115701.883000", "115701.886000", "115701.889000", "115701.892000", "115701.895000", "115701.898000", "115701.900000", "115701.903000", "115701.906000", "115701.909000", "115741.834000", "115741.837000", "115741.840000", "115741.843000", "115741.846000", "115741.849000", "115741.851000", "115741.854000", "115741.857000", "115741.860000", "115741.863000", "115741.866000", "115741.869000", "115741.872000", "115741.875000", "115741.877000", "115741.880000", "115741.883000", "115741.886000", "115741.889000", "115741.892000", "115741.895000", "115741.898000", "115741.900000", "115741.904000", "115741.906000", "115741.909000", "115821.834000", "115821.905000", "115821.908000", "115821.911000", "115821.914000", "115821.917000", "115821.920000", "115821.923000", "115821.925000", "115821.928000", "115821.931000", "115821.934000", "115821.937000", "115821.940000", "115821.943000", "115821.946000", "115821.949000", "115821.952000", "115821.954000", "115821.957000", "115821.960000", "115821.963000", "115821.966000", "115821.969000", "115821.972000", "115821.975000", "115833.769000", "115833.772000", "115833.775000", "115833.778000", "115833.781000", "115833.784000", "115833.787000", "115833.790000", "115833.793000"],
