{
  "AcquisitionMatrixPE": 104,
  "AcquisitionNumber": 1,
  "AcquisitionTime": "09:58:9.290000",
  "BandwidthPerPixelPhaseEncode": 17.17,
  "BaseResolution": 104,
  "BodyPartExamined": "BRAIN",
  "CoilString": "HC1-7;NC1_2",
  "ConsistencyInfo": "N4_VE11C_LATEST_20160120",
  "ConversionSoftware": "dcm2niix",
  "ConversionSoftwareVersion": "v1.0.20190902",
  "DerivedVendorReportedEchoSpacing": 0.000560011,
  "DeviceSerialNumber": "167006",
  "DwellTime": 2.1e-06,
  "EchoTime": 0.037,
  "EchoTrainLength": 104,
  "EffectiveEchoSpacing": 0.000560011,
  "FlipAngle": 52,
  "ImageComments": "Unaliased_MB4_PE3_LB",
  "ImageOrientationPatientDICOM": [0.998373, 0.0530103, 0.0210024, -0.0451612, 0.960012, -0.276293],
  "ImageType": [
    "ORIGINAL",
    "PRIMARY",
    "M",
    "MB",
    "ND",
    "MOSAIC"
],
  "ImagingFrequency": 123.259,
  "InPlanePhaseEncodingDirectionDICOM": "COL",
  "InstitutionAddress": "Chemin_Queen-Mary_4565_Montreal_District_CA_H3W_1W5",
  "InstitutionName": "IUGM",
  "InstitutionalDepartmentName": "Department",
  "MRAcquisitionType": "2D",
  "MagneticFieldStrength": 3,
  "Manufacturer": "Siemens",
  "ManufacturersModelName": "Prisma_fit",
  "Modality": "MR",
  "MultibandAccelerationFactor": 4,
  "PartialFourier": 1,
  "PatientPosition": "HFS",
  "PercentPhaseFOV": 100,
  "PhaseEncodingDirection": "j",
  "PhaseEncodingSteps": 104,
  "PhaseResolution": 1,
  "PixelBandwidth": 2290,
  "ProcedureStepDescription": "video_friends",
  "ProtocolName": "func_task-friends-s02e18a",
  "PulseSequenceDetails": "%CustomerSeq%_cmrr_mbep2d_bold",
  "ReceiveCoilActiveElements": "HC1-7;NC1,2",
  "ReceiveCoilName": "HeadNeck_64",
  "ReconMatrixPE": 104,
  "RepetitionTime": 1.49,
  "SAR": 0.0351764,
  "ScanOptions": "FS",
  "ScanningSequence": "EP",
  "SequenceName": "epfid2d1_104",
  "SequenceVariant": "SK_SS",
  "SeriesDescription": "func_task-friends-s02e18a",
  "SeriesNumber": 9,
  "ShimSetting": [640, -7202, -8820, 688, 115, -4, 44, -17],
  "SliceThickness": 2,
  "SliceTiming": [0, 0.785, 0.0975, 0.8825, 0.195, 0.98, 0.295, 1.0775, 0.3925, 1.175, 0.49, 1.275, 0.5875, 1.3725, 0.685, 0, 0.785, 0.0975, 0.8825, 0.195, 0.98, 0.295, 1.0775, 0.3925, 1.175, 0.49, 1.275, 0.5875, 1.3725, 0.685, 0, 0.785, 0.0975, 0.8825, 0.195, 0.98, 0.295, 1.0775, 0.3925, 1.175, 0.49, 1.275, 0.5875, 1.3725, 0.685, 0, 0.785, 0.0975, 0.8825, 0.195, 0.98, 0.295, 1.0775, 0.3925, 1.175, 0.49, 1.275, 0.5875, 1.3725, 0.685],
  "SoftwareVersions": "syngo_MR_E11",
  "SpacingBetweenSlices": 2,
  "StationName": "MRC35049",
  "TaskName": "s02e18a",
  "TotalReadoutTime": 0.0576811,
  "TxRefAmp": 242.592,
  "WipMemBlock": "10ec9b7e-feab-4665-ac24-c2c5aa71b959||Sequence: R016 ve11c/master r/e634e98; Dec 19 2017 11:00:25 by eja",
  "dcmmeta_affine": [
    [-1.9967461824417114, -0.09032236039638519, 0.06961794197559357, 106.08202362060547],
    [-0.10602063685655594, 1.9200236797332764, -0.5497897267341614, -68.54228210449219],
    [0.042004894465208054, 0.5525857210159302, 1.9216879606246948, -54.74174118041992],
    [0.0, 0.0, 0.0, 1.0]
],
  "dcmmeta_reorient_transform": [
    [0.0, -1.0, 0.0, 103.0],
    [1.0, 0.0, 0.0, 0.0],
    [0.0, 0.0, 1.0, 0.0],
    [0.0, 0.0, 0.0, 1.0]
],
  "dcmmeta_shape": [104, 104, 60, 460],
  "dcmmeta_slice_dim": 2,
  "dcmmeta_version": 0.6,
  "global": {
    "const": {
      "AcquisitionMatrix": [104, 0, 0, 104],
      "AngioFlag": "N",
      "BitsAllocated": 16,
      "BitsStored": 16,
      "BodyPartExamined": "BRAIN",
      "Columns": 832,
      "EchoNumbers": 1,
      "EchoTime": 37.0,
      "EchoTrainLength": 104,
      "FlipAngle": 52.0,
      "HighBit": 15,
      "ImageOrientationPatient": [0.99837307833279, 0.05301031664606, 0.02100244722389, -0.0451611790844, 0.96001183690266, -0.2762928535277],
      "ImagePositionPatient": [-790.71708581729, -866.7002802938, 188.02600387853],
      "ImageType": [
        "ORIGINAL",
        "PRIMARY",
        "M",
        "MB",
        "ND",
        "MOSAIC"
],
      "ImagedNucleus": "1H",
      "ImagingFrequency": 123.259061,
      "InPlanePhaseEncodingDirection": "COL",
      "MRAcquisitionType": "2D",
      "MagneticFieldStrength": 3.0,
      "Manufacturer": "SIEMENS",
      "ManufacturerModelName": "Prisma_fit",
      "Modality": "MR",
      "NumberOfAverages": 1.0,
      "NumberOfPhaseEncodingSteps": 104,
      "PercentPhaseFieldOfView": 100.0,
      "PercentSampling": 100.0,
      "PerformedProcedureStepStartTime": "093816.263000",
      "PhotometricInterpretation": "MONOCHROME2",
      "PixelBandwidth": 2290.0,
      "PixelRepresentation": 0,
      "PixelSpacing": [2.0, 2.0],
      "ProtocolName": "func_task-friends-s02e18a",
      "RepetitionTime": 1490.0,
      "Rows": 832,
      "SAR": 0.03517639731164,
      "SamplesPerPixel": 1,
      "ScanOptions": "FS",
      "ScanningSequence": "EP",
      "SequenceName": "epfid2d1_104",
      "SequenceVariant": [
        "SK",
        "SS"
],
      "SeriesDescription": "func_task-friends-s02e18a",
      "SeriesNumber": 9,
      "SeriesTime": "095917.869000",
      "SliceLocation": -30.063743634519,
      "SliceThickness": 2.0,
      "SmallestImagePixelValue": 0,
      "SoftwareVersions": "syngo MR E11",
      "SpacingBetweenSlices": 1.9999999849734,
      "SpecificCharacterSet": "ISO_IR 100",
      "StudyID": "1",
      "StudyTime": "093816.120000",
      "TransmitCoilName": "Body",
      "VariableFlipAngleFlag": "N",
      "WindowCenterWidthExplanation": "Algo1",
      "dBdt": 0.0},
    "slices": {}
  },
  "time": {
    "samples": {
      "AcquisitionNumber": [1, 2, 3, 4, 5, 6, 7, 8, 9, 10, 11, 12, 13, 14, 15, 16, 17, 18, 19, 20, 21, 22, 23, 24, 25, 26, 27, 28, 29, 30, 31, 32, 33, 34, 35, 36, 37, 38, 39, 40, 41, 42, 43, 44, 45, 46, 47, 48, 49, 50, 51, 52, 53, 54, 55, 56, 57, 58, 59, 60, 61, 62, 63, 64, 65, 66, 67, 68, 69, 70, 71, 72, 73, 74, 75, 76, 77, 78, 79, 80, 81, 82, 83, 84, 85, 86, 87, 88, 89, 90, 91, 92, 93, 94, 95, 96, 97, 98, 99, 100, 101, 102, 103, 104, 105, 106, 107, 108, 109, 110, 111, 112, 113, 114, 115, 116, 117, 118, 119, 120, 121, 122, 123, 124, 125, 126, 127, 128, 129, 130, 131, 132, 133, 134, 135, 136, 137, 138, 139, 140, 141, 142, 143, 144, 145, 146, 147, 148, 149, 150, 151, 152, 153, 154, 155, 156, 157, 158, 159, 160, 161, 162, 163, 164, 165, 166, 167, 168, 169, 170, 171, 172, 173, 174, 175, 176, 177, 178, 179, 180, 181, 182, 183, 184, 185, 186, 187, 188, 189, 190, 191, 192, 193, 194, 195, 196, 197, 198, 199, 200, 201, 202, 203, 204, 205, 206, 207, 208, 209, 210, 211, 212, 213, 214, 215, 216, 217, 218, 219, 220, 221, 222, 223, 224, 225, 226, 227, 228, 229, 230, 231, 232, 233, 234, 235, 236, 237, 238, 239, 240, 241, 242, 243, 244, 245, 246, 247, 248, 249, 250, 251, 252, 253, 254, 255, 256, 257, 258, 259, 260, 261, 262, 263, 264, 265, 266, 267, 268, 269, 270, 271, 272, 273, 274, 275, 276, 277, 278, 279, 280, 281, 282, 283, 284, 285, 286, 287, 288, 289, 290, 291, 292, 293, 294, 295, 296, 297, 298, 299, 300, 301, 302, 303, 304, 305, 306, 307, 308, 309, 310, 311, 312, 313, 314, 315, 316, 317, 318, 319, 320, 321, 322, 323, 324, 325, 326, 327, 328, 329, 330, 331, 332, 333, 334, 335, 336, 337, 338, 339, 340, 341, 342, 343, 344, 345, 346, 347, 348, 349, 350, 351, 352, 353, 354, 355, 356, 357, 358, 359, 360, 361, 362, 363, 364, 365, 366, 367, 368, 369, 370, 371, 372, 373, 374, 375, 376, 377, 378, 379, 380, 381, 382, 383, 384, 385, 386, 387, 388, 389, 390, 391, 392, 393, 394, 395, 396, 397, 398, 399, 400, 401, 402, 403, 404, 405, 406, 407, 408, 409, 410, 411, 412, 413, 414, 415, 416, 417, 418, 419, 420, 421, 422, 423, 424, 425, 426, 427, 428, 429, 430, 431, 432, 433, 434, 435, 436, 437, 438, 439, 440, 441, 442, 443, 444, 445, 446, 447, 448, 449, 450, 451, 452, 453, 454, 455, 456, 457, 458, 459, 460],
      "AcquisitionTime": ["095809.290000", "095810.780000", "095812.270000", "095813.760000", "095815.250000", "095816.740000", "095818.230000", "095819.720000", "095821.210000", "095822.700000", "095824.190000", "095825.680000", "095827.170000", "095828.660000", "095830.150000", "095831.640000", "095833.130000", "095834.620000", "095836.110000", "095837.600000", "095839.090000", "095840.580000", "095842.070000", "095843.560000", "095845.050000", "095846.540000", "095848.030000", "095849.520000", "095851.010000", "095852.500000", "095853.990000", "095855.480000", "095856.970000", "095858.460000", "095859.950000", "095901.440000", "095902.930000", "095904.420000", "095905.910000", "095907.400000", "095908.890000", "095910.380000", "095911.870000", "095913.360000", "095914.850000", "095916.340000", "095917.830000", "095919.320000", "095920.810000", "095922.300000", "095923.790000", "095925.280000", "095926.770000", "095928.260000", "095929.750000", "095931.240000", "095932.730000", "095934.220000", "095935.710000", "095937.200000", "095938.690000", "095940.180000", "095941.670000", "095943.160000", "095944.650000", "095946.140000", "095947.630000", "095949.120000", "095950.610000", "095952.100000", "095953.590000", "095955.080000", "095956.570000", "095958.060000", "095959.550000", "100001.040000", "100002.530000", "100004.020000", "100005.510000", "100007.000000", "100008.490000", "100009.980000", "100011.470000", "100012.960000", "100014.450000", "100015.940000", "100017.430000", "100018.920000", "100020.410000", "100021.900000", "100023.390000", "100024.880000", "100026.370000", "100027.860000", "100029.350000", "100030.840000", "100032.330000", "100033.820000", "100035.310000", "100036.800000", "100038.290000", "100039.780000", "100041.270000", "100042.760000", "100044.250000", "100045.740000", "100047.230000", "100048.720000", "100050.210000", "100051.700000", "100053.190000", "100054.680000", "100056.170000", "100057.660000", "100059.150000", "100100.640000", "100102.130000", "100103.620000", "100105.110000", "100106.600000", "100108.090000", "100109.580000", "100111.070000", "100112.560000", "100114.050000", "100115.540000", "100117.030000", "100118.520000", "100120.010000", "100121.500000", "100122.990000", "100124.480000", "100125.970000", "100127.460000", "100128.950000", "100130.440000", "100131.930000", "100133.420000", "100134.910000", "100136.400000", "100137.890000", "100139.380000", "100140.870000", "100142.360000", "100143.850000", "100145.340000", "100146.830000", "100148.320000", "100149.810000", "100151.300000", "100152.790000", "100154.280000", "100155.770000", "100157.260000", "100158.750000", "100200.240000", "100201.730000", "100203.220000", "100204.710000", "100206.200000", "100207.690000", "100209.180000", "100210.670000", "100212.160000", "100213.650000", "100215.140000", "100216.630000", "100218.120000", "100219.610000", "100221.100000", "100222.590000", "100224.080000", "100225.570000", "100227.060000", "100228.550000", "100230.040000", "100231.530000", "100233.020000", "100234.510000", "100236.000000", "100237.490000", "100238.980000", "100240.470000", "100241.960000", "100243.450000", "100244.940000", "100246.430000", "100247.920000", "100249.410000", "100250.900000", "100252.390000", "100253.880000", "100255.370000", "100256.860000", "100258.350000", "100259.840000", "100301.330000", "100302.820000", "100304.310000", "100305.800000", "100307.290000", "100308.780000", "100310.270000", "100311.760000", "100313.250000", "100314.740000", "100316.230000", "100317.720000", "100319.210000", "100320.700000", "100322.190000", "100323.680000", "100325.170000", "100326.660000", "100328.150000", "100329.640000", "100331.130000", "100332.620000", "100334.110000", "100335.600000", "100337.090000", "100338.580000", "100340.070000", "100341.560000", "100343.050000", "100344.540000", "100346.030000", "100347.520000", "100349.010000", "100350.500000", "100351.990000", "100353.480000", "100354.970000", "100356.460000", "100357.950000", "100359.440000", "100400.930000", "100402.420000", "100403.910000", "100405.400000", "100406.890000", "100408.380000", "100409.870000", "100411.360000", "100412.850000", "100414.340000", "100415.830000", "100417.320000", "100418.810000", "100420.300000", "100421.790000", "100423.280000", "100424.770000", "100426.260000", "100427.750000", "100429.240000", "100430.730000", "100432.220000", "100433.710000", "100435.200000", "100436.690000", "100438.180000", "100439.670000", "100441.160000", "100442.650000", "100444.140000", "100445.630000", "100447.120000", "100448.610000", "100450.100000", "100451.590000", "100453.080000", "100454.570000", "100456.060000", "100457.550000", "100459.040000", "100500.530000", "100502.020000", "100503.510000", "100505.000000", "100506.490000", "100507.980000", "100509.470000", "100510.960000", "100512.450000", "100513.940000", "100515.430000", "100516.920000", "100518.410000", "100519.900000", "100521.390000", "100522.880000", "100524.370000", "100525.860000", "100527.350000", "100528.840000", "100530.330000", "100531.820000", "100533.310000", "100534.800000", "100536.290000", "100537.780000", "100539.270000", "100540.760000", "100542.250000", "100543.740000", "100545.230000", "100546.720000", "100548.210000", "100549.700000", "100551.190000", "100552.680000", "100554.170000", "100555.660000", "100557.150000", "100558.640000", "100600.130000", "100601.620000", "100603.110000", "100604.600000", "100606.090000", "100607.580000", "100609.070000", "100610.560000", "100612.050000", "100613.540000", "100615.030000", "100616.520000", "100618.010000", "100619.500000", "100620.990000", "100622.480000", "100623.970000", "100625.460000", "100626.950000", "100628.440000", "100629.930000", "100631.420000", "100632.910000", "100634.400000", "100635.890000", "100637.380000", "100638.870000", "100640.360000", "100641.850000", "100643.340000", "100644.830000", "100646.320000", "100647.810000", "100649.300000", "100650.790000", "100652.280000", "100653.770000", "100655.260000", "100656.750000", "100658.240000", "100659.730000", "100701.220000", "100702.710000", "100704.200000", "100705.690000", "100707.180000", "100708.670000", "100710.160000", "100711.650000", "100713.140000", "100714.630000", "100716.120000", "100717.610000", "100719.100000", "100720.590000", "100722.080000", "100723.570000", "100725.060000", "100726.550000", "100728.040000", "100729.530000", "100731.020000", "100732.510000", "100734.000000", "100735.490000", "100736.980000", "100738.470000", "100739.960000", "100741.450000", "100742.940000", "100744.430000", "100745.920000", "100747.410000", "100748.900000", "100750.390000", "100751.880000", "100753.370000", "100754.860000", "100756.350000", "100757.840000", "100759.330000", "100800.820000", "100802.310000", "100803.800000", "100805.290000", "100806.780000", "100808.270000", "100809.760000", "100811.250000", "100812.740000", "100814.230000", "100815.720000", "100817.210000", "100818.700000", "100820.190000", "100821.680000", "100823.170000", "100824.660000", "100826.150000", "100827.640000", "100829.130000", "100830.620000", "100832.110000", "100833.600000", "100835.090000", "100836.580000", "100838.070000", "100839.560000", "100841.050000", "100842.540000", "100844.030000", "100845.520000", "100847.010000", "100848.500000", "100849.990000", "100851.480000", "100852.970000", "100854.460000", "100855.950000", "100857.440000", "100858.930000", "100900.420000", "100901.910000", "100903.400000", "100904.890000", "100906.380000", "100907.870000", "100909.360000", "100910.850000", "100912.340000", "100913.830000", "100915.320000", "100916.810000", "100918.300000", "100919.790000", "100921.280000", "100922.770000", "100924.260000", "100925.750000", "100927.240000", "100928.730000", "100930.220000", "100931.710000", "100933.200000"],
      "ContentTime": ["095917.872000", "095917.875000", "095917.878000", "095917.881000", "095917.884000", "095957.814000", "095957.817000", "095957.820000", "095957.823000", "095957.826000", "095957.828000", "095957.831000", "095957.834000", "095957.837000", "095957.840000", "095957.843000", "095957.846000", "095957.848000", "095957.851000", "095957.854000", "095957.857000", "095957.860000", "095957.863000", "095957.866000", "095957.869000", "095957.872000", "095957.875000", "095957.878000", "095957.881000", "095957.883000", "095957.886000", "095957.889000", "095957.892000", "095957.895000", "095957.898000", "095957.901000", "095957.904000", "095957.906000", "095957.909000", "095957.912000", "095957.915000", "095957.918000", "095957.921000", "095957.924000", "100017.814000", "100017.817000", "100017.820000", "100017.823000", "100017.826000", "100017.828000", "100017.831000", "100017.834000", "100017.837000", "100017.840000", "100017.843000", "100017.846000", "100017.848000", "100017.851000", "100017.854000", "100017.857000", "100017.860000", "100017.863000", "100017.866000", "100017.869000", "100037.814000", "100037.817000", "100037.820000", "100037.823000", "100037.826000", "100037.829000", "100037.832000", "100037.835000", "100037.837000", "100037.840000", "100037.843000", "100037.846000", "100037.849000", "100037.852000", "100037.855000", "100037.858000", "100037.860000", "100037.863000", "100037.866000", "100037.869000", "100057.813000", "100057.816000", "100057.819000", "100057.822000", "100057.825000", "100057.827000", "100057.830000", "100057.833000", "100057.836000", "100057.839000", "100057.842000", "100057.845000", "100057.848000", "100057.851000", "100057.853000", "100057.856000", "100057.859000", "100057.862000", "100057.865000", "100057.868000", "100117.814000", "100117.817000", "100117.820000", "100117.823000", "100117.826000", "100117.829000", "100117.831000", "100117.834000", "100117.837000", "100117.840000", "100117.843000", "100117.846000", "100117.849000", "100117.852000", "100117.854000", "100117.857000", "100117.860000", "100117.863000", "100117.866000", "100117.869000", "100157.814000", "100157.817000", "100157.820000", "100157.823000", "100157.826000", "100157.828000", "100157.831000", "100157.834000", "100157.837000", "100157.840000", "100157.843000", "100157.846000", "100157.849000", "100157.852000", "100157.855000", "100157.858000", "100157.861000", "100157.864000", "100157.879000", "100157.882000", "100157.885000", "100157.888000", "100157.891000", "100157.894000", "100157.897000", "100157.900000", "100157.903000", "100157.905000", "100237.814000", "100237.817000", "100237.820000", "100237.823000", "100237.825000", "100237.828000", "100237.831000", "100237.834000", "100237.837000", "100237.840000", "100237.843000", "100237.846000", "100237.849000", "100237.852000", "100237.855000", "100237.857000", "100237.866000", "100237.869000", "100237.872000", "100237.875000", "100237.878000", "100237.881000", "100237.884000", "100237.887000", "100237.889000", "100237.892000", "100237.895000", "100317.813000", "100317.816000", "100317.819000", "100317.822000", "100317.825000", "100317.828000", "100317.831000", "100317.833000", "100317.836000", "100317.839000", "100317.842000", "100317.845000", "100317.848000", "100317.851000", "100317.854000", "100317.856000", "100317.859000", "100317.862000", "100317.865000", "100317.868000", "100317.871000", "100317.874000", "100317.877000", "100317.879000", "100317.882000", "100317.885000", "100317.888000", "100357.814000", "100357.817000", "100357.820000", "100357.823000", "100357.825000", "100357.828000", "100357.831000", "100357.834000", "100357.837000", "100357.840000", "100357.843000", "100357.846000", "100357.849000", "100357.851000", "100357.854000", "100357.858000", "100357.860000", "100357.863000", "100357.866000", "100357.869000", "100357.872000", "100357.875000", "100357.878000", "100357.881000", "100357.884000", "100357.886000", "100357.889000", "100437.814000", "100437.817000", "100437.820000", "100437.823000", "100437.825000", "100437.828000", "100437.831000", "100437.834000", "100437.837000", "100437.840000", "100437.843000", "100437.846000", "100437.848000", "100437.851000", "100437.854000", "100437.857000", "100437.860000", "100437.863000", "100437.866000", "100437.869000", "100437.872000", "100437.875000", "100437.883000", "100437.886000", "100437.888000", "100437.891000", "100437.894000", "100517.814000", "100517.817000", "100517.820000", "100517.823000", "100517.826000", "100517.829000", "100517.831000", "100517.834000", "100517.837000", "100517.840000", "100517.843000", "100517.846000", "100517.849000", "100517.852000", "100517.855000", "100517.858000", "100517.861000", "100517.864000", "100517.867000", "100517.869000", "100517.872000", "100517.875000", "100517.878000", "100517.881000", "100517.884000", "100517.887000", "100517.890000", "100557.814000", "100557.817000", "100557.820000", "100557.823000", "100557.835000", "100557.838000", "100557.841000", "100557.844000", "100557.847000", "100557.849000", "100557.852000", "100557.855000", "100557.858000", "100557.861000", "100557.864000", "100557.867000", "100557.870000", "100557.873000", "100557.875000", "100557.878000", "100557.881000", "100557.884000", "100557.887000", "100557.890000", "100557.893000", "100557.896000", "100557.898000", "100637.814000", "100637.817000", "100637.820000", "100637.823000", "100637.826000", "100637.829000", "100637.831000", "100637.834000", "100637.837000", "100637.840000", "100637.843000", "100637.846000", "100637.862000", "100637.865000", "100637.868000", "100637.871000", "100637.874000", "100637.877000", "100637.880000", "100637.883000", "100637.885000", "100637.889000", "100637.891000", "100637.894000", "100637.897000", "100637.900000", "100717.814000", "100717.817000", "100717.820000", "100717.823000", "100717.826000", "100717.829000", "100717.831000", "100717.834000", "100717.837000", "100717.840000", "100717.843000", "100717.846000", "100717.849000", "100717.852000", "100717.855000", "100717.858000", "100717.860000", "100717.863000", "100717.866000", "100717.869000", "100717.872000", "100717.875000", "100717.878000", "100717.880000", "100717.883000", "100717.886000", "100717.889000", "100757.813000", "100757.816000", "100757.819000", "100757.822000", "100757.825000", "100757.827000", "100757.830000", "100757.833000", "100757.836000", "100757.839000", "100757.842000", "100757.845000", "100757.848000", "100757.851000", "100757.854000", "100757.857000", "100757.860000", "100757.863000", "100757.866000", "100757.868000", "100757.871000", "100757.874000", "100757.877000", "100757.880000", "100757.883000", "100757.886000", "100757.889000", "100817.814000", "100817.818000", "100817.821000", "100817.824000", "100817.827000", "100817.830000", "100817.833000", "100817.836000", "100817.838000", "100817.841000", "100817.844000", "100817.847000", "100817.850000", "100857.814000", "100857.817000", "100857.820000", "100857.823000", "100857.826000", "100857.828000", "100857.831000", "100857.834000", "100857.837000", "100857.840000", "100857.843000", "100857.846000", "100857.849000", "100857.852000", "100857.854000", "100857.858000", "100857.861000", "100857.864000", "100857.867000", "100857.869000", "100857.872000", "100857.875000", "100857.878000", "100857.881000", "100857.884000", "100857.887000", "100857.890000", "100935.336000", "100935.340000", "100935.343000", "100935.346000", "100935.349000", "100935.352000", "100935.354000", "100935.357000", "100935.360000", "100935.363000", "100935.366000", "100935.369000", "100935.372000", "100935.375000", "100935.378000", "100935.381000", "100935.384000", "100935.387000", "100935.390000", "100935.393000", "100935.396000", "100935.399000", "100935.401000", "100935.404000", "100935.407000", "100935.410000"],
