{
  "AcquisitionMatrixPE": 104,
  "AcquisitionNumber": 1,
  "AcquisitionTime": "11:34:45.207500",
  "BandwidthPerPixelPhaseEncode": 17.17,
  "BaseResolution": 104,
  "BodyPartExamined": "BRAIN",
  "CoilString": "HC1-7;NC1_2",
  "ConsistencyInfo": "N4_VE11C_LATEST_20160120",
  "ConversionSoftware": "dcm2niix",
  "ConversionSoftwareVersion": "v1.0.20200427",
  "DerivedVendorReportedEchoSpacing": 0.000560011,
  "DeviceSerialNumber": "167006",
  "DwellTime": 2.1e-06,
  "EchoTime": 0.037,
  "EchoTrainLength": 104,
  "EffectiveEchoSpacing": 0.000560011,
  "FlipAngle": 52,
  "ImageComments": "Unaliased_MB4_PE3_LB",
  "ImageOrientationPatientDICOM": [0.997396, 0.0692462, 0.0201686, -0.0587322, 0.942109, -0.330124],
  "ImageType": [
    "ORIGINAL",
    "PRIMARY",
    "M",
    "MB",
    "ND",
    "MOSAIC"
],
  "ImagingFrequency": 123.259,
  "InPlanePhaseEncodingDirectionDICOM": "COL",
  "InstitutionAddress": "Chemin_Queen-Mary_4565_Montreal_District_CA_H3W_1W5",
  "InstitutionName": "IUGM",
  "InstitutionalDepartmentName": "Department",
  "MRAcquisitionType": "2D",
  "MagneticFieldStrength": 3,
  "Manufacturer": "Siemens",
  "ManufacturersModelName": "Prisma_fit",
  "Modality": "MR",
  "MultibandAccelerationFactor": 4,
  "PartialFourier": 1,
  "PatientPosition": "HFS",
  "PercentPhaseFOV": 100,
  "PercentSampling": 100,
  "PhaseEncodingDirection": "j",
  "PhaseEncodingSteps": 104,
  "PhaseResolution": 1,
  "PixelBandwidth": 2290,
  "ProcedureStepDescription": "video_friends",
  "ProtocolName": "func_task-friends-s02e21b",
  "PulseSequenceDetails": "%CustomerSeq%_cmrr_mbep2d_bold",
  "ReceiveCoilActiveElements": "HC1-7;NC1,2",
  "ReceiveCoilName": "HeadNeck_64",
  "ReconMatrixPE": 104,
  "RepetitionTime": 1.49,
  "SAR": 0.0385717,
  "ScanOptions": "FS",
  "ScanningSequence": "EP",
  "SequenceName": "epfid2d1_104",
  "SequenceVariant": "SK_SS",
  "SeriesDescription": "func_task-friends-s02e21b",
  "SeriesNumber": 30,
  "ShimSetting": [630, -7217, -8834, 670, 81, -51, 33, -21],
  "SliceThickness": 2,
  "SliceTiming": [0, 0.785, 0.0975, 0.8825, 0.195, 0.98, 0.295, 1.0775, 0.3925, 1.175, 0.49, 1.275, 0.5875, 1.3725, 0.685, 0, 0.785, 0.0975, 0.8825, 0.195, 0.98, 0.295, 1.0775, 0.3925, 1.175, 0.49, 1.275, 0.5875, 1.3725, 0.685, 0, 0.785, 0.0975, 0.8825, 0.195, 0.98, 0.295, 1.0775, 0.3925, 1.175, 0.49, 1.275, 0.5875, 1.3725, 0.685, 0, 0.785, 0.0975, 0.8825, 0.195, 0.98, 0.295, 1.0775, 0.3925, 1.175, 0.49, 1.275, 0.5875, 1.3725, 0.685],
  "SoftwareVersions": "syngo_MR_E11",
  "SpacingBetweenSlices": 2,
  "StationName": "MRC35049",
  "TaskName": "s02e21b",
  "TotalReadoutTime": 0.0576811,
  "TxRefAmp": 248.981,
  "WipMemBlock": "46bc290d-fac1-453f-a640-390e56874f54||Sequence: R016 ve11c/master r/e634e98; Dec 19 2017 11:00:25 by eja",
  "dcmmeta_affine": [
    [-1.9947913885116577, -0.11746437847614288, 0.08372173458337784, 106.39219665527344],
    [-0.13849230110645294, 1.8842170238494873, -0.6561601161956787, -63.27678680419922],
    [0.04033723846077919, 0.6602486968040466, 1.887444019317627, -60.34980392456055],
    [0.0, 0.0, 0.0, 1.0]
],
  "dcmmeta_reorient_transform": [
    [0.0, -1.0, 0.0, 103.0],
    [1.0, 0.0, 0.0, 0.0],
    [0.0, 0.0, 1.0, 0.0],
    [0.0, 0.0, 0.0, 1.0]
],
  "dcmmeta_shape": [104, 104, 60, 470],
  "dcmmeta_slice_dim": 2,
  "dcmmeta_version": 0.6,
  "global": {
    "const": {
      "AcquisitionMatrix": [104, 0, 0, 104],
      "AngioFlag": "N",
      "BitsAllocated": 16,
      "BitsStored": 16,
      "BodyPartExamined": "BRAIN",
      "Columns": 832,
      "EchoNumbers": 1,
      "EchoTime": 37.0,
      "EchoTrainLength": 104,
      "FlipAngle": 52.0,
      "HighBit": 15,
      "ImageOrientationPatient": [0.99739570768664, 0.06924614875639, 0.02016861846201, -0.0587321897583, 0.94210850971286, -0.3301243490154],
      "ImagePositionPatient": [-777.64040805189, -867.06375789903, 233.30358369869],
      "ImageType": [
        "ORIGINAL",
        "PRIMARY",
        "M",
        "MB",
        "ND",
        "MOSAIC"
],
      "ImagedNucleus": "1H",
      "ImagingFrequency": 123.25908,
      "InPlanePhaseEncodingDirection": "COL",
      "MRAcquisitionType": "2D",
      "MagneticFieldStrength": 3.0,
      "Manufacturer": "SIEMENS",
      "ManufacturerModelName": "Prisma_fit",
      "Modality": "MR",
      "NumberOfAverages": 1.0,
      "NumberOfPhaseEncodingSteps": 104,
      "PercentPhaseFieldOfView": 100.0,
      "PercentSampling": 100.0,
      "PerformedProcedureStepStartTime": "093816.263000",
      "PhotometricInterpretation": "MONOCHROME2",
      "PixelBandwidth": 2290.0,
      "PixelRepresentation": 0,
      "PixelSpacing": [2.0, 2.0],
      "ProtocolName": "func_task-friends-s02e21b",
      "RepetitionTime": 1490.0,
      "Rows": 832,
      "SAR": 0.03857165940176,
      "SamplesPerPixel": 1,
      "ScanOptions": "FS",
      "ScanningSequence": "EP",
      "SequenceName": "epfid2d1_104",
      "SequenceVariant": [
        "SK",
        "SS"
],
      "SeriesDescription": "func_task-friends-s02e21b",
      "SeriesNumber": 30,
      "SeriesTime": "113605.778000",
      "SliceLocation": -31.739913818261,
      "SliceThickness": 2.0,
      "SmallestImagePixelValue": 0,
      "SoftwareVersions": "syngo MR E11",
      "SpacingBetweenSlices": 2.0000000395156,
      "SpecificCharacterSet": "ISO_IR 100",
      "StudyID": "1",
      "StudyTime": "093816.120000",
      "TransmitCoilName": "Body",
      "VariableFlipAngleFlag": "N",
      "WindowCenterWidthExplanation": "Algo1",
      "dBdt": 0.0},
    "slices": {}
  },
  "time": {
    "samples": {
      "AcquisitionNumber": [1, 2, 3, 4, 5, 6, 7, 8, 9, 10, 11, 12, 13, 14, 15, 16, 17, 18, 19, 20, 21, 22, 23, 24, 25, 26, 27, 28, 29, 30, 31, 32, 33, 34, 35, 36, 37, 38, 39, 40, 41, 42, 43, 44, 45, 46, 47, 48, 49, 50, 51, 52, 53, 54, 55, 56, 57, 58, 59, 60, 61, 62, 63, 64, 65, 66, 67, 68, 69, 70, 71, 72, 73, 74, 75, 76, 77, 78, 79, 80, 81, 82, 83, 84, 85, 86, 87, 88, 89, 90, 91, 92, 93, 94, 95, 96, 97, 98, 99, 100, 101, 102, 103, 104, 105, 106, 107, 108, 109, 110, 111, 112, 113, 114, 115, 116, 117, 118, 119, 120, 121, 122, 123, 124, 125, 126, 127, 128, 129, 130, 131, 132, 133, 134, 135, 136, 137, 138, 139, 140, 141, 142, 143, 144, 145, 146, 147, 148, 149, 150, 151, 152, 153, 154, 155, 156, 157, 158, 159, 160, 161, 162, 163, 164, 165, 166, 167, 168, 169, 170, 171, 172, 173, 174, 175, 176, 177, 178, 179, 180, 181, 182, 183, 184, 185, 186, 187, 188, 189, 190, 191, 192, 193, 194, 195, 196, 197, 198, 199, 200, 201, 202, 203, 204, 205, 206, 207, 208, 209, 210, 211, 212, 213, 214, 215, 216, 217, 218, 219, 220, 221, 222, 223, 224, 225, 226, 227, 228, 229, 230, 231, 232, 233, 234, 235, 236, 237, 238, 239, 240, 241, 242, 243, 244, 245, 246, 247, 248, 249, 250, 251, 252, 253, 254, 255, 256, 257, 258, 259, 260, 261, 262, 263, 264, 265, 266, 267, 268, 269, 270, 271, 272, 273, 274, 275, 276, 277, 278, 279, 280, 281, 282, 283, 284, 285, 286, 287, 288, 289, 290, 291, 292, 293, 294, 295, 296, 297, 298, 299, 300, 301, 302, 303, 304, 305, 306, 307, 308, 309, 310, 311, 312, 313, 314, 315, 316, 317, 318, 319, 320, 321, 322, 323, 324, 325, 326, 327, 328, 329, 330, 331, 332, 333, 334, 335, 336, 337, 338, 339, 340, 341, 342, 343, 344, 345, 346, 347, 348, 349, 350, 351, 352, 353, 354, 355, 356, 357, 358, 359, 360, 361, 362, 363, 364, 365, 366, 367, 368, 369, 370, 371, 372, 373, 374, 375, 376, 377, 378, 379, 380, 381, 382, 383, 384, 385, 386, 387, 388, 389, 390, 391, 392, 393, 394, 395, 396, 397, 398, 399, 400, 401, 402, 403, 404, 405, 406, 407, 408, 409, 410, 411, 412, 413, 414, 415, 416, 417, 418, 419, 420, 421, 422, 423, 424, 425, 426, 427, 428, 429, 430, 431, 432, 433, 434, 435, 436, 437, 438, 439, 440, 441, 442, 443, 444, 445, 446, 447, 448, 449, 450, 451, 452, 453, 454, 455, 456, 457, 458, 459, 460, 461, 462, 463, 464, 465, 466, 467, 468, 469, 470],
      "AcquisitionTime": ["113445.207500", "113446.697500", "113448.187500", "113449.677500", "113451.167500", "113452.657500", "113454.147500", "113455.637500", "113457.127500", "113458.617500", "113500.107500", "113501.597500", "113503.087500", "113504.577500", "113506.067500", "113507.557500", "113509.047500", "113510.537500", "113512.027500", "113513.517500", "113515.007500", "113516.497500", "113517.987500", "113519.477500", "113520.967500", "113522.457500", "113523.947500", "113525.437500", "113526.927500", "113528.417500", "113529.907500", "113531.397500", "113532.887500", "113534.377500", "113535.867500", "113537.357500", "113538.847500", "113540.337500", "113541.827500", "113543.317500", "113544.807500", "113546.297500", "113547.787500", "113549.277500", "113550.767500", "113552.257500", "113553.747500", "113555.237500", "113556.727500", "113558.217500", "113559.707500", "113601.197500", "113602.687500", "113604.177500", "113605.667500", "113607.157500", "113608.647500", "113610.137500", "113611.627500", "113613.117500", "113614.607500", "113616.097500", "113617.587500", "113619.077500", "113620.567500", "113622.057500", "113623.547500", "113625.037500", "113626.527500", "113628.017500", "113629.507500", "113630.997500", "113632.487500", "113633.977500", "113635.467500", "113636.957500", "113638.447500", "113639.937500", "113641.427500", "113642.917500", "113644.407500", "113645.897500", "113647.387500", "113648.877500", "113650.367500", "113651.857500", "113653.347500", "113654.837500", "113656.327500", "113657.817500", "113659.307500", "113700.797500", "113702.287500", "113703.777500", "113705.267500", "113706.757500", "113708.247500", "113709.737500", "113711.227500", "113712.717500", "113714.207500", "113715.697500", "113717.187500", "113718.677500", "113720.167500", "113721.657500", "113723.147500", "113724.637500", "113726.127500", "113727.617500", "113729.107500", "113730.597500", "113732.087500", "113733.577500", "113735.067500", "113736.557500", "113738.047500", "113739.537500", "113741.027500", "113742.517500", "113744.007500", "113745.497500", "113746.987500", "113748.477500", "113749.967500", "113751.457500", "113752.947500", "113754.437500", "113755.927500", "113757.417500", "113758.907500", "113800.397500", "113801.887500", "113803.377500", "113804.867500", "113806.357500", "113807.847500", "113809.337500", "113810.827500", "113812.317500", "113813.807500", "113815.297500", "113816.787500", "113818.277500", "113819.767500", "113821.257500", "113822.747500", "113824.237500", "113825.727500", "113827.217500", "113828.707500", "113830.197500", "113831.687500", "113833.177500", "113834.667500", "113836.157500", "113837.647500", "113839.137500", "113840.627500", "113842.117500", "113843.607500", "113845.097500", "113846.587500", "113848.077500", "113849.567500", "113851.057500", "113852.547500", "113854.037500", "113855.527500", "113857.017500", "113858.507500", "113859.997500", "113901.487500", "113902.977500", "113904.467500", "113905.957500", "113907.447500", "113908.937500", "113910.427500", "113911.917500", "113913.407500", "113914.897500", "113916.387500", "113917.877500", "113919.367500", "113920.857500", "113922.347500", "113923.837500", "113925.327500", "113926.817500", "113928.307500", "113929.797500", "113931.287500", "113932.777500", "113934.267500", "113935.757500", "113937.247500", "113938.737500", "113940.227500", "113941.717500", "113943.207500", "113944.697500", "113946.187500", "113947.677500", "113949.167500", "113950.657500", "113952.147500", "113953.637500", "113955.127500", "113956.617500", "113958.107500", "113959.597500", "114001.087500", "114002.577500", "114004.067500", "114005.557500", "114007.047500", "114008.537500", "114010.027500", "114011.517500", "114013.007500", "114014.497500", "114015.987500", "114017.477500", "114018.967500", "114020.457500", "114021.947500", "114023.437500", "114024.927500", "114026.417500", "114027.907500", "114029.397500", "114030.887500", "114032.377500", "114033.867500", "114035.357500", "114036.847500", "114038.337500", "114039.827500", "114041.317500", "114042.807500", "114044.297500", "114045.787500", "114047.277500", "114048.767500", "114050.257500", "114051.747500", "114053.237500", "114054.727500", "114056.217500", "114057.707500", "114059.197500", "114100.687500", "114102.177500", "114103.667500", "114105.157500", "114106.647500", "114108.137500", "114109.627500", "114111.117500", "114112.607500", "114114.097500", "114115.587500", "114117.077500", "114118.567500", "114120.057500", "114121.547500", "114123.037500", "114124.527500", "114126.017500", "114127.507500", "114128.997500", "114130.487500", "114131.977500", "114133.467500", "114134.957500", "114136.447500", "114137.937500", "114139.427500", "114140.917500", "114142.407500", "114143.897500", "114145.387500", "114146.877500", "114148.367500", "114149.857500", "114151.347500", "114152.837500", "114154.327500", "114155.817500", "114157.307500", "114158.797500", "114200.287500", "114201.777500", "114203.267500", "114204.757500", "114206.247500", "114207.737500", "114209.227500", "114210.717500", "114212.207500", "114213.697500", "114215.187500", "114216.677500", "114218.167500", "114219.657500", "114221.147500", "114222.637500", "114224.127500", "114225.617500", "114227.107500", "114228.597500", "114230.087500", "114231.577500", "114233.067500", "114234.557500", "114236.047500", "114237.537500", "114239.027500", "114240.517500", "114242.007500", "114243.497500", "114244.987500", "114246.477500", "114247.967500", "114249.457500", "114250.947500", "114252.437500", "114253.927500", "114255.417500", "114256.907500", "114258.397500", "114259.887500", "114301.377500", "114302.867500", "114304.357500", "114305.847500", "114307.337500", "114308.827500", "114310.317500", "114311.807500", "114313.297500", "114314.787500", "114316.277500", "114317.767500", "114319.257500", "114320.747500", "114322.237500", "114323.727500", "114325.217500", "114326.707500", "114328.197500", "114329.687500", "114331.177500", "114332.667500", "114334.157500", "114335.647500", "114337.137500", "114338.627500", "114340.117500", "114341.607500", "114343.097500", "114344.587500", "114346.077500", "114347.567500", "114349.057500", "114350.547500", "114352.037500", "114353.527500", "114355.017500", "114356.507500", "114357.997500", "114359.487500", "114400.977500", "114402.467500", "114403.957500", "114405.447500", "114406.937500", "114408.427500", "114409.917500", "114411.407500", "114412.897500", "114414.387500", "114415.877500", "114417.367500", "114418.857500", "114420.347500", "114421.837500", "114423.327500", "114424.817500", "114426.307500", "114427.797500", "114429.287500", "114430.777500", "114432.267500", "114433.757500", "114435.247500", "114436.737500", "114438.227500", "114439.717500", "114441.207500", "114442.697500", "114444.187500", "114445.677500", "114447.167500", "114448.657500", "114450.147500", "114451.637500", "114453.127500", "114454.617500", "114456.107500", "114457.597500", "114459.087500", "114500.577500", "114502.067500", "114503.557500", "114505.047500", "114506.537500", "114508.027500", "114509.517500", "114511.007500", "114512.497500", "114513.987500", "114515.477500", "114516.967500", "114518.457500", "114519.947500", "114521.437500", "114522.927500", "114524.417500", "114525.907500", "114527.397500", "114528.887500", "114530.377500", "114531.867500", "114533.357500", "114534.847500", "114536.337500", "114537.827500", "114539.317500", "114540.807500", "114542.297500", "114543.787500", "114545.277500", "114546.767500", "114548.257500", "114549.747500", "114551.237500", "114552.727500", "114554.217500", "114555.707500", "114557.197500", "114558.687500", "114600.177500", "114601.667500", "114603.157500", "114604.647500", "114606.137500", "114607.627500", "114609.117500", "114610.607500", "114612.097500", "114613.587500", "114615.077500", "114616.567500", "114618.057500", "114619.547500", "114621.037500", "114622.527500", "114624.017500"],
      "ContentTime": ["113605.780000", "113605.783000", "113605.786000", "113605.789000", "113605.792000", "113605.795000", "113605.798000", "113605.801000", "113605.804000", "113605.806000", "113605.809000", "113605.812000", "113605.815000", "113605.818000", "113605.821000", "113605.826000", "113605.829000", "113605.832000", "113605.835000", "113605.838000", "113605.841000", "113605.843000", "113605.846000", "113605.849000", "113605.852000", "113605.855000", "113605.858000", "113625.748000", "113625.752000", "113625.756000", "113625.759000", "113625.762000", "113625.765000", "113625.768000", "113625.771000", "113625.774000", "113625.777000", "113625.790000", "113625.793000", "113625.796000", "113625.799000", "113625.802000", "113625.805000", "113625.808000", "113625.810000", "113625.813000", "113625.816000", "113645.747000", "113645.750000", "113645.752000", "113645.755000", "113645.770000", "113645.773000", "113645.775000", "113645.781000", "113645.784000", "113645.787000", "113645.790000", "113645.793000", "113645.796000", "113645.799000", "113645.802000", "113645.804000", "113645.807000", "113645.810000", "113645.813000", "113645.816000", "113645.819000", "113705.746000", "113705.749000", "113705.752000", "113705.755000", "113705.758000", "113705.760000", "113705.763000", "113705.766000", "113705.769000", "113705.772000", "113705.775000", "113705.778000", "113705.781000", "113705.784000", "113705.787000", "113705.790000", "113705.792000", "113705.795000", "113705.798000", "113705.801000", "113745.747000", "113745.750000", "113745.753000", "113745.756000", "113745.759000", "113745.763000", "113745.765000", "113745.773000", "113745.776000", "113745.779000", "113745.782000", "113745.785000", "113745.788000", "113745.791000", "113745.794000", "113745.797000", "113745.800000", "113745.803000", "113745.805000", "113745.808000", "113745.811000", "113745.815000", "113745.818000", "113745.821000", "113745.824000", "113745.827000", "113745.830000", "113745.833000", "113745.836000", "113745.839000", "113745.842000", "113745.845000", "113805.747000", "113805.758000", "113805.761000", "113805.763000", "113805.766000", "113805.770000", "113805.773000", "113805.775000", "113805.778000", "113805.781000", "113805.784000", "113805.787000", "113805.790000", "113845.747000", "113845.750000", "113845.753000", "113845.756000", "113845.759000", "113845.762000", "113845.765000", "113845.768000", "113845.771000", "113845.774000", "113845.777000", "113845.780000", "113845.783000", "113845.786000", "113845.789000", "113845.792000", "113845.795000", "113845.797000", "113845.800000", "113845.803000", "113845.806000", "113845.809000", "113845.812000", "113845.815000", "113845.818000", "113845.821000", "113845.824000", "113925.746000", "113925.749000", "113925.752000", "113925.755000", "113925.758000", "113925.761000", "113925.764000", "113925.766000", "113925.769000", "113925.772000", "113925.775000", "113925.778000", "113925.781000", "113925.784000", "113925.787000", "113925.789000", "113925.792000", "113925.795000", "113925.798000", "113925.801000", "113925.804000", "113925.807000", "113925.809000", "113925.812000", "113925.815000", "113925.818000", "113925.821000", "114005.748000", "114005.751000", "114005.754000", "114005.756000", "114005.759000", "114005.762000", "114005.765000", "114005.768000", "114005.771000", "114005.774000", "114005.777000", "114005.780000", "114005.783000", "114005.786000", "114005.788000", "114005.791000", "114005.794000", "114005.797000", "114005.800000", "114005.803000", "114005.806000", "114005.809000", "114005.812000", "114005.815000", "114005.818000", "114005.820000", "114005.823000", "114045.747000", "114045.750000", "114045.753000", "114045.756000", "114045.759000", "114045.762000", "114045.764000", "114045.767000", "114045.783000", "114045.786000", "114045.789000", "114045.792000", "114045.795000", "114045.798000", "114045.801000", "114045.804000", "114045.807000", "114045.810000", "114045.812000", "114045.815000", "114045.818000", "114045.821000", "114045.824000", "114045.827000", "114045.830000", "114045.833000", "114045.836000", "114125.747000", "114125.750000", "114125.753000", "114125.756000", "114125.759000", "114125.762000", "114125.778000", "114125.789000", "114125.792000", "114125.794000", "114125.797000", "114125.800000", "114125.803000", "114125.806000", "114125.809000", "114125.812000", "114125.815000", "114125.817000", "114125.820000", "114125.823000", "114125.826000", "114125.829000", "114125.832000", "114125.835000", "114125.838000", "114125.841000", "114125.844000", "114205.746000", "114205.749000", "114205.752000", "114205.755000", "114205.758000", "114205.760000", "114205.763000", "114205.767000", "114205.769000", "114205.772000", "114205.775000", "114205.778000", "114205.781000", "114205.785000", "114205.788000", "114205.791000", "114205.794000", "114205.796000", "114205.799000", "114205.802000", "114205.805000", "114205.808000", "114205.811000", "114205.814000", "114205.817000", "114205.820000", "114245.747000", "114245.750000", "114245.753000", "114245.756000", "114245.759000", "114245.762000", "114245.764000", "114245.768000", "114245.771000", "114245.774000", "114245.776000", "114245.779000", "114245.782000", "114245.785000", "114245.788000", "114245.791000", "114245.794000", "114245.797000", "114245.800000", "114245.803000", "114245.805000", "114245.808000", "114245.811000", "114245.814000", "114245.817000", "114245.820000", "114245.822000", "114325.747000", "114325.751000", "114325.755000", "114325.759000", "114325.762000", "114325.766000", "114325.770000", "114325.774000", "114325.776000", "114325.779000", "114325.782000", "114325.785000", "114325.788000", "114325.791000", "114325.794000", "114325.797000", "114325.800000", "114325.804000", "114325.807000", "114325.811000", "114325.814000", "114325.817000", "114325.820000", "114325.824000", "114325.827000", "114325.830000", "114325.834000", "114405.746000", "114405.749000", "114405.752000", "114405.755000", "114405.758000", "114405.761000", "114405.764000", "114405.767000", "114405.769000", "114405.772000", "114405.787000", "114405.789000", "114405.792000", "114405.795000", "114405.798000", "114405.801000", "114405.804000", "114405.807000", "114405.810000", "114405.813000", "114405.815000", "114405.818000", "114405.821000", "114405.824000", "114405.827000", "114405.830000", "114405.833000", "114445.747000", "114445.750000", "114445.753000", "114445.756000", "114445.759000", "114445.762000", "114445.764000", "114445.767000", "114445.789000", "114445.792000", "114445.794000", "114445.797000", "114445.800000", "114445.803000", "114445.806000", "114445.809000", "114445.812000", "114445.815000", "114445.818000", "114445.821000", "114445.824000", "114445.826000", "114445.829000", "114445.832000", "114445.835000", "114445.838000", "114445.841000", "114525.747000", "114525.750000", "114525.753000", "114525.756000", "114525.759000", "114525.762000", "114525.764000", "114525.768000", "114525.797000", "114525.799000", "114525.802000", "114525.805000", "114525.808000", "114525.811000", "114525.814000", "114525.817000", "114525.820000", "114525.823000", "114525.826000", "114525.829000", "114525.831000", "114525.834000", "114525.837000", "114525.840000", "114525.843000", "114525.846000", "114525.849000", "114605.747000", "114605.750000", "114605.762000", "114605.765000", "114605.768000", "114605.771000", "114605.774000", "114605.777000", "114605.780000", "114605.783000", "114605.786000", "114605.789000", "114605.792000", "114605.795000", "114605.798000", "114605.801000", "114605.803000", "114605.806000", "114605.809000", "114605.812000", "114605.815000", "114605.818000", "114605.821000", "114605.824000", "114605.827000", "114605.829000", "114626.659000", "114626.662000", "114626.665000", "114626.669000", "114626.680000", "114626.683000", "114626.686000", "114626.689000", "114626.692000", "114626.695000", "114626.697000", "114626.700000", "114626.703000", "114626.706000", "114626.709000"],
