{
  "AcquisitionMatrixPE": 104,
  "AcquisitionNumber": 1,
  "AcquisitionTime": "10:21:53.230000",
  "BandwidthPerPixelPhaseEncode": 17.17,
  "BaseResolution": 104,
  "BodyPartExamined": "BRAIN",
  "CoilString": "HC1-7;NC1_2",
  "ConsistencyInfo": "N4_VE11C_LATEST_20160120",
  "ConversionSoftware": "dcm2niix",
  "ConversionSoftwareVersion": "v1.0.20200427",
  "DerivedVendorReportedEchoSpacing": 0.000560011,
  "DeviceSerialNumber": "167006",
  "DwellTime": 2.1e-06,
  "EchoTime": 0.037,
  "EchoTrainLength": 104,
  "EffectiveEchoSpacing": 0.000560011,
  "FlipAngle": 52,
  "ImageComments": "Unaliased_MB4_PE3_LB",
  "ImageOrientationPatientDICOM": [0.998373, 0.0530103, 0.0210024, -0.0451612, 0.960012, -0.276293],
  "ImageType": [
    "ORIGINAL",
    "PRIMARY",
    "M",
    "MB",
    "ND",
    "MOSAIC"
],
  "ImagingFrequency": 123.259,
  "InPlanePhaseEncodingDirectionDICOM": "COL",
  "InstitutionAddress": "Chemin_Queen-Mary_4565_Montreal_District_CA_H3W_1W5",
  "InstitutionName": "IUGM",
  "InstitutionalDepartmentName": "Department",
  "MRAcquisitionType": "2D",
  "MagneticFieldStrength": 3,
  "Manufacturer": "Siemens",
  "ManufacturersModelName": "Prisma_fit",
  "Modality": "MR",
  "MultibandAccelerationFactor": 4,
  "PartialFourier": 1,
  "PatientPosition": "HFS",
  "PercentPhaseFOV": 100,
  "PercentSampling": 100,
  "PhaseEncodingDirection": "j",
  "PhaseEncodingSteps": 104,
  "PhaseResolution": 1,
  "PixelBandwidth": 2290,
  "ProcedureStepDescription": "video_friends",
  "ProtocolName": "func_task-friends-s02e19a",
  "PulseSequenceDetails": "%CustomerSeq%_cmrr_mbep2d_bold",
  "ReceiveCoilActiveElements": "HC1-7;NC1,2",
  "ReceiveCoilName": "HeadNeck_64",
  "ReconMatrixPE": 104,
  "RepetitionTime": 1.49,
  "SAR": 0.0351821,
  "ScanOptions": "FS",
  "ScanningSequence": "EP",
  "SequenceName": "epfid2d1_104",
  "SequenceVariant": "SK_SS",
  "SeriesDescription": "func_task-friends-s02e19a",
  "SeriesNumber": 13,
  "ShimSetting": [640, -7202, -8820, 688, 115, -4, 44, -17],
  "SliceThickness": 2,
  "SliceTiming": [0, 0.785, 0.1, 0.8825, 0.1975, 0.98, 0.295, 1.08, 0.3925, 1.1775, 0.49, 1.275, 0.59, 1.3725, 0.6875, 0, 0.785, 0.1, 0.8825, 0.1975, 0.98, 0.295, 1.08, 0.3925, 1.1775, 0.49, 1.275, 0.59, 1.3725, 0.6875, 0, 0.785, 0.1, 0.8825, 0.1975, 0.98, 0.295, 1.08, 0.3925, 1.1775, 0.49, 1.275, 0.59, 1.3725, 0.6875, 0, 0.785, 0.1, 0.8825, 0.1975, 0.98, 0.295, 1.08, 0.3925, 1.1775, 0.49, 1.275, 0.59, 1.3725, 0.6875],
  "SoftwareVersions": "syngo_MR_E11",
  "SpacingBetweenSlices": 2,
  "StationName": "MRC35049",
  "TaskName": "s02e19a",
  "TotalReadoutTime": 0.0576811,
  "TxRefAmp": 242.592,
  "WipMemBlock": "178c0f5d-8d15-4836-bf5c-92726fa145de||Sequence: R016 ve11c/master r/e634e98; Dec 19 2017 11:00:25 by eja",
  "dcmmeta_affine": [
    [-1.9967461824417114, -0.09032236039638519, 0.06961794197559357, 106.08202362060547],
    [-0.10602063685655594, 1.9200236797332764, -0.5497897267341614, -68.54228210449219],
    [0.042004894465208054, 0.5525857210159302, 1.9216879606246948, -54.74174118041992],
    [0.0, 0.0, 0.0, 1.0]
],
  "dcmmeta_reorient_transform": [
    [0.0, -1.0, 0.0, 103.0],
    [1.0, 0.0, 0.0, 0.0],
    [0.0, 0.0, 1.0, 0.0],
    [0.0, 0.0, 0.0, 1.0]
],
  "dcmmeta_shape": [104, 104, 60, 478],
  "dcmmeta_slice_dim": 2,
  "dcmmeta_version": 0.6,
  "global": {
    "const": {
      "AcquisitionMatrix": [104, 0, 0, 104],
      "AngioFlag": "N",
      "BitsAllocated": 16,
      "BitsStored": 16,
      "BodyPartExamined": "BRAIN",
      "Columns": 832,
      "EchoNumbers": 1,
      "EchoTime": 37.0,
      "EchoTrainLength": 104,
      "FlipAngle": 52.0,
      "HighBit": 15,
      "ImageOrientationPatient": [0.99837307833279, 0.05301031664606, 0.02100244722389, -0.0451611790844, 0.96001183690266, -0.2762928535277],
      "ImagePositionPatient": [-790.71708581729, -866.7002802938, 188.02600387853],
      "ImageType": [
        "ORIGINAL",
        "PRIMARY",
        "M",
        "MB",
        "ND",
        "MOSAIC"
],
      "ImagedNucleus": "1H",
      "ImagingFrequency": 123.259071,
      "InPlanePhaseEncodingDirection": "COL",
      "MRAcquisitionType": "2D",
      "MagneticFieldStrength": 3.0,
      "Manufacturer": "SIEMENS",
      "ManufacturerModelName": "Prisma_fit",
      "Modality": "MR",
      "NumberOfAverages": 1.0,
      "NumberOfPhaseEncodingSteps": 104,
      "PercentPhaseFieldOfView": 100.0,
      "PercentSampling": 100.0,
      "PerformedProcedureStepStartTime": "093816.263000",
      "PhotometricInterpretation": "MONOCHROME2",
      "PixelBandwidth": 2290.0,
      "PixelRepresentation": 0,
      "PixelSpacing": [2.0, 2.0],
      "ProtocolName": "func_task-friends-s02e19a",
      "RepetitionTime": 1490.0,
      "Rows": 832,
      "SAR": 0.03518208816797,
      "SamplesPerPixel": 1,
      "ScanOptions": "FS",
      "ScanningSequence": "EP",
      "SequenceName": "epfid2d1_104",
      "SequenceVariant": [
        "SK",
        "SS"
],
      "SeriesDescription": "func_task-friends-s02e19a",
      "SeriesNumber": 13,
      "SeriesTime": "102325.776000",
      "SliceLocation": -30.063743634519,
      "SliceThickness": 2.0,
      "SmallestImagePixelValue": 0,
      "SoftwareVersions": "syngo MR E11",
      "SpacingBetweenSlices": 1.9999999849734,
      "SpecificCharacterSet": "ISO_IR 100",
      "StudyID": "1",
      "StudyTime": "093816.120000",
      "TransmitCoilName": "Body",
      "VariableFlipAngleFlag": "N",
      "WindowCenterWidthExplanation": "Algo1",
      "dBdt": 0.0},
    "slices": {}
  },
  "time": {
    "samples": {
      "AcquisitionNumber": [1, 2, 3, 4, 5, 6, 7, 8, 9, 10, 11, 12, 13, 14, 15, 16, 17, 18, 19, 20, 21, 22, 23, 24, 25, 26, 27, 28, 29, 30, 31, 32, 33, 34, 35, 36, 37, 38, 39, 40, 41, 42, 43, 44, 45, 46, 47, 48, 49, 50, 51, 52, 53, 54, 55, 56, 57, 58, 59, 60, 61, 62, 63, 64, 65, 66, 67, 68, 69, 70, 71, 72, 73, 74, 75, 76, 77, 78, 79, 80, 81, 82, 83, 84, 85, 86, 87, 88, 89, 90, 91, 92, 93, 94, 95, 96, 97, 98, 99, 100, 101, 102, 103, 104, 105, 106, 107, 108, 109, 110, 111, 112, 113, 114, 115, 116, 117, 118, 119, 120, 121, 122, 123, 124, 125, 126, 127, 128, 129, 130, 131, 132, 133, 134, 135, 136, 137, 138, 139, 140, 141, 142, 143, 144, 145, 146, 147, 148, 149, 150, 151, 152, 153, 154, 155, 156, 157, 158, 159, 160, 161, 162, 163, 164, 165, 166, 167, 168, 169, 170, 171, 172, 173, 174, 175, 176, 177, 178, 179, 180, 181, 182, 183, 184, 185, 186, 187, 188, 189, 190, 191, 192, 193, 194, 195, 196, 197, 198, 199, 200, 201, 202, 203, 204, 205, 206, 207, 208, 209, 210, 211, 212, 213, 214, 215, 216, 217, 218, 219, 220, 221, 222, 223, 224, 225, 226, 227, 228, 229, 230, 231, 232, 233, 234, 235, 236, 237, 238, 239, 240, 241, 242, 243, 244, 245, 246, 247, 248, 249, 250, 251, 252, 253, 254, 255, 256, 257, 258, 259, 260, 261, 262, 263, 264, 265, 266, 267, 268, 269, 270, 271, 272, 273, 274, 275, 276, 277, 278, 279, 280, 281, 282, 283, 284, 285, 286, 287, 288, 289, 290, 291, 292, 293, 294, 295, 296, 297, 298, 299, 300, 301, 302, 303, 304, 305, 306, 307, 308, 309, 310, 311, 312, 313, 314, 315, 316, 317, 318, 319, 320, 321, 322, 323, 324, 325, 326, 327, 328, 329, 330, 331, 332, 333, 334, 335, 336, 337, 338, 339, 340, 341, 342, 343, 344, 345, 346, 347, 348, 349, 350, 351, 352, 353, 354, 355, 356, 357, 358, 359, 360, 361, 362, 363, 364, 365, 366, 367, 368, 369, 370, 371, 372, 373, 374, 375, 376, 377, 378, 379, 380, 381, 382, 383, 384, 385, 386, 387, 388, 389, 390, 391, 392, 393, 394, 395, 396, 397, 398, 399, 400, 401, 402, 403, 404, 405, 406, 407, 408, 409, 410, 411, 412, 413, 414, 415, 416, 417, 418, 419, 420, 421, 422, 423, 424, 425, 426, 427, 428, 429, 430, 431, 432, 433, 434, 435, 436, 437, 438, 439, 440, 441, 442, 443, 444, 445, 446, 447, 448, 449, 450, 451, 452, 453, 454, 455, 456, 457, 458, 459, 460, 461, 462, 463, 464, 465, 466, 467, 468, 469, 470, 471, 472, 473, 474, 475, 476, 477, 478],
      "AcquisitionTime": ["102153.230000", "102154.720000", "102156.210000", "102157.700000", "102159.190000", "102200.680000", "102202.170000", "102203.660000", "102205.150000", "102206.640000", "102208.130000", "102209.620000", "102211.110000", "102212.600000", "102214.090000", "102215.580000", "102217.070000", "102218.560000", "102220.050000", "102221.540000", "102223.030000", "102224.520000", "102226.010000", "102227.500000", "102228.990000", "102230.480000", "102231.970000", "102233.460000", "102234.950000", "102236.440000", "102237.930000", "102239.420000", "102240.910000", "102242.400000", "102243.890000", "102245.380000", "102246.870000", "102248.360000", "102249.850000", "102251.340000", "102252.830000", "102254.320000", "102255.810000", "102257.300000", "102258.790000", "102300.280000", "102301.770000", "102303.260000", "102304.750000", "102306.240000", "102307.730000", "102309.220000", "102310.710000", "102312.200000", "102313.690000", "102315.180000", "102316.670000", "102318.160000", "102319.650000", "102321.140000", "102322.630000", "102324.120000", "102325.610000", "102327.100000", "102328.590000", "102330.080000", "102331.570000", "102333.060000", "102334.550000", "102336.040000", "102337.530000", "102339.020000", "102340.510000", "102342.000000", "102343.490000", "102344.980000", "102346.470000", "102347.960000", "102349.450000", "102350.940000", "102352.430000", "102353.920000", "102355.410000", "102356.900000", "102358.390000", "102359.880000", "102401.370000", "102402.860000", "102404.350000", "102405.840000", "102407.330000", "102408.820000", "102410.310000", "102411.800000", "102413.290000", "102414.780000", "102416.270000", "102417.760000", "102419.250000", "102420.740000", "102422.230000", "102423.720000", "102425.210000", "102426.700000", "102428.190000", "102429.680000", "102431.170000", "102432.660000", "102434.150000", "102435.640000", "102437.130000", "102438.620000", "102440.110000", "102441.600000", "102443.090000", "102444.580000", "102446.070000", "102447.560000", "102449.050000", "102450.540000", "102452.030000", "102453.520000", "102455.010000", "102456.500000", "102457.990000", "102459.480000", "102500.970000", "102502.460000", "102503.950000", "102505.440000", "102506.930000", "102508.420000", "102509.910000", "102511.400000", "102512.890000", "102514.380000", "102515.870000", "102517.360000", "102518.850000", "102520.340000", "102521.830000", "102523.320000", "102524.810000", "102526.300000", "102527.790000", "102529.280000", "102530.770000", "102532.260000", "102533.750000", "102535.240000", "102536.730000", "102538.220000", "102539.710000", "102541.200000", "102542.690000", "102544.180000", "102545.670000", "102547.160000", "102548.650000", "102550.140000", "102551.630000", "102553.120000", "102554.610000", "102556.100000", "102557.590000", "102559.080000", "102600.570000", "102602.060000", "102603.550000", "102605.040000", "102606.530000", "102608.020000", "102609.510000", "102611.000000", "102612.490000", "102613.980000", "102615.470000", "102616.960000", "102618.450000", "102619.940000", "102621.430000", "102622.920000", "102624.410000", "102625.900000", "102627.390000", "102628.880000", "102630.370000", "102631.860000", "102633.350000", "102634.840000", "102636.330000", "102637.820000", "102639.310000", "102640.800000", "102642.290000", "102643.780000", "102645.270000", "102646.760000", "102648.250000", "102649.740000", "102651.230000", "102652.720000", "102654.210000", "102655.700000", "102657.190000", "102658.680000", "102700.170000", "102701.660000", "102703.150000", "102704.640000", "102706.130000", "102707.620000", "102709.110000", "102710.600000", "102712.090000", "102713.580000", "102715.070000", "102716.560000", "102718.050000", "102719.540000", "102721.030000", "102722.520000", "102724.010000", "102725.500000", "102726.990000", "102728.480000", "102729.970000", "102731.460000", "102732.950000", "102734.440000", "102735.930000", "102737.420000", "102738.910000", "102740.400000", "102741.890000", "102743.380000", "102744.870000", "102746.360000", "102747.850000", "102749.340000", "102750.830000", "102752.320000", "102753.810000", "102755.300000", "102756.790000", "102758.280000", "102759.770000", "102801.260000", "102802.750000", "102804.240000", "102805.730000", "102807.220000", "102808.710000", "102810.200000", "102811.690000", "102813.180000", "102814.670000", "102816.160000", "102817.650000", "102819.140000", "102820.630000", "102822.120000", "102823.610000", "102825.100000", "102826.590000", "102828.080000", "102829.570000", "102831.060000", "102832.550000", "102834.040000", "102835.530000", "102837.020000", "102838.510000", "102840.000000", "102841.490000", "102842.980000", "102844.470000", "102845.960000", "102847.450000", "102848.940000", "102850.430000", "102851.920000", "102853.410000", "102854.900000", "102856.390000", "102857.880000", "102859.370000", "102900.860000", "102902.350000", "102903.840000", "102905.330000", "102906.820000", "102908.310000", "102909.800000", "102911.290000", "102912.780000", "102914.270000", "102915.760000", "102917.250000", "102918.740000", "102920.230000", "102921.720000", "102923.210000", "102924.700000", "102926.190000", "102927.680000", "102929.170000", "102930.660000", "102932.150000", "102933.640000", "102935.130000", "102936.620000", "102938.110000", "102939.600000", "102941.090000", "102942.580000", "102944.070000", "102945.560000", "102947.050000", "102948.540000", "102950.030000", "102951.520000", "102953.010000", "102954.500000", "102955.990000", "102957.480000", "102958.970000", "103000.460000", "103001.950000", "103003.440000", "103004.930000", "103006.420000", "103007.910000", "103009.400000", "103010.890000", "103012.380000", "103013.870000", "103015.360000", "103016.850000", "103018.340000", "103019.830000", "103021.320000", "103022.810000", "103024.300000", "103025.790000", "103027.280000", "103028.770000", "103030.260000", "103031.750000", "103033.240000", "103034.730000", "103036.220000", "103037.710000", "103039.200000", "103040.690000", "103042.180000", "103043.670000", "103045.160000", "103046.650000", "103048.140000", "103049.630000", "103051.120000", "103052.610000", "103054.100000", "103055.590000", "103057.080000", "103058.570000", "103100.060000", "103101.550000", "103103.040000", "103104.530000", "103106.020000", "103107.510000", "103109.000000", "103110.490000", "103111.980000", "103113.470000", "103114.960000", "103116.450000", "103117.940000", "103119.430000", "103120.920000", "103122.410000", "103123.900000", "103125.390000", "103126.880000", "103128.370000", "103129.860000", "103131.350000", "103132.840000", "103134.330000", "103135.820000", "103137.310000", "103138.800000", "103140.290000", "103141.780000", "103143.270000", "103144.760000", "103146.250000", "103147.740000", "103149.230000", "103150.720000", "103152.210000", "103153.700000", "103155.190000", "103156.680000", "103158.170000", "103159.660000", "103201.150000", "103202.640000", "103204.130000", "103205.620000", "103207.110000", "103208.600000", "103210.090000", "103211.580000", "103213.070000", "103214.560000", "103216.050000", "103217.540000", "103219.030000", "103220.520000", "103222.010000", "103223.500000", "103224.990000", "103226.480000", "103227.970000", "103229.460000", "103230.950000", "103232.440000", "103233.930000", "103235.420000", "103236.910000", "103238.400000", "103239.890000", "103241.380000", "103242.870000", "103244.360000", "103245.850000", "103247.340000", "103248.830000", "103250.320000", "103251.810000", "103253.300000", "103254.790000", "103256.280000", "103257.770000", "103259.260000", "103300.750000", "103302.240000", "103303.730000", "103305.220000", "103306.710000", "103308.200000", "103309.690000", "103311.180000", "103312.670000", "103314.160000", "103315.650000", "103317.140000", "103318.630000", "103320.120000", "103321.610000", "103323.100000", "103324.590000", "103326.080000", "103327.570000", "103329.060000", "103330.550000", "103332.040000", "103333.530000", "103335.020000", "103336.510000", "103338.000000", "103339.490000", "103340.980000", "103342.470000", "103343.960000"],
      "ContentTime": ["102325.779000", "102325.782000", "102325.785000", "102325.788000", "102325.791000", "102325.794000", "102325.797000", "102325.800000", "102325.802000", "102325.811000", "102325.814000", "102325.817000", "102325.820000", "102325.823000", "102325.826000", "102325.829000", "102325.832000", "102325.834000", "102325.837000", "102325.851000", "102325.854000", "102325.857000", "102325.860000", "102325.863000", "102325.866000", "102325.869000", "102325.872000", "102325.874000", "102325.877000", "102325.880000", "102325.883000", "102325.886000", "102325.889000", "102325.892000", "102325.895000", "102325.897000", "102325.900000", "102345.747000", "102345.750000", "102345.753000", "102345.756000", "102345.759000", "102345.761000", "102345.764000", "102345.767000", "102345.770000", "102345.773000", "102345.776000", "102345.778000", "102345.781000", "102345.784000", "102345.787000", "102345.790000", "102345.793000", "102345.796000", "102345.799000", "102345.801000", "102405.747000", "102405.750000", "102405.753000", "102405.755000", "102405.758000", "102405.761000", "102405.764000", "102405.767000", "102405.770000", "102405.773000", "102405.776000", "102405.779000", "102405.782000", "102405.784000", "102405.787000", "102405.790000", "102405.793000", "102405.796000", "102405.799000", "102405.801000", "102425.747000", "102425.750000", "102425.763000", "102425.765000", "102425.769000", "102425.771000", "102425.774000", "102425.777000", "102425.780000", "102425.783000", "102425.786000", "102425.789000", "102425.793000", "102425.797000", "102425.800000", "102425.803000", "102425.806000", "102425.808000", "102425.811000", "102425.814000", "102505.747000", "102505.750000", "102505.753000", "102505.756000", "102505.759000", "102505.761000", "102505.765000", "102505.767000", "102505.785000", "102505.788000", "102505.791000", "102505.794000", "102505.797000", "102505.800000", "102505.803000", "102505.805000", "102505.808000", "102505.811000", "102505.814000", "102505.817000", "102505.820000", "102505.823000", "102505.826000", "102505.829000", "102505.831000", "102505.834000", "102505.837000", "102505.840000", "102505.843000", "102505.846000", "102505.849000", "102545.747000", "102545.761000", "102545.763000", "102545.766000", "102545.769000", "102545.772000", "102545.775000", "102545.778000", "102545.781000", "102545.784000", "102545.787000", "102545.790000", "102545.793000", "102545.796000", "102545.799000", "102545.801000", "102545.804000", "102545.807000", "102545.810000", "102545.813000", "102545.816000", "102545.819000", "102545.822000", "102545.824000", "102545.827000", "102545.830000", "102545.833000", "102625.747000", "102625.750000", "102625.753000", "102625.755000", "102625.758000", "102625.761000", "102625.764000", "102625.767000", "102625.770000", "102625.773000", "102625.776000", "102625.779000", "102625.782000", "102625.790000", "102625.793000", "102625.795000", "102625.798000", "102625.801000", "102625.804000", "102625.807000", "102625.810000", "102625.813000", "102625.815000", "102625.818000", "102625.821000", "102625.824000", "102625.827000", "102705.748000", "102705.751000", "102705.754000", "102705.757000", "102705.760000", "102705.763000", "102705.766000", "102705.769000", "102705.772000", "102705.775000", "102705.778000", "102705.781000", "102705.784000", "102705.786000", "102705.789000", "102705.792000", "102705.795000", "102705.798000", "102705.801000", "102705.804000", "102705.807000", "102705.809000", "102705.812000", "102705.815000", "102705.818000", "102705.821000", "102745.746000", "102745.749000", "102745.752000", "102745.755000", "102745.758000", "102745.761000", "102745.763000", "102745.766000", "102745.790000", "102745.793000", "102745.796000", "102745.799000", "102745.802000", "102745.805000", "102745.808000", "102745.811000", "102745.814000", "102745.817000", "102745.819000", "102745.822000", "102745.825000", "102745.828000", "102745.831000", "102745.834000", "102745.837000", "102745.840000", "102745.842000", "102805.747000", "102805.750000", "102805.753000", "102805.756000", "102805.759000", "102805.762000", "102805.764000", "102805.767000", "102805.770000", "102805.773000", "102805.776000", "102805.779000", "102805.782000", "102805.785000", "102845.747000", "102845.750000", "102845.753000", "102845.756000", "102845.758000", "102845.761000", "102845.764000", "102845.767000", "102845.770000", "102845.773000", "102845.776000", "102845.779000", "102845.782000", "102845.785000", "102845.788000", "102845.791000", "102845.794000", "102845.796000", "102845.799000", "102845.802000", "102845.805000", "102845.808000", "102845.811000", "102845.814000", "102845.817000", "102845.819000", "102845.822000", "102925.747000", "102925.750000", "102925.753000", "102925.756000", "102925.759000", "102925.762000", "102925.764000", "102925.767000", "102925.770000", "102925.773000", "102925.776000", "102925.779000", "102925.782000", "102925.785000", "102925.788000", "102925.791000", "102925.794000", "102925.798000", "102925.803000", "102925.806000", "102925.809000", "102925.812000", "102925.815000", "102925.818000", "102925.821000", "102925.824000", "103005.746000", "103005.749000", "103005.752000", "103005.755000", "103005.758000", "103005.760000", "103005.763000", "103005.766000", "103005.769000", "103005.772000", "103005.775000", "103005.778000", "103005.781000", "103005.784000", "103005.787000", "103005.790000", "103005.793000", "103005.795000", "103005.798000", "103005.801000", "103005.804000", "103005.807000", "103005.810000", "103005.813000", "103005.831000", "103005.834000", "103005.837000", "103045.747000", "103045.750000", "103045.753000", "103045.756000", "103045.759000", "103045.762000", "103045.765000", "103045.768000", "103045.770000", "103045.773000", "103045.776000", "103045.779000", "103045.782000", "103045.785000", "103045.788000", "103045.791000", "103045.794000", "103045.797000", "103045.800000", "103045.802000", "103045.805000", "103045.808000", "103045.811000", "103045.814000", "103045.817000", "103045.820000", "103045.823000", "103125.747000", "103125.750000", "103125.753000", "103125.756000", "103125.759000", "103125.762000", "103125.765000", "103125.767000", "103125.770000", "103125.773000", "103125.776000", "103125.779000", "103125.782000", "103125.785000", "103125.788000", "103125.791000", "103125.793000", "103125.796000", "103125.799000", "103125.802000", "103125.805000", "103125.808000", "103125.811000", "103125.813000", "103125.816000", "103125.819000", "103125.822000", "103205.747000", "103205.750000", "103205.753000", "103205.756000", "103205.759000", "103205.761000", "103205.764000", "103205.767000", "103205.771000", "103205.773000", "103205.776000", "103205.779000", "103205.782000", "103205.785000", "103205.788000", "103205.791000", "103205.794000", "103205.797000", "103205.799000", "103205.802000", "103205.805000", "103205.808000", "103205.811000", "103205.814000", "103205.817000", "103205.820000", "103205.823000", "103245.747000", "103245.750000", "103245.753000", "103245.756000", "103245.759000", "103245.762000", "103245.764000", "103245.767000", "103245.770000", "103245.799000", "103245.801000", "103245.804000", "103245.807000", "103245.810000", "103245.813000", "103245.816000", "103245.819000", "103245.822000", "103245.824000", "103245.828000", "103245.830000", "103245.833000", "103245.836000", "103245.839000", "103245.842000", "103245.845000", "103245.848000", "103325.747000", "103325.750000", "103325.757000", "103325.760000", "103325.763000", "103325.766000", "103325.769000", "103325.772000", "103325.775000", "103325.778000", "103325.781000", "103325.784000", "103325.787000", "103325.790000", "103325.793000", "103325.796000", "103325.798000", "103325.801000", "103325.804000", "103325.807000", "103325.810000", "103325.813000", "103325.816000", "103325.818000", "103325.821000", "103325.824000", "103325.827000", "103346.627000", "103346.630000", "103346.633000", "103346.636000", "103346.639000", "103346.642000", "103346.645000", "103346.648000", "103346.651000", "103346.653000", "103346.656000", "103346.659000", "103346.662000", "103346.665000"],
