{
  "AcquisitionMatrixPE": 104,
  "AcquisitionNumber": 1,
  "AcquisitionTime": "19:01:2.162500",
  "BandwidthPerPixelPhaseEncode": 17.17,
  "BaseResolution": 104,
  "BodyPartExamined": "BRAIN",
  "CoilString": "HC1-7;NC1_2",
  "ConsistencyInfo": "N4_VE11C_LATEST_20160120",
  "ConversionSoftware": "dcm2niix",
  "ConversionSoftwareVersion": "v1.0.20190720  (JP2:OpenJPEG) GCC7.3.0",
  "DerivedVendorReportedEchoSpacing": 0.000560011,
  "DeviceSerialNumber": "167006",
  "DwellTime": 2.1e-06,
  "EchoTime": 0.037,
  "EchoTrainLength": 104,
  "EffectiveEchoSpacing": 0.000560011,
  "FlipAngle": 52,
  "ImageComments": "Unaliased_MB4_PE3_LB",
  "ImageOrientationPatientDICOM": [0.998158, -0.0588723, -0.0146547, 0.0488181, 0.922815, -0.382138],
  "ImageType": [
    "ORIGINAL",
    "PRIMARY",
    "M",
    "MB",
    "ND",
    "MOSAIC"
],
  "ImagingFrequency": 123.259,
  "InPlanePhaseEncodingDirectionDICOM": "COL",
  "InstitutionAddress": "Chemin_Queen-Mary_4565_Montreal_District_CA_H3W_1W5",
  "InstitutionName": "IUGM",
  "InstitutionalDepartmentName": "Department",
  "MRAcquisitionType": "2D",
  "MagneticFieldStrength": 3,
  "Manufacturer": "Siemens",
  "ManufacturersModelName": "Prisma_fit",
  "Modality": "MR",
  "MultibandAccelerationFactor": 4,
  "PartialFourier": 1,
  "PatientPosition": "HFS",
  "PercentPhaseFOV": 100,
  "PhaseEncodingDirection": "j",
  "PhaseEncodingSteps": 104,
  "PhaseResolution": 1,
  "PixelBandwidth": 2290,
  "ProcedureStepDescription": "video_friends",
  "ProtocolName": "func_task-friends-s01e10a",
  "PulseSequenceDetails": "%CustomerSeq%_cmrr_mbep2d_bold",
  "ReceiveCoilActiveElements": "HC1-7;NC1,2",
  "ReceiveCoilName": "HeadNeck_64",
  "ReconMatrixPE": 104,
  "RepetitionTime": 1.49,
  "SAR": 0.0339703,
  "ScanOptions": "FS",
  "ScanningSequence": "EP",
  "SequenceName": "epfid2d1_104",
  "SequenceVariant": "SK_SS",
  "SeriesDescription": "func_task-friends-s01e10a",
  "SeriesNumber": 17,
  "ShimSetting": [623, -7269, -8854, 401, 22, -415, 15, 35],
  "SliceThickness": 2,
  "SliceTiming": [0, 0.785, 0.0975, 0.8825, 0.1975, 0.98, 0.295, 1.0775, 0.3925, 1.1775, 0.49, 1.275, 0.5875, 1.3725, 0.6875, 0, 0.785, 0.0975, 0.8825, 0.1975, 0.98, 0.295, 1.0775, 0.3925, 1.1775, 0.49, 1.275, 0.5875, 1.3725, 0.6875, 0, 0.785, 0.0975, 0.8825, 0.1975, 0.98, 0.295, 1.0775, 0.3925, 1.1775, 0.49, 1.275, 0.5875, 1.3725, 0.6875, 0, 0.785, 0.0975, 0.8825, 0.1975, 0.98, 0.295, 1.0775, 0.3925, 1.1775, 0.49, 1.275, 0.5875, 1.3725, 0.6875],
  "SoftwareVersions": "syngo_MR_E11",
  "SpacingBetweenSlices": 2,
  "StationName": "MRC35049",
  "TaskName": "friends",
  "TotalReadoutTime": 0.0576811,
  "TxRefAmp": 230.667,
  "WipMemBlock": "29c45a40-ca8f-453e-8058-2d369fcdc2d9||Sequence: R016 ve11c/master r/e634e98; Dec 19 2017 11:00:25 by eja",
  "dcmmeta_affine": [
    [-1.9963159561157227, 0.09763611108064651, -0.0720418244600296, 96.4626693725586],
    [0.11774462461471558, 1.8456294536590576, -0.7614380717277527, -75.32717895507812],
    [-0.029309336096048355, 0.7642767429351807, 1.8479777574539185, -69.24687194824219],
    [0.0, 0.0, 0.0, 1.0]
],
  "dcmmeta_reorient_transform": [
    [0.0, -1.0, 0.0, 103.0],
    [1.0, 0.0, 0.0, 0.0],
    [0.0, 0.0, 1.0, 0.0],
    [0.0, 0.0, 0.0, 1.0]
],
  "dcmmeta_shape": [104, 104, 60, 496],
  "dcmmeta_slice_dim": 2,
  "dcmmeta_version": 0.6,
  "global": {
    "const": {
      "AcquisitionMatrix": [104, 0, 0, 104],
      "AngioFlag": "N",
      "BitsAllocated": 16,
      "BitsStored": 16,
      "BodyPartExamined": "BRAIN",
      "Columns": 832,
      "EchoNumbers": 1,
      "EchoTime": 37.0,
      "EchoTrainLength": 104,
      "FlipAngle": 52.0,
      "HighBit": 15,
      "ImageOrientationPatient": [0.9981579491057, -0.0588723139722, -0.0146546676747, 0.04881805403675, 0.92281474822714, -0.3821383755324],
      "ImagePositionPatient": [-868.71771924968, -743.72275468362, 298.33896908335],
      "ImageType": [
        "ORIGINAL",
        "PRIMARY",
        "M",
        "MB",
        "ND",
        "MOSAIC"
],
      "ImagedNucleus": "1H",
      "ImagingFrequency": 123.259134,
      "InPlanePhaseEncodingDirection": "COL",
      "MRAcquisitionType": "2D",
      "MagneticFieldStrength": 3.0,
      "Manufacturer": "SIEMENS",
      "ManufacturerModelName": "Prisma_fit",
      "Modality": "MR",
      "NumberOfAverages": 1.0,
      "NumberOfPhaseEncodingSteps": 104,
      "PercentPhaseFieldOfView": 100.0,
      "PercentSampling": 100.0,
      "PerformedProcedureStepStartTime": "174035.701000",
      "PhotometricInterpretation": "MONOCHROME2",
      "PixelBandwidth": 2290.0,
      "PixelRepresentation": 0,
      "PixelSpacing": [2.0, 2.0],
      "ProtocolName": "func_task-friends-s01e10a",
      "RepetitionTime": 1490.0,
      "Rows": 832,
      "SAR": 0.03397033353706,
      "SamplesPerPixel": 1,
      "ScanOptions": "FS",
      "ScanningSequence": "EP",
      "SequenceName": "epfid2d1_104",
      "SequenceVariant": [
        "SK",
        "SS"
],
      "SeriesDescription": "func_task-friends-s01e10a",
      "SeriesNumber": 17,
      "SeriesTime": "190202.778000",
      "SliceLocation": -38.779524596707,
      "SliceThickness": 2.0,
      "SmallestImagePixelValue": 0,
      "SoftwareVersions": "syngo MR E11",
      "SpacingBetweenSlices": 1.9999999660245,
      "SpecificCharacterSet": "ISO_IR 100",
      "StudyID": "1",
      "StudyTime": "174035.607000",
      "TransmitCoilName": "Body",
      "VariableFlipAngleFlag": "N",
      "WindowCenterWidthExplanation": "Algo1",
      "dBdt": 0.0},
    "slices": {}
  },
  "time": {
    "samples": {
      "AcquisitionNumber": [1, 2, 3, 4, 5, 6, 7, 8, 9, 10, 11, 12, 13, 14, 15, 16, 17, 18, 19, 20, 21, 22, 23, 24, 25, 26, 27, 28, 29, 30, 31, 32, 33, 34, 35, 36, 37, 38, 39, 40, 41, 42, 43, 44, 45, 46, 47, 48, 49, 50, 51, 52, 53, 54, 55, 56, 57, 58, 59, 60, 61, 62, 63, 64, 65, 66, 67, 68, 69, 70, 71, 72, 73, 74, 75, 76, 77, 78, 79, 80, 81, 82, 83, 84, 85, 86, 87, 88, 89, 90, 91, 92, 93, 94, 95, 96, 97, 98, 99, 100, 101, 102, 103, 104, 105, 106, 107, 108, 109, 110, 111, 112, 113, 114, 115, 116, 117, 118, 119, 120, 121, 122, 123, 124, 125, 126, 127, 128, 129, 130, 131, 132, 133, 134, 135, 136, 137, 138, 139, 140, 141, 142, 143, 144, 145, 146, 147, 148, 149, 150, 151, 152, 153, 154, 155, 156, 157, 158, 159, 160, 161, 162, 163, 164, 165, 166, 167, 168, 169, 170, 171, 172, 173, 174, 175, 176, 177, 178, 179, 180, 181, 182, 183, 184, 185, 186, 187, 188, 189, 190, 191, 192, 193, 194, 195, 196, 197, 198, 199, 200, 201, 202, 203, 204, 205, 206, 207, 208, 209, 210, 211, 212, 213, 214, 215, 216, 217, 218, 219, 220, 221, 222, 223, 224, 225, 226, 227, 228, 229, 230, 231, 232, 233, 234, 235, 236, 237, 238, 239, 240, 241, 242, 243, 244, 245, 246, 247, 248, 249, 250, 251, 252, 253, 254, 255, 256, 257, 258, 259, 260, 261, 262, 263, 264, 265, 266, 267, 268, 269, 270, 271, 272, 273, 274, 275, 276, 277, 278, 279, 280, 281, 282, 283, 284, 285, 286, 287, 288, 289, 290, 291, 292, 293, 294, 295, 296, 297, 298, 299, 300, 301, 302, 303, 304, 305, 306, 307, 308, 309, 310, 311, 312, 313, 314, 315, 316, 317, 318, 319, 320, 321, 322, 323, 324, 325, 326, 327, 328, 329, 330, 331, 332, 333, 334, 335, 336, 337, 338, 339, 340, 341, 342, 343, 344, 345, 346, 347, 348, 349, 350, 351, 352, 353, 354, 355, 356, 357, 358, 359, 360, 361, 362, 363, 364, 365, 366, 367, 368, 369, 370, 371, 372, 373, 374, 375, 376, 377, 378, 379, 380, 381, 382, 383, 384, 385, 386, 387, 388, 389, 390, 391, 392, 393, 394, 395, 396, 397, 398, 399, 400, 401, 402, 403, 404, 405, 406, 407, 408, 409, 410, 411, 412, 413, 414, 415, 416, 417, 418, 419, 420, 421, 422, 423, 424, 425, 426, 427, 428, 429, 430, 431, 432, 433, 434, 435, 436, 437, 438, 439, 440, 441, 442, 443, 444, 445, 446, 447, 448, 449, 450, 451, 452, 453, 454, 455, 456, 457, 458, 459, 460, 461, 462, 463, 464, 465, 466, 467, 468, 469, 470, 471, 472, 473, 474, 475, 476, 477, 478, 479, 480, 481, 482, 483, 484, 485, 486, 487, 488, 489, 490, 491, 492, 493, 494, 495, 496],
      "AcquisitionTime": ["190102.162500", "190103.652500", "190105.142500", "190106.632500", "190108.122500", "190109.612500", "190111.102500", "190112.592500", "190114.082500", "190115.572500", "190117.062500", "190118.552500", "190120.042500", "190121.532500", "190123.022500", "190124.512500", "190126.002500", "190127.492500", "190128.982500", "190130.472500", "190131.962500", "190133.452500", "190134.942500", "190136.432500", "190137.922500", "190139.412500", "190140.902500", "190142.392500", "190143.882500", "190145.372500", "190146.862500", "190148.352500", "190149.842500", "190151.332500", "190152.822500", "190154.312500", "190155.802500", "190157.292500", "190158.782500", "190200.272500", "190201.762500", "190203.252500", "190204.742500", "190206.232500", "190207.722500", "190209.212500", "190210.702500", "190212.192500", "190213.682500", "190215.172500", "190216.662500", "190218.152500", "190219.642500", "190221.132500", "190222.622500", "190224.112500", "190225.602500", "190227.092500", "190228.582500", "190230.072500", "190231.562500", "190233.052500", "190234.542500", "190236.032500", "190237.522500", "190239.012500", "190240.502500", "190241.992500", "190243.482500", "190244.972500", "190246.462500", "190247.952500", "190249.442500", "190250.932500", "190252.422500", "190253.912500", "190255.402500", "190256.892500", "190258.382500", "190259.872500", "190301.362500", "190302.852500", "190304.342500", "190305.832500", "190307.322500", "190308.812500", "190310.302500", "190311.792500", "190313.282500", "190314.772500", "190316.262500", "190317.752500", "190319.242500", "190320.732500", "190322.222500", "190323.712500", "190325.202500", "190326.692500", "190328.182500", "190329.672500", "190331.162500", "190332.652500", "190334.142500", "190335.632500", "190337.122500", "190338.612500", "190340.102500", "190341.592500", "190343.082500", "190344.572500", "190346.062500", "190347.552500", "190349.042500", "190350.532500", "190352.022500", "190353.512500", "190355.002500", "190356.492500", "190357.982500", "190359.472500", "190400.962500", "190402.452500", "190403.942500", "190405.432500", "190406.922500", "190408.412500", "190409.902500", "190411.392500", "190412.882500", "190414.372500", "190415.862500", "190417.352500", "190418.842500", "190420.332500", "190421.822500", "190423.312500", "190424.802500", "190426.292500", "190427.782500", "190429.272500", "190430.762500", "190432.252500", "190433.742500", "190435.232500", "190436.722500", "190438.212500", "190439.702500", "190441.192500", "190442.682500", "190444.172500", "190445.662500", "190447.152500", "190448.642500", "190450.132500", "190451.622500", "190453.112500", "190454.602500", "190456.092500", "190457.582500", "190459.072500", "190500.562500", "190502.052500", "190503.542500", "190505.032500", "190506.522500", "190508.012500", "190509.502500", "190510.992500", "190512.482500", "190513.972500", "190515.462500", "190516.952500", "190518.442500", "190519.932500", "190521.422500", "190522.912500", "190524.402500", "190525.892500", "190527.382500", "190528.872500", "190530.362500", "190531.852500", "190533.342500", "190534.832500", "190536.322500", "190537.812500", "190539.302500", "190540.792500", "190542.282500", "190543.772500", "190545.262500", "190546.752500", "190548.242500", "190549.732500", "190551.222500", "190552.712500", "190554.202500", "190555.692500", "190557.182500", "190558.672500", "190600.162500", "190601.652500", "190603.142500", "190604.632500", "190606.122500", "190607.612500", "190609.102500", "190610.592500", "190612.082500", "190613.572500", "190615.062500", "190616.552500", "190618.042500", "190619.532500", "190621.022500", "190622.512500", "190624.002500", "190625.492500", "190626.982500", "190628.472500", "190629.962500", "190631.452500", "190632.942500", "190634.432500", "190635.922500", "190637.412500", "190638.902500", "190640.392500", "190641.882500", "190643.372500", "190644.862500", "190646.352500", "190647.842500", "190649.332500", "190650.822500", "190652.312500", "190653.802500", "190655.292500", "190656.782500", "190658.272500", "190659.762500", "190701.252500", "190702.742500", "190704.232500", "190705.722500", "190707.212500", "190708.702500", "190710.192500", "190711.682500", "190713.172500", "190714.662500", "190716.152500", "190717.642500", "190719.132500", "190720.622500", "190722.112500", "190723.602500", "190725.092500", "190726.582500", "190728.072500", "190729.562500", "190731.052500", "190732.542500", "190734.032500", "190735.522500", "190737.012500", "190738.502500", "190739.992500", "190741.482500", "190742.972500", "190744.462500", "190745.952500", "190747.442500", "190748.932500", "190750.422500", "190751.912500", "190753.402500", "190754.892500", "190756.382500", "190757.872500", "190759.362500", "190800.852500", "190802.342500", "190803.832500", "190805.322500", "190806.812500", "190808.302500", "190809.792500", "190811.282500", "190812.772500", "190814.262500", "190815.752500", "190817.242500", "190818.732500", "190820.222500", "190821.712500", "190823.202500", "190824.692500", "190826.182500", "190827.672500", "190829.162500", "190830.652500", "190832.142500", "190833.632500", "190835.122500", "190836.612500", "190838.102500", "190839.592500", "190841.082500", "190842.572500", "190844.062500", "190845.552500", "190847.042500", "190848.532500", "190850.022500", "190851.512500", "190853.002500", "190854.492500", "190855.982500", "190857.472500", "190858.962500", "190900.452500", "190901.942500", "190903.432500", "190904.922500", "190906.412500", "190907.902500", "190909.392500", "190910.882500", "190912.372500", "190913.862500", "190915.352500", "190916.842500", "190918.332500", "190919.822500", "190921.312500", "190922.802500", "190924.292500", "190925.782500", "190927.272500", "190928.762500", "190930.252500", "190931.742500", "190933.232500", "190934.722500", "190936.212500", "190937.702500", "190939.192500", "190940.682500", "190942.172500", "190943.662500", "190945.152500", "190946.642500", "190948.132500", "190949.622500", "190951.112500", "190952.602500", "190954.092500", "190955.582500", "190957.072500", "190958.562500", "191000.052500", "191001.542500", "191003.032500", "191004.522500", "191006.012500", "191007.502500", "191008.992500", "191010.482500", "191011.972500", "191013.462500", "191014.952500", "191016.442500", "191017.932500", "191019.422500", "191020.912500", "191022.402500", "191023.892500", "191025.382500", "191026.872500", "191028.362500", "191029.852500", "191031.342500", "191032.832500", "191034.322500", "191035.812500", "191037.302500", "191038.792500", "191040.282500", "191041.772500", "191043.262500", "191044.752500", "191046.242500", "191047.732500", "191049.222500", "191050.712500", "191052.202500", "191053.692500", "191055.182500", "191056.672500", "191058.162500", "191059.652500", "191101.142500", "191102.632500", "191104.122500", "191105.612500", "191107.102500", "191108.592500", "191110.082500", "191111.572500", "191113.062500", "191114.552500", "191116.042500", "191117.532500", "191119.022500", "191120.512500", "191122.002500", "191123.492500", "191124.982500", "191126.472500", "191127.962500", "191129.452500", "191130.942500", "191132.432500", "191133.922500", "191135.412500", "191136.902500", "191138.392500", "191139.882500", "191141.372500", "191142.862500", "191144.352500", "191145.842500", "191147.332500", "191148.822500", "191150.312500", "191151.802500", "191153.292500", "191154.782500", "191156.272500", "191157.762500", "191159.252500", "191200.742500", "191202.232500", "191203.722500", "191205.212500", "191206.702500", "191208.192500", "191209.682500", "191211.172500", "191212.662500", "191214.152500", "191215.642500", "191217.132500", "191218.622500", "191220.112500", "191221.602500", "191223.092500", "191224.582500", "191226.072500", "191227.562500", "191229.052500", "191230.542500", "191232.032500", "191233.522500", "191235.012500", "191236.502500", "191237.992500", "191239.482500", "191240.972500", "191242.462500", "191243.952500", "191245.442500", "191246.932500", "191248.422500", "191249.912500", "191251.402500", "191252.892500", "191254.382500", "191255.872500", "191257.362500", "191258.852500", "191300.342500", "191301.832500", "191303.322500", "191304.812500", "191306.302500", "191307.792500", "191309.282500", "191310.772500", "191312.262500", "191313.752500", "191315.242500", "191316.732500", "191318.222500", "191319.712500"],
      "ContentTime": ["190202.780000", "190202.793000", "190202.795000", "190202.798000", "190222.747000", "190222.750000", "190222.759000", "190222.761000", "190222.764000", "190222.767000", "190222.770000", "190222.773000", "190222.782000", "190222.785000", "190222.788000", "190222.790000", "190222.793000", "190222.796000", "190222.799000", "190222.805000", "190222.808000", "190222.811000", "190222.814000", "190222.817000", "190222.819000", "190242.747000", "190242.750000", "190242.753000", "190242.755000", "190242.758000", "190242.761000", "190242.764000", "190242.766000", "190242.769000", "190242.772000", "190242.775000", "190242.778000", "190242.780000", "190242.783000", "190242.786000", "190242.789000", "190242.792000", "190242.795000", "190242.802000", "190242.805000", "190302.748000", "190302.751000", "190302.757000", "190302.760000", "190302.763000", "190302.768000", "190302.771000", "190302.774000", "190302.777000", "190302.780000", "190302.783000", "190302.785000", "190302.788000", "190302.791000", "190302.794000", "190302.797000", "190302.799000", "190302.802000", "190302.805000", "190302.808000", "190322.748000", "190322.751000", "190322.754000", "190322.756000", "190322.759000", "190322.762000", "190322.765000", "190322.768000", "190322.771000", "190322.773000", "190322.776000", "190322.779000", "190322.782000", "190322.785000", "190322.788000", "190322.790000", "190322.793000", "190322.796000", "190322.799000", "190322.802000", "190342.748000", "190342.751000", "190342.754000", "190342.756000", "190342.759000", "190342.762000", "190342.765000", "190342.768000", "190342.770000", "190342.773000", "190342.776000", "190342.779000", "190342.782000", "190342.784000", "190342.787000", "190342.790000", "190342.793000", "190342.796000", "190342.798000", "190342.801000", "190422.747000", "190422.761000", "190422.763000", "190422.766000", "190422.769000", "190422.772000", "190422.775000", "190422.777000", "190422.783000", "190422.786000", "190422.789000", "190422.791000", "190422.794000", "190422.797000", "190422.800000", "190422.803000", "190422.806000", "190422.809000", "190422.811000", "190422.814000", "190422.822000", "190422.825000", "190422.828000", "190422.830000", "190422.833000", "190422.836000", "190422.839000", "190422.842000", "190422.845000", "190502.747000", "190502.750000", "190502.753000", "190502.756000", "190502.759000", "190502.762000", "190502.764000", "190502.767000", "190502.770000", "190502.773000", "190502.776000", "190502.779000", "190502.781000", "190502.784000", "190502.787000", "190502.790000", "190502.793000", "190502.796000", "190502.798000", "190502.801000", "190502.804000", "190502.807000", "190502.810000", "190502.813000", "190502.816000", "190502.819000", "190542.748000", "190542.751000", "190542.754000", "190542.757000", "190542.759000", "190542.762000", "190542.765000", "190542.768000", "190542.771000", "190542.773000", "190542.776000", "190542.779000", "190542.782000", "190542.785000", "190542.788000", "190542.790000", "190542.793000", "190542.796000", "190542.799000", "190542.802000", "190542.805000", "190542.807000", "190542.810000", "190542.813000", "190542.816000", "190542.819000", "190542.821000", "190622.747000", "190622.750000", "190622.753000", "190622.756000", "190622.759000", "190622.761000", "190622.764000", "190622.767000", "190622.770000", "190622.773000", "190622.776000", "190622.778000", "190622.781000", "190622.784000", "190622.787000", "190622.790000", "190622.793000", "190622.795000", "190622.798000", "190622.801000", "190622.804000", "190622.807000", "190622.809000", "190622.812000", "190622.815000", "190622.818000", "190622.821000", "190702.747000", "190702.750000", "190702.753000", "190702.755000", "190702.758000", "190702.761000", "190702.764000", "190702.767000", "190702.770000", "190702.772000", "190702.775000", "190702.778000", "190702.781000", "190702.784000", "190702.787000", "190702.789000", "190702.792000", "190702.795000", "190702.798000", "190702.801000", "190702.803000", "190702.806000", "190702.809000", "190702.812000", "190702.815000", "190702.818000", "190702.820000", "190742.748000", "190742.751000", "190742.754000", "190742.757000", "190742.759000", "190742.762000", "190742.765000", "190742.768000", "190742.771000", "190742.774000", "190742.777000", "190742.779000", "190742.782000", "190742.785000", "190742.788000", "190742.791000", "190742.793000", "190742.796000", "190742.799000", "190742.802000", "190742.805000", "190742.807000", "190742.810000", "190742.813000", "190742.816000", "190742.819000", "190742.822000", "190822.748000", "190822.751000", "190822.754000", "190822.757000", "190822.759000", "190822.762000", "190822.765000", "190822.768000", "190822.771000", "190822.774000", "190822.776000", "190822.779000", "190822.782000", "190822.785000", "190822.788000", "190822.791000", "190822.794000", "190822.796000", "190822.799000", "190822.802000", "190822.805000", "190822.808000", "190822.811000", "190822.813000", "190822.816000", "190822.819000", "190822.822000", "190902.747000", "190902.750000", "190902.753000", "190902.756000", "190902.758000", "190902.761000", "190902.764000", "190902.767000", "190902.770000", "190902.773000", "190902.776000", "190902.778000", "190902.781000", "190902.784000", "190902.787000", "190902.790000", "190902.793000", "190902.796000", "190902.798000", "190902.801000", "190902.804000", "190902.807000", "190902.810000", "190902.813000", "190902.815000", "190902.818000", "190902.821000", "190942.747000", "190942.750000", "190942.753000", "190942.756000", "190942.758000", "190942.761000", "190942.764000", "190942.767000", "190942.770000", "190942.773000", "190942.775000", "190942.778000", "190942.781000", "190942.784000", "190942.787000", "190942.789000", "190942.792000", "190942.795000", "190942.798000", "190942.801000", "190942.804000", "190942.807000", "190942.810000", "190942.813000", "190942.816000", "190942.819000", "191022.748000", "191022.751000", "191022.754000", "191022.757000", "191022.760000", "191022.762000", "191022.765000", "191022.768000", "191022.771000", "191022.774000", "191022.777000", "191022.780000", "191022.782000", "191022.785000", "191022.788000", "191022.791000", "191022.794000", "191022.797000", "191022.799000", "191022.802000", "191022.805000", "191022.808000", "191022.811000", "191022.814000", "191022.816000", "191022.820000", "191022.822000", "191102.747000", "191102.750000", "191102.753000", "191102.756000", "191102.758000", "191102.761000", "191102.764000", "191102.767000", "191102.770000", "191102.773000", "191102.775000", "191102.778000", "191102.781000", "191102.784000", "191102.787000", "191102.790000", "191102.800000", "191102.803000", "191102.805000", "191102.808000", "191102.811000", "191102.814000", "191102.817000", "191102.820000", "191102.822000", "191102.825000", "191102.828000", "191122.747000", "191122.750000", "191122.753000", "191122.756000", "191122.759000", "191122.762000", "191122.765000", "191122.768000", "191122.771000", "191122.774000", "191122.777000", "191122.780000", "191122.783000", "191202.747000", "191202.750000", "191202.753000", "191202.756000", "191202.759000", "191202.761000", "191202.764000", "191202.767000", "191202.770000", "191202.773000", "191202.776000", "191202.778000", "191202.781000", "191202.784000", "191202.787000", "191202.790000", "191202.793000", "191202.796000", "191202.798000", "191202.801000", "191202.804000", "191202.807000", "191202.810000", "191202.813000", "191202.815000", "191202.818000", "191202.821000", "191242.748000", "191242.751000", "191242.754000", "191242.757000", "191242.760000", "191242.762000", "191242.765000", "191242.768000", "191242.771000", "191242.774000", "191242.776000", "191242.779000", "191242.782000", "191242.785000", "191242.788000", "191242.791000", "191242.793000", "191242.796000", "191242.799000", "191242.802000", "191242.805000", "191242.808000", "191242.811000", "191242.813000", "191242.816000", "191242.819000", "191242.822000", "191322.025000", "191322.028000", "191322.031000", "191322.034000", "191322.037000", "191322.040000", "191322.043000", "191322.045000", "191322.048000", "191322.051000", "191322.054000", "191322.057000", "191322.060000", "191322.079000", "191322.082000", "191322.085000", "191322.088000", "191322.091000", "191322.094000", "191322.097000", "191322.100000", "191322.103000", "191322.105000", "191322.108000", "191322.111000", "191322.114000", "191322.117000"],
