{
  "AcquisitionMatrixPE": 104,
  "AcquisitionNumber": 1,
  "AcquisitionTime": "13:27:18.985000",
  "BandwidthPerPixelPhaseEncode": 17.17,
  "BaseResolution": 104,
  "BodyPartExamined": "BRAIN",
  "CoilString": "HC1-7;NC1_2",
  "ConsistencyInfo": "N4_VE11C_LATEST_20160120",
  "ConversionSoftware": "dcm2niix",
  "ConversionSoftwareVersion": "v1.0.20190720  (JP2:OpenJPEG) GCC7.3.0",
  "DerivedVendorReportedEchoSpacing": 0.000560011,
  "DeviceSerialNumber": "167006",
  "DwellTime": 2.1e-06,
  "EchoTime": 0.037,
  "EchoTrainLength": 104,
  "EffectiveEchoSpacing": 0.000560011,
  "FlipAngle": 52,
  "ImageComments": "Unaliased_MB4_PE3_LB",
  "ImageOrientationPatientDICOM": [0.999884, -0.0011959, 0.0151733, 0.00890039, 0.854633, -0.519157],
  "ImageType": [
    "ORIGINAL",
    "PRIMARY",
    "M",
    "MB",
    "ND",
    "MOSAIC"
],
  "ImagingFrequency": 123.259,
  "InPlanePhaseEncodingDirectionDICOM": "COL",
  "InstitutionAddress": "Chemin_Queen-Mary_4565_Montreal_District_CA_H3W_1W5",
  "InstitutionName": "IUGM",
  "InstitutionalDepartmentName": "Department",
  "MRAcquisitionType": "2D",
  "MagneticFieldStrength": 3,
  "Manufacturer": "Siemens",
  "ManufacturersModelName": "Prisma_fit",
  "Modality": "MR",
  "MultibandAccelerationFactor": 4,
  "PartialFourier": 1,
  "PatientPosition": "HFS",
  "PercentPhaseFOV": 100,
  "PhaseEncodingDirection": "j",
  "PhaseEncodingSteps": 104,
  "PhaseResolution": 1,
  "PixelBandwidth": 2290,
  "ProcedureStepDescription": "video_friends",
  "ProtocolName": "func_task-friends-s01e17a",
  "PulseSequenceDetails": "%CustomerSeq%_cmrr_mbep2d_bold",
  "ReceiveCoilActiveElements": "HC1-7;NC1,2",
  "ReceiveCoilName": "HeadNeck_64",
  "ReconMatrixPE": 104,
  "RepetitionTime": 1.49,
  "SAR": 0.0342991,
  "ScanOptions": "FS",
  "ScanningSequence": "EP",
  "SequenceName": "epfid2d1_104",
  "SequenceVariant": "SK_SS",
  "SeriesDescription": "func_task-friends-s01e17a",
  "SeriesNumber": 11,
  "ShimSetting": [630, -7184, -8899, 406, -17, -197, 25, -13],
  "SliceThickness": 2,
  "SliceTiming": [0, 0.7825, 0.0975, 0.8825, 0.195, 0.98, 0.2925, 1.0775, 0.3925, 1.175, 0.49, 1.2725, 0.5875, 1.3725, 0.685, 0, 0.7825, 0.0975, 0.8825, 0.195, 0.98, 0.2925, 1.0775, 0.3925, 1.175, 0.49, 1.2725, 0.5875, 1.3725, 0.685, 0, 0.7825, 0.0975, 0.8825, 0.195, 0.98, 0.2925, 1.0775, 0.3925, 1.175, 0.49, 1.2725, 0.5875, 1.3725, 0.685, 0, 0.7825, 0.0975, 0.8825, 0.195, 0.98, 0.2925, 1.0775, 0.3925, 1.175, 0.49, 1.2725, 0.5875, 1.3725, 0.685],
  "SoftwareVersions": "syngo_MR_E11",
  "SpacingBetweenSlices": 2,
  "StationName": "MRC35049",
  "TaskName": "friends",
  "TotalReadoutTime": 0.0576811,
  "TxRefAmp": 248.05,
  "WipMemBlock": "8bfcfa6f-973a-4e83-89c4-f158f9874852||Sequence: R016 ve11c/master r/e634e98; Dec 19 2017 11:00:25 by eja",
  "dcmmeta_affine": [
    [-1.9997683763504028, 0.017800772562623024, 0.024693423882126808, 101.57267761230469],
    [0.002391799120232463, 1.7092655897140503, -1.0384629964828491, -57.658905029296875],
    [0.03034653142094612, 1.0383131504058838, 1.709088921546936, -114.56035614013672],
    [0.0, 0.0, 0.0, 1.0]
],
  "dcmmeta_reorient_transform": [
    [0.0, -1.0, 0.0, 103.0],
    [1.0, 0.0, 0.0, 0.0],
    [0.0, 0.0, 1.0, 0.0],
    [0.0, 0.0, 0.0, 1.0]
],
  "dcmmeta_shape": [104, 104, 60, 483],
  "dcmmeta_slice_dim": 2,
  "dcmmeta_version": 0.6,
  "global": {
    "const": {
      "AcquisitionMatrix": [104, 0, 0, 104],
      "AngioFlag": "N",
      "BitsAllocated": 16,
      "BitsStored": 16,
      "BodyPartExamined": "BRAIN",
      "Columns": 832,
      "EchoNumbers": 1,
      "EchoTime": 37.0,
      "EchoTrainLength": 104,
      "FlipAngle": 52.0,
      "HighBit": 15,
      "ImageOrientationPatient": [0.99988416420741, -0.0011958995305, 0.01517326568529, 0.0089003865914, 0.85463280674669, -0.5191565744078],
      "ImagePositionPatient": [-837.80130915467, -739.69752255096, 359.28574676823],
      "ImageType": [
        "ORIGINAL",
        "PRIMARY",
        "M",
        "MB",
        "ND",
        "MOSAIC"
],
      "ImagedNucleus": "1H",
      "ImagingFrequency": 123.259442,
      "InPlanePhaseEncodingDirection": "COL",
      "MRAcquisitionType": "2D",
      "MagneticFieldStrength": 3.0,
      "Manufacturer": "SIEMENS",
      "ManufacturerModelName": "Prisma_fit",
      "Modality": "MR",
      "NumberOfAverages": 1.0,
      "NumberOfPhaseEncodingSteps": 104,
      "PercentPhaseFieldOfView": 100.0,
      "PercentSampling": 100.0,
      "PerformedProcedureStepStartTime": "130615.875000",
      "PhotometricInterpretation": "MONOCHROME2",
      "PixelBandwidth": 2290.0,
      "PixelRepresentation": 0,
      "PixelSpacing": [2.0, 2.0],
      "ProtocolName": "func_task-friends-s01e17a",
      "RepetitionTime": 1490.0,
      "Rows": 832,
      "SAR": 0.03429911024822,
      "SamplesPerPixel": 1,
      "ScanOptions": "FS",
      "ScanningSequence": "EP",
      "SequenceName": "epfid2d1_104",
      "SequenceVariant": [
        "SK",
        "SS"
],
      "SeriesDescription": "func_task-friends-s01e17a",
      "SeriesNumber": 11,
      "SeriesTime": "132847.906000",
      "SliceLocation": -66.704510135246,
      "SliceThickness": 2.0,
      "SmallestImagePixelValue": 0,
      "SoftwareVersions": "syngo MR E11",
      "SpacingBetweenSlices": 2.0000000008197,
      "SpecificCharacterSet": "ISO_IR 100",
      "StudyID": "1",
      "StudyTime": "130615.734000",
      "TransmitCoilName": "Body",
      "VariableFlipAngleFlag": "N",
      "WindowCenterWidthExplanation": "Algo1",
      "dBdt": 0.0},
    "slices": {}
  },
  "time": {
    "samples": {
      "AcquisitionNumber": [1, 2, 3, 4, 5, 6, 7, 8, 9, 10, 11, 12, 13, 14, 15, 16, 17, 18, 19, 20, 21, 22, 23, 24, 25, 26, 27, 28, 29, 30, 31, 32, 33, 34, 35, 36, 37, 38, 39, 40, 41, 42, 43, 44, 45, 46, 47, 48, 49, 50, 51, 52, 53, 54, 55, 56, 57, 58, 59, 60, 61, 62, 63, 64, 65, 66, 67, 68, 69, 70, 71, 72, 73, 74, 75, 76, 77, 78, 79, 80, 81, 82, 83, 84, 85, 86, 87, 88, 89, 90, 91, 92, 93, 94, 95, 96, 97, 98, 99, 100, 101, 102, 103, 104, 105, 106, 107, 108, 109, 110, 111, 112, 113, 114, 115, 116, 117, 118, 119, 120, 121, 122, 123, 124, 125, 126, 127, 128, 129, 130, 131, 132, 133, 134, 135, 136, 137, 138, 139, 140, 141, 142, 143, 144, 145, 146, 147, 148, 149, 150, 151, 152, 153, 154, 155, 156, 157, 158, 159, 160, 161, 162, 163, 164, 165, 166, 167, 168, 169, 170, 171, 172, 173, 174, 175, 176, 177, 178, 179, 180, 181, 182, 183, 184, 185, 186, 187, 188, 189, 190, 191, 192, 193, 194, 195, 196, 197, 198, 199, 200, 201, 202, 203, 204, 205, 206, 207, 208, 209, 210, 211, 212, 213, 214, 215, 216, 217, 218, 219, 220, 221, 222, 223, 224, 225, 226, 227, 228, 229, 230, 231, 232, 233, 234, 235, 236, 237, 238, 239, 240, 241, 242, 243, 244, 245, 246, 247, 248, 249, 250, 251, 252, 253, 254, 255, 256, 257, 258, 259, 260, 261, 262, 263, 264, 265, 266, 267, 268, 269, 270, 271, 272, 273, 274, 275, 276, 277, 278, 279, 280, 281, 282, 283, 284, 285, 286, 287, 288, 289, 290, 291, 292, 293, 294, 295, 296, 297, 298, 299, 300, 301, 302, 303, 304, 305, 306, 307, 308, 309, 310, 311, 312, 313, 314, 315, 316, 317, 318, 319, 320, 321, 322, 323, 324, 325, 326, 327, 328, 329, 330, 331, 332, 333, 334, 335, 336, 337, 338, 339, 340, 341, 342, 343, 344, 345, 346, 347, 348, 349, 350, 351, 352, 353, 354, 355, 356, 357, 358, 359, 360, 361, 362, 363, 364, 365, 366, 367, 368, 369, 370, 371, 372, 373, 374, 375, 376, 377, 378, 379, 380, 381, 382, 383, 384, 385, 386, 387, 388, 389, 390, 391, 392, 393, 394, 395, 396, 397, 398, 399, 400, 401, 402, 403, 404, 405, 406, 407, 408, 409, 410, 411, 412, 413, 414, 415, 416, 417, 418, 419, 420, 421, 422, 423, 424, 425, 426, 427, 428, 429, 430, 431, 432, 433, 434, 435, 436, 437, 438, 439, 440, 441, 442, 443, 444, 445, 446, 447, 448, 449, 450, 451, 452, 453, 454, 455, 456, 457, 458, 459, 460, 461, 462, 463, 464, 465, 466, 467, 468, 469, 470, 471, 472, 473, 474, 475, 476, 477, 478, 479, 480, 481, 482, 483],
      "AcquisitionTime": ["132718.985000", "132720.475000", "132721.965000", "132723.455000", "132724.945000", "132726.435000", "132727.925000", "132729.415000", "132730.905000", "132732.395000", "132733.885000", "132735.375000", "132736.865000", "132738.355000", "132739.845000", "132741.335000", "132742.825000", "132744.315000", "132745.805000", "132747.295000", "132748.785000", "132750.275000", "132751.765000", "132753.255000", "132754.745000", "132756.235000", "132757.725000", "132759.215000", "132800.705000", "132802.195000", "132803.685000", "132805.175000", "132806.665000", "132808.155000", "132809.645000", "132811.135000", "132812.625000", "132814.115000", "132815.605000", "132817.095000", "132818.585000", "132820.075000", "132821.565000", "132823.055000", "132824.545000", "132826.035000", "132827.525000", "132829.015000", "132830.505000", "132831.995000", "132833.485000", "132834.975000", "132836.465000", "132837.955000", "132839.445000", "132840.935000", "132842.425000", "132843.915000", "132845.405000", "132846.895000", "132848.385000", "132849.875000", "132851.365000", "132852.855000", "132854.345000", "132855.835000", "132857.325000", "132858.815000", "132900.305000", "132901.795000", "132903.285000", "132904.775000", "132906.265000", "132907.755000", "132909.245000", "132910.735000", "132912.225000", "132913.715000", "132915.205000", "132916.695000", "132918.185000", "132919.675000", "132921.165000", "132922.655000", "132924.145000", "132925.635000", "132927.125000", "132928.615000", "132930.105000", "132931.595000", "132933.085000", "132934.575000", "132936.065000", "132937.555000", "132939.045000", "132940.535000", "132942.025000", "132943.515000", "132945.005000", "132946.495000", "132947.985000", "132949.475000", "132950.965000", "132952.455000", "132953.945000", "132955.435000", "132956.925000", "132958.415000", "132959.905000", "133001.395000", "133002.885000", "133004.375000", "133005.865000", "133007.355000", "133008.845000", "133010.335000", "133011.825000", "133013.315000", "133014.805000", "133016.295000", "133017.785000", "133019.275000", "133020.765000", "133022.255000", "133023.745000", "133025.235000", "133026.725000", "133028.215000", "133029.705000", "133031.195000", "133032.685000", "133034.175000", "133035.665000", "133037.155000", "133038.645000", "133040.135000", "133041.625000", "133043.115000", "133044.605000", "133046.095000", "133047.585000", "133049.075000", "133050.565000", "133052.055000", "133053.545000", "133055.035000", "133056.525000", "133058.015000", "133059.505000", "133100.995000", "133102.485000", "133103.975000", "133105.465000", "133106.955000", "133108.445000", "133109.935000", "133111.425000", "133112.915000", "133114.405000", "133115.895000", "133117.385000", "133118.875000", "133120.365000", "133121.855000", "133123.345000", "133124.835000", "133126.325000", "133127.815000", "133129.305000", "133130.795000", "133132.285000", "133133.775000", "133135.265000", "133136.755000", "133138.245000", "133139.735000", "133141.225000", "133142.715000", "133144.205000", "133145.695000", "133147.185000", "133148.675000", "133150.165000", "133151.655000", "133153.145000", "133154.635000", "133156.125000", "133157.615000", "133159.105000", "133200.595000", "133202.085000", "133203.575000", "133205.065000", "133206.555000", "133208.045000", "133209.535000", "133211.025000", "133212.515000", "133214.005000", "133215.495000", "133216.985000", "133218.475000", "133219.965000", "133221.455000", "133222.945000", "133224.435000", "133225.925000", "133227.415000", "133228.905000", "133230.395000", "133231.885000", "133233.375000", "133234.865000", "133236.355000", "133237.845000", "133239.335000", "133240.825000", "133242.315000", "133243.805000", "133245.295000", "133246.785000", "133248.275000", "133249.765000", "133251.255000", "133252.745000", "133254.235000", "133255.725000", "133257.215000", "133258.705000", "133300.195000", "133301.685000", "133303.175000", "133304.665000", "133306.155000", "133307.645000", "133309.135000", "133310.625000", "133312.115000", "133313.605000", "133315.095000", "133316.585000", "133318.075000", "133319.565000", "133321.055000", "133322.545000", "133324.035000", "133325.525000", "133327.015000", "133328.505000", "133329.995000", "133331.485000", "133332.975000", "133334.465000", "133335.955000", "133337.445000", "133338.935000", "133340.425000", "133341.915000", "133343.405000", "133344.895000", "133346.385000", "133347.875000", "133349.365000", "133350.855000", "133352.345000", "133353.835000", "133355.325000", "133356.815000", "133358.305000", "133359.795000", "133401.285000", "133402.775000", "133404.265000", "133405.755000", "133407.245000", "133408.735000", "133410.225000", "133411.715000", "133413.205000", "133414.695000", "133416.185000", "133417.675000", "133419.165000", "133420.655000", "133422.145000", "133423.635000", "133425.125000", "133426.615000", "133428.105000", "133429.595000", "133431.085000", "133432.575000", "133434.065000", "133435.555000", "133437.045000", "133438.535000", "133440.025000", "133441.515000", "133443.005000", "133444.495000", "133445.985000", "133447.475000", "133448.965000", "133450.455000", "133451.945000", "133453.435000", "133454.925000", "133456.415000", "133457.905000", "133459.395000", "133500.885000", "133502.375000", "133503.865000", "133505.355000", "133506.845000", "133508.335000", "133509.825000", "133511.315000", "133512.805000", "133514.295000", "133515.785000", "133517.275000", "133518.765000", "133520.255000", "133521.745000", "133523.235000", "133524.725000", "133526.215000", "133527.705000", "133529.195000", "133530.685000", "133532.175000", "133533.665000", "133535.155000", "133536.645000", "133538.135000", "133539.625000", "133541.115000", "133542.605000", "133544.095000", "133545.585000", "133547.075000", "133548.565000", "133550.055000", "133551.545000", "133553.035000", "133554.525000", "133556.015000", "133557.505000", "133558.995000", "133600.485000", "133601.975000", "133603.465000", "133604.955000", "133606.445000", "133607.935000", "133609.425000", "133610.915000", "133612.405000", "133613.895000", "133615.385000", "133616.875000", "133618.365000", "133619.855000", "133621.345000", "133622.835000", "133624.325000", "133625.815000", "133627.305000", "133628.795000", "133630.285000", "133631.775000", "133633.265000", "133634.755000", "133636.245000", "133637.735000", "133639.225000", "133640.715000", "133642.205000", "133643.695000", "133645.185000", "133646.675000", "133648.165000", "133649.655000", "133651.145000", "133652.635000", "133654.125000", "133655.615000", "133657.105000", "133658.595000", "133700.085000", "133701.575000", "133703.065000", "133704.555000", "133706.045000", "133707.535000", "133709.025000", "133710.515000", "133712.005000", "133713.495000", "133714.985000", "133716.475000", "133717.965000", "133719.455000", "133720.945000", "133722.435000", "133723.925000", "133725.415000", "133726.905000", "133728.395000", "133729.885000", "133731.375000", "133732.865000", "133734.355000", "133735.845000", "133737.335000", "133738.825000", "133740.315000", "133741.805000", "133743.295000", "133744.785000", "133746.275000", "133747.765000", "133749.255000", "133750.745000", "133752.235000", "133753.725000", "133755.215000", "133756.705000", "133758.195000", "133759.685000", "133801.175000", "133802.665000", "133804.155000", "133805.645000", "133807.135000", "133808.625000", "133810.115000", "133811.605000", "133813.095000", "133814.585000", "133816.075000", "133817.565000", "133819.055000", "133820.545000", "133822.035000", "133823.525000", "133825.015000", "133826.505000", "133827.995000", "133829.485000", "133830.975000", "133832.465000", "133833.955000", "133835.445000", "133836.935000", "133838.425000", "133839.915000", "133841.405000", "133842.895000", "133844.385000", "133845.875000", "133847.365000", "133848.855000", "133850.345000", "133851.835000", "133853.325000", "133854.815000", "133856.305000", "133857.795000", "133859.285000", "133900.775000", "133902.265000", "133903.755000", "133905.245000", "133906.735000", "133908.225000", "133909.715000", "133911.205000", "133912.695000", "133914.185000", "133915.675000", "133917.165000"],
      "ContentTime": ["132847.909000", "132847.912000", "132847.915000", "132847.918000", "132847.921000", "132847.924000", "132847.927000", "132847.929000", "132847.932000", "132847.935000", "132847.938000", "132847.941000", "132847.944000", "132847.947000", "132847.957000", "132847.960000", "132847.963000", "132847.966000", "132847.968000", "132847.971000", "132847.974000", "132847.977000", "132847.980000", "132847.983000", "132847.985000", "132847.994000", "132847.997000", "132848.000000", "132848.002000", "132848.005000", "132848.008000", "132848.011000", "132848.014000", "132848.022000", "132848.024000", "132907.877000", "132907.880000", "132907.883000", "132907.885000", "132907.888000", "132907.891000", "132907.894000", "132907.897000", "132907.899000", "132907.902000", "132907.905000", "132907.908000", "132907.910000", "132907.913000", "132907.916000", "132907.919000", "132907.922000", "132907.924000", "132907.927000", "132907.930000", "132907.933000", "132927.877000", "132927.880000", "132927.882000", "132927.885000", "132927.888000", "132927.891000", "132927.894000", "132927.896000", "132927.899000", "132927.902000", "132927.905000", "132927.908000", "132927.910000", "132927.913000", "132927.916000", "132927.919000", "132927.922000", "132927.924000", "132927.927000", "132927.930000", "132947.877000", "132947.909000", "132947.915000", "132947.918000", "132947.921000", "132947.924000", "132947.926000", "132947.929000", "132947.932000", "132947.950000", "132947.953000", "132947.956000", "132947.959000", "132947.962000", "132947.964000", "132947.967000", "132947.970000", "132947.973000", "132947.976000", "132947.978000", "133027.876000", "133027.879000", "133027.882000", "133027.884000", "133027.887000", "133027.890000", "133027.893000", "133027.896000", "133027.898000", "133027.901000", "133027.904000", "133027.907000", "133027.910000", "133027.913000", "133027.915000", "133027.918000", "133027.921000", "133027.924000", "133027.926000", "133027.929000", "133027.932000", "133027.935000", "133027.938000", "133027.940000", "133027.943000", "133027.946000", "133027.949000", "133027.952000", "133027.954000", "133027.957000", "133107.877000", "133107.880000", "133107.883000", "133107.885000", "133107.888000", "133107.891000", "133107.894000", "133107.897000", "133107.899000", "133107.902000", "133107.905000", "133107.908000", "133107.911000", "133107.913000", "133107.916000", "133107.919000", "133107.922000", "133107.925000", "133107.927000", "133107.930000", "133107.933000", "133107.936000", "133107.939000", "133107.941000", "133107.944000", "133107.947000", "133107.950000", "133147.877000", "133147.880000", "133147.883000", "133147.885000", "133147.888000", "133147.891000", "133147.894000", "133147.897000", "133147.899000", "133147.902000", "133147.905000", "133147.908000", "133147.911000", "133147.913000", "133147.916000", "133147.919000", "133147.922000", "133147.925000", "133147.927000", "133147.930000", "133147.933000", "133147.936000", "133147.939000", "133147.941000", "133147.944000", "133147.947000", "133147.950000", "133207.876000", "133207.879000", "133207.882000", "133207.885000", "133207.888000", "133207.891000", "133207.894000", "133207.896000", "133207.899000", "133207.902000", "133207.905000", "133207.908000", "133207.910000", "133247.876000", "133247.879000", "133247.882000", "133247.884000", "133247.887000", "133247.890000", "133247.893000", "133247.896000", "133247.898000", "133247.901000", "133247.904000", "133247.907000", "133247.910000", "133247.912000", "133247.922000", "133247.925000", "133247.928000", "133247.930000", "133247.933000", "133247.936000", "133247.939000", "133247.942000", "133247.945000", "133247.948000", "133247.950000", "133247.953000", "133247.956000", "133327.877000", "133327.880000", "133327.883000", "133327.885000", "133327.888000", "133327.891000", "133327.894000", "133327.903000", "133327.906000", "133327.909000", "133327.912000", "133327.915000", "133327.917000", "133327.920000", "133327.923000", "133327.926000", "133327.929000", "133327.931000", "133327.934000", "133327.937000", "133327.940000", "133327.943000", "133327.945000", "133327.948000", "133327.951000", "133327.954000", "133327.957000", "133407.877000", "133407.880000", "133407.883000", "133407.892000", "133407.894000", "133407.897000", "133407.900000", "133407.903000", "133407.906000", "133407.909000", "133407.912000", "133407.915000", "133407.918000", "133407.921000", "133407.924000", "133407.927000", "133407.930000", "133407.932000", "133407.935000", "133407.938000", "133407.941000", "133407.944000", "133407.947000", "133407.949000", "133407.952000", "133407.955000", "133407.958000", "133447.876000", "133447.879000", "133447.882000", "133447.885000", "133447.887000", "133447.890000", "133447.893000", "133447.896000", "133447.899000", "133447.901000", "133447.904000", "133447.907000", "133447.910000", "133447.913000", "133447.915000", "133447.918000", "133447.921000", "133447.924000", "133447.927000", "133447.931000", "133447.934000", "133447.937000", "133447.939000", "133447.942000", "133447.945000", "133447.948000", "133527.876000", "133527.879000", "133527.882000", "133527.884000", "133527.887000", "133527.890000", "133527.893000", "133527.896000", "133527.898000", "133527.901000", "133527.904000", "133527.907000", "133527.910000", "133527.912000", "133527.915000", "133527.918000", "133527.921000", "133527.924000", "133527.926000", "133527.929000", "133527.932000", "133527.935000", "133527.938000", "133527.940000", "133527.943000", "133527.946000", "133527.949000", "133607.877000", "133607.880000", "133607.883000", "133607.885000", "133607.888000", "133607.891000", "133607.894000", "133607.897000", "133607.899000", "133607.902000", "133607.905000", "133607.908000", "133607.911000", "133607.913000", "133607.916000", "133607.919000", "133607.922000", "133607.925000", "133607.927000", "133607.930000", "133607.933000", "133607.936000", "133607.939000", "133607.942000", "133607.945000", "133607.948000", "133607.951000", "133647.876000", "133647.879000", "133647.882000", "133647.884000", "133647.887000", "133647.890000", "133647.893000", "133647.896000", "133647.899000", "133647.901000", "133647.904000", "133647.907000", "133647.910000", "133647.913000", "133647.915000", "133647.918000", "133647.921000", "133647.924000", "133647.927000", "133647.930000", "133647.933000", "133647.935000", "133647.938000", "133647.941000", "133647.944000", "133647.947000", "133647.949000", "133727.876000", "133727.879000", "133727.885000", "133727.888000", "133727.891000", "133727.894000", "133727.897000", "133727.900000", "133727.903000", "133727.905000", "133727.908000", "133727.911000", "133727.914000", "133727.917000", "133727.920000", "133727.922000", "133727.925000", "133727.928000", "133727.939000", "133727.942000", "133727.945000", "133727.948000", "133727.950000", "133727.953000", "133727.956000", "133727.959000", "133727.962000", "133807.877000", "133807.880000", "133807.883000", "133807.886000", "133807.888000", "133807.891000", "133807.894000", "133807.915000", "133807.918000", "133807.921000", "133807.923000", "133807.926000", "133807.929000", "133807.932000", "133807.935000", "133807.937000", "133807.940000", "133807.943000", "133807.946000", "133807.949000", "133807.951000", "133807.954000", "133807.957000", "133807.960000", "133807.963000", "133807.966000", "133807.968000", "133847.877000", "133847.880000", "133847.883000", "133847.885000", "133847.888000", "133847.891000", "133847.894000", "133847.897000", "133847.900000", "133847.902000", "133847.905000", "133847.908000", "133847.911000", "133847.923000", "133847.926000", "133847.929000", "133847.932000", "133847.935000", "133847.938000", "133847.941000", "133847.943000", "133847.947000", "133847.950000", "133847.953000", "133847.956000", "133847.959000", "133919.306000", "133919.310000", "133919.312000", "133919.315000", "133919.318000", "133919.321000", "133919.324000", "133919.328000", "133919.331000", "133919.334000", "133919.336000", "133919.339000", "133919.342000", "133919.345000", "133919.348000", "133919.361000", "133919.364000", "133919.366000", "133919.369000", "133919.372000", "133919.375000", "133919.378000"],
