{
  "AcquisitionMatrixPE": 104,
  "AcquisitionNumber": 1,
  "AcquisitionTime": "13:52:19.980000",
  "BandwidthPerPixelPhaseEncode": 17.17,
  "BaseResolution": 104,
  "BodyPartExamined": "BRAIN",
  "CoilString": "HC1-7;NC1_2",
  "ConsistencyInfo": "N4_VE11C_LATEST_20160120",
  "ConversionSoftware": "dcm2niix",
  "ConversionSoftwareVersion": "v1.0.20190720  (JP2:OpenJPEG) GCC7.3.0",
  "DerivedVendorReportedEchoSpacing": 0.000560011,
  "DeviceSerialNumber": "167006",
  "DwellTime": 2.1e-06,
  "EchoTime": 0.037,
  "EchoTrainLength": 104,
  "EffectiveEchoSpacing": 0.000560011,
  "FlipAngle": 52,
  "ImageComments": "Unaliased_MB4_PE3_LB",
  "ImageOrientationPatientDICOM": [0.999884, -0.0011959, 0.0151733, 0.00890039, 0.854633, -0.519157],
  "ImageType": [
    "ORIGINAL",
    "PRIMARY",
    "M",
    "MB",
    "ND",
    "MOSAIC"
],
  "ImagingFrequency": 123.259,
  "InPlanePhaseEncodingDirectionDICOM": "COL",
  "InstitutionAddress": "Chemin_Queen-Mary_4565_Montreal_District_CA_H3W_1W5",
  "InstitutionName": "IUGM",
  "InstitutionalDepartmentName": "Department",
  "MRAcquisitionType": "2D",
  "MagneticFieldStrength": 3,
  "Manufacturer": "Siemens",
  "ManufacturersModelName": "Prisma_fit",
  "Modality": "MR",
  "MultibandAccelerationFactor": 4,
  "PartialFourier": 1,
  "PatientPosition": "HFS",
  "PercentPhaseFOV": 100,
  "PhaseEncodingDirection": "j",
  "PhaseEncodingSteps": 104,
  "PhaseResolution": 1,
  "PixelBandwidth": 2290,
  "ProcedureStepDescription": "video_friends",
  "ProtocolName": "func_task-friends-s01e18a",
  "PulseSequenceDetails": "%CustomerSeq%_cmrr_mbep2d_bold",
  "ReceiveCoilActiveElements": "HC1-7;NC1,2",
  "ReceiveCoilName": "HeadNeck_64",
  "ReconMatrixPE": 104,
  "RepetitionTime": 1.49,
  "SAR": 0.0343031,
  "ScanOptions": "FS",
  "ScanningSequence": "EP",
  "SequenceName": "epfid2d1_104",
  "SequenceVariant": "SK_SS",
  "SeriesDescription": "func_task-friends-s01e18a",
  "SeriesNumber": 15,
  "ShimSetting": [630, -7184, -8899, 406, -17, -197, 25, -13],
  "SliceThickness": 2,
  "SliceTiming": [0, 0.785, 0.1, 0.8825, 0.1975, 0.98, 0.295, 1.0775, 0.3925, 1.1775, 0.49, 1.275, 0.59, 1.3725, 0.6875, 0, 0.785, 0.1, 0.8825, 0.1975, 0.98, 0.295, 1.0775, 0.3925, 1.1775, 0.49, 1.275, 0.59, 1.3725, 0.6875, 0, 0.785, 0.1, 0.8825, 0.1975, 0.98, 0.295, 1.0775, 0.3925, 1.1775, 0.49, 1.275, 0.59, 1.3725, 0.6875, 0, 0.785, 0.1, 0.8825, 0.1975, 0.98, 0.295, 1.0775, 0.3925, 1.1775, 0.49, 1.275, 0.59, 1.3725, 0.6875],
  "SoftwareVersions": "syngo_MR_E11",
  "SpacingBetweenSlices": 2,
  "StationName": "MRC35049",
  "TaskName": "friends",
  "TotalReadoutTime": 0.0576811,
  "TxRefAmp": 248.05,
  "WipMemBlock": "6ce1b43d-b91d-45b3-ac10-05e66cc9dde8||Sequence: R016 ve11c/master r/e634e98; Dec 19 2017 11:00:25 by eja",
  "dcmmeta_affine": [
    [-1.9997683763504028, 0.017800772562623024, 0.024693423882126808, 101.57267761230469],
    [0.002391799120232463, 1.7092655897140503, -1.0384629964828491, -57.658905029296875],
    [0.03034653142094612, 1.0383131504058838, 1.709088921546936, -114.56035614013672],
    [0.0, 0.0, 0.0, 1.0]
],
  "dcmmeta_reorient_transform": [
    [0.0, -1.0, 0.0, 103.0],
    [1.0, 0.0, 0.0, 0.0],
    [0.0, 0.0, 1.0, 0.0],
    [0.0, 0.0, 0.0, 1.0]
],
  "dcmmeta_shape": [104, 104, 60, 497],
  "dcmmeta_slice_dim": 2,
  "dcmmeta_version": 0.6,
  "global": {
    "const": {
      "AcquisitionMatrix": [104, 0, 0, 104],
      "AngioFlag": "N",
      "BitsAllocated": 16,
      "BitsStored": 16,
      "BodyPartExamined": "BRAIN",
      "Columns": 832,
      "EchoNumbers": 1,
      "EchoTime": 37.0,
      "EchoTrainLength": 104,
      "FlipAngle": 52.0,
      "HighBit": 15,
      "ImageOrientationPatient": [0.99988416420741, -0.0011958995305, 0.01517326568529, 0.0089003865914, 0.85463280674669, -0.5191565744078],
      "ImagePositionPatient": [-837.80130915467, -739.69752255096, 359.28574676823],
      "ImageType": [
        "ORIGINAL",
        "PRIMARY",
        "M",
        "MB",
        "ND",
        "MOSAIC"
],
      "ImagedNucleus": "1H",
      "ImagingFrequency": 123.259457,
      "InPlanePhaseEncodingDirection": "COL",
      "MRAcquisitionType": "2D",
      "MagneticFieldStrength": 3.0,
      "Manufacturer": "SIEMENS",
      "ManufacturerModelName": "Prisma_fit",
      "Modality": "MR",
      "NumberOfAverages": 1.0,
      "NumberOfPhaseEncodingSteps": 104,
      "PercentPhaseFieldOfView": 100.0,
      "PercentSampling": 100.0,
      "PerformedProcedureStepStartTime": "130615.875000",
      "PhotometricInterpretation": "MONOCHROME2",
      "PixelBandwidth": 2290.0,
      "PixelRepresentation": 0,
      "PixelSpacing": [2.0, 2.0],
      "ProtocolName": "func_task-friends-s01e18a",
      "RepetitionTime": 1490.0,
      "Rows": 832,
      "SAR": 0.03430306768427,
      "SamplesPerPixel": 1,
      "ScanOptions": "FS",
      "ScanningSequence": "EP",
      "SequenceName": "epfid2d1_104",
      "SequenceVariant": [
        "SK",
        "SS"
],
      "SeriesDescription": "func_task-friends-s01e18a",
      "SeriesNumber": 15,
      "SeriesTime": "135353.435000",
      "SliceLocation": -66.704510135246,
      "SliceThickness": 2.0,
      "SmallestImagePixelValue": 0,
      "SoftwareVersions": "syngo MR E11",
      "SpacingBetweenSlices": 2.0000000008197,
      "SpecificCharacterSet": "ISO_IR 100",
      "StudyID": "1",
      "StudyTime": "130615.734000",
      "TransmitCoilName": "Body",
      "VariableFlipAngleFlag": "N",
      "WindowCenterWidthExplanation": "Algo1",
      "dBdt": 0.0},
    "slices": {}
  },
  "time": {
    "samples": {
      "AcquisitionNumber": [1, 2, 3, 4, 5, 6, 7, 8, 9, 10, 11, 12, 13, 14, 15, 16, 17, 18, 19, 20, 21, 22, 23, 24, 25, 26, 27, 28, 29, 30, 31, 32, 33, 34, 35, 36, 37, 38, 39, 40, 41, 42, 43, 44, 45, 46, 47, 48, 49, 50, 51, 52, 53, 54, 55, 56, 57, 58, 59, 60, 61, 62, 63, 64, 65, 66, 67, 68, 69, 70, 71, 72, 73, 74, 75, 76, 77, 78, 79, 80, 81, 82, 83, 84, 85, 86, 87, 88, 89, 90, 91, 92, 93, 94, 95, 96, 97, 98, 99, 100, 101, 102, 103, 104, 105, 106, 107, 108, 109, 110, 111, 112, 113, 114, 115, 116, 117, 118, 119, 120, 121, 122, 123, 124, 125, 126, 127, 128, 129, 130, 131, 132, 133, 134, 135, 136, 137, 138, 139, 140, 141, 142, 143, 144, 145, 146, 147, 148, 149, 150, 151, 152, 153, 154, 155, 156, 157, 158, 159, 160, 161, 162, 163, 164, 165, 166, 167, 168, 169, 170, 171, 172, 173, 174, 175, 176, 177, 178, 179, 180, 181, 182, 183, 184, 185, 186, 187, 188, 189, 190, 191, 192, 193, 194, 195, 196, 197, 198, 199, 200, 201, 202, 203, 204, 205, 206, 207, 208, 209, 210, 211, 212, 213, 214, 215, 216, 217, 218, 219, 220, 221, 222, 223, 224, 225, 226, 227, 228, 229, 230, 231, 232, 233, 234, 235, 236, 237, 238, 239, 240, 241, 242, 243, 244, 245, 246, 247, 248, 249, 250, 251, 252, 253, 254, 255, 256, 257, 258, 259, 260, 261, 262, 263, 264, 265, 266, 267, 268, 269, 270, 271, 272, 273, 274, 275, 276, 277, 278, 279, 280, 281, 282, 283, 284, 285, 286, 287, 288, 289, 290, 291, 292, 293, 294, 295, 296, 297, 298, 299, 300, 301, 302, 303, 304, 305, 306, 307, 308, 309, 310, 311, 312, 313, 314, 315, 316, 317, 318, 319, 320, 321, 322, 323, 324, 325, 326, 327, 328, 329, 330, 331, 332, 333, 334, 335, 336, 337, 338, 339, 340, 341, 342, 343, 344, 345, 346, 347, 348, 349, 350, 351, 352, 353, 354, 355, 356, 357, 358, 359, 360, 361, 362, 363, 364, 365, 366, 367, 368, 369, 370, 371, 372, 373, 374, 375, 376, 377, 378, 379, 380, 381, 382, 383, 384, 385, 386, 387, 388, 389, 390, 391, 392, 393, 394, 395, 396, 397, 398, 399, 400, 401, 402, 403, 404, 405, 406, 407, 408, 409, 410, 411, 412, 413, 414, 415, 416, 417, 418, 419, 420, 421, 422, 423, 424, 425, 426, 427, 428, 429, 430, 431, 432, 433, 434, 435, 436, 437, 438, 439, 440, 441, 442, 443, 444, 445, 446, 447, 448, 449, 450, 451, 452, 453, 454, 455, 456, 457, 458, 459, 460, 461, 462, 463, 464, 465, 466, 467, 468, 469, 470, 471, 472, 473, 474, 475, 476, 477, 478, 479, 480, 481, 482, 483, 484, 485, 486, 487, 488, 489, 490, 491, 492, 493, 494, 495, 496, 497],
      "AcquisitionTime": ["135219.980000", "135221.470000", "135222.960000", "135224.450000", "135225.940000", "135227.430000", "135228.920000", "135230.410000", "135231.900000", "135233.390000", "135234.880000", "135236.370000", "135237.860000", "135239.350000", "135240.840000", "135242.330000", "135243.820000", "135245.310000", "135246.800000", "135248.290000", "135249.780000", "135251.270000", "135252.760000", "135254.250000", "135255.740000", "135257.230000", "135258.720000", "135300.210000", "135301.700000", "135303.190000", "135304.680000", "135306.170000", "135307.660000", "135309.150000", "135310.640000", "135312.130000", "135313.620000", "135315.110000", "135316.600000", "135318.090000", "135319.580000", "135321.070000", "135322.560000", "135324.050000", "135325.540000", "135327.030000", "135328.520000", "135330.010000", "135331.500000", "135332.990000", "135334.480000", "135335.970000", "135337.460000", "135338.950000", "135340.440000", "135341.930000", "135343.420000", "135344.910000", "135346.400000", "135347.890000", "135349.380000", "135350.870000", "135352.360000", "135353.850000", "135355.340000", "135356.830000", "135358.320000", "135359.810000", "135401.300000", "135402.790000", "135404.280000", "135405.770000", "135407.260000", "135408.750000", "135410.240000", "135411.730000", "135413.220000", "135414.710000", "135416.200000", "135417.690000", "135419.180000", "135420.670000", "135422.160000", "135423.650000", "135425.140000", "135426.630000", "135428.120000", "135429.610000", "135431.100000", "135432.590000", "135434.080000", "135435.570000", "135437.060000", "135438.550000", "135440.040000", "135441.530000", "135443.020000", "135444.510000", "135446.000000", "135447.490000", "135448.980000", "135450.470000", "135451.960000", "135453.450000", "135454.940000", "135456.430000", "135457.920000", "135459.410000", "135500.900000", "135502.390000", "135503.880000", "135505.370000", "135506.860000", "135508.350000", "135509.840000", "135511.330000", "135512.820000", "135514.310000", "135515.800000", "135517.290000", "135518.780000", "135520.270000", "135521.760000", "135523.250000", "135524.740000", "135526.230000", "135527.720000", "135529.210000", "135530.700000", "135532.190000", "135533.680000", "135535.170000", "135536.660000", "135538.150000", "135539.640000", "135541.130000", "135542.620000", "135544.110000", "135545.600000", "135547.090000", "135548.580000", "135550.070000", "135551.560000", "135553.050000", "135554.540000", "135556.030000", "135557.520000", "135559.010000", "135600.500000", "135601.990000", "135603.480000", "135604.970000", "135606.460000", "135607.950000", "135609.440000", "135610.930000", "135612.420000", "135613.910000", "135615.400000", "135616.890000", "135618.380000", "135619.870000", "135621.360000", "135622.850000", "135624.340000", "135625.830000", "135627.320000", "135628.810000", "135630.300000", "135631.790000", "135633.280000", "135634.770000", "135636.260000", "135637.750000", "135639.240000", "135640.730000", "135642.220000", "135643.710000", "135645.200000", "135646.690000", "135648.180000", "135649.670000", "135651.160000", "135652.650000", "135654.140000", "135655.630000", "135657.120000", "135658.610000", "135700.100000", "135701.590000", "135703.080000", "135704.570000", "135706.060000", "135707.550000", "135709.040000", "135710.530000", "135712.020000", "135713.510000", "135715.000000", "135716.490000", "135717.980000", "135719.470000", "135720.960000", "135722.450000", "135723.940000", "135725.430000", "135726.920000", "135728.410000", "135729.900000", "135731.390000", "135732.880000", "135734.370000", "135735.860000", "135737.350000", "135738.840000", "135740.330000", "135741.820000", "135743.310000", "135744.800000", "135746.290000", "135747.780000", "135749.270000", "135750.760000", "135752.250000", "135753.740000", "135755.230000", "135756.720000", "135758.210000", "135759.700000", "135801.190000", "135802.680000", "135804.170000", "135805.660000", "135807.150000", "135808.640000", "135810.130000", "135811.620000", "135813.110000", "135814.600000", "135816.090000", "135817.580000", "135819.070000", "135820.560000", "135822.050000", "135823.540000", "135825.030000", "135826.520000", "135828.010000", "135829.500000", "135830.990000", "135832.480000", "135833.970000", "135835.460000", "135836.950000", "135838.440000", "135839.930000", "135841.420000", "135842.910000", "135844.400000", "135845.890000", "135847.380000", "135848.870000", "135850.360000", "135851.850000", "135853.340000", "135854.830000", "135856.320000", "135857.810000", "135859.300000", "135900.790000", "135902.280000", "135903.770000", "135905.260000", "135906.750000", "135908.240000", "135909.730000", "135911.220000", "135912.710000", "135914.200000", "135915.690000", "135917.180000", "135918.670000", "135920.160000", "135921.650000", "135923.140000", "135924.630000", "135926.120000", "135927.610000", "135929.100000", "135930.590000", "135932.080000", "135933.570000", "135935.060000", "135936.550000", "135938.040000", "135939.530000", "135941.020000", "135942.510000", "135944.000000", "135945.490000", "135946.980000", "135948.470000", "135949.960000", "135951.450000", "135952.940000", "135954.430000", "135955.920000", "135957.410000", "135958.900000", "140000.390000", "140001.880000", "140003.370000", "140004.860000", "140006.350000", "140007.840000", "140009.330000", "140010.820000", "140012.310000", "140013.800000", "140015.290000", "140016.780000", "140018.270000", "140019.760000", "140021.250000", "140022.740000", "140024.230000", "140025.720000", "140027.210000", "140028.700000", "140030.190000", "140031.680000", "140033.170000", "140034.660000", "140036.150000", "140037.640000", "140039.130000", "140040.620000", "140042.110000", "140043.600000", "140045.090000", "140046.580000", "140048.070000", "140049.560000", "140051.050000", "140052.540000", "140054.030000", "140055.520000", "140057.010000", "140058.500000", "140059.990000", "140101.480000", "140102.970000", "140104.460000", "140105.950000", "140107.440000", "140108.930000", "140110.420000", "140111.910000", "140113.400000", "140114.890000", "140116.380000", "140117.870000", "140119.360000", "140120.850000", "140122.340000", "140123.830000", "140125.320000", "140126.810000", "140128.300000", "140129.790000", "140131.280000", "140132.770000", "140134.260000", "140135.750000", "140137.240000", "140138.730000", "140140.220000", "140141.710000", "140143.200000", "140144.690000", "140146.180000", "140147.670000", "140149.160000", "140150.650000", "140152.140000", "140153.630000", "140155.120000", "140156.610000", "140158.100000", "140159.590000", "140201.080000", "140202.570000", "140204.060000", "140205.550000", "140207.040000", "140208.530000", "140210.020000", "140211.510000", "140213.000000", "140214.490000", "140215.980000", "140217.470000", "140218.960000", "140220.450000", "140221.940000", "140223.430000", "140224.920000", "140226.410000", "140227.900000", "140229.390000", "140230.880000", "140232.370000", "140233.860000", "140235.350000", "140236.840000", "140238.330000", "140239.820000", "140241.310000", "140242.800000", "140244.290000", "140245.780000", "140247.270000", "140248.760000", "140250.250000", "140251.740000", "140253.230000", "140254.720000", "140256.210000", "140257.700000", "140259.190000", "140300.680000", "140302.170000", "140303.660000", "140305.150000", "140306.640000", "140308.130000", "140309.620000", "140311.110000", "140312.600000", "140314.090000", "140315.580000", "140317.070000", "140318.560000", "140320.050000", "140321.540000", "140323.030000", "140324.520000", "140326.010000", "140327.500000", "140328.990000", "140330.480000", "140331.970000", "140333.460000", "140334.950000", "140336.440000", "140337.930000", "140339.420000", "140340.910000", "140342.400000", "140343.890000", "140345.380000", "140346.870000", "140348.360000", "140349.850000", "140351.340000", "140352.830000", "140354.320000", "140355.810000", "140357.300000", "140358.790000", "140400.280000", "140401.770000", "140403.260000", "140404.750000", "140406.240000", "140407.730000", "140409.220000", "140410.710000", "140412.200000", "140413.690000", "140415.180000", "140416.670000", "140418.160000", "140419.650000", "140421.140000", "140422.630000", "140424.120000", "140425.610000", "140427.100000", "140428.590000", "140430.080000", "140431.570000", "140433.060000", "140434.550000", "140436.040000", "140437.530000", "140439.020000"],
      "ContentTime": ["135353.437000", "135353.441000", "135353.444000", "135353.447000", "135353.450000", "135353.454000", "135353.457000", "135353.459000", "135353.462000", "135353.465000", "135353.468000", "135353.471000", "135353.474000", "135353.477000", "135353.489000", "135353.492000", "135353.495000", "135353.498000", "135353.501000", "135353.503000", "135353.506000", "135353.509000", "135353.512000", "135353.515000", "135353.517000", "135353.520000", "135353.523000", "135353.526000", "135353.529000", "135353.532000", "135353.535000", "135353.538000", "135353.541000", "135353.544000", "135353.546000", "135353.549000", "135353.552000", "135353.555000", "135353.558000", "135413.404000", "135413.407000", "135413.410000", "135413.412000", "135413.415000", "135413.418000", "135413.421000", "135413.423000", "135413.426000", "135413.429000", "135413.432000", "135413.439000", "135413.442000", "135413.445000", "135413.448000", "135413.451000", "135413.454000", "135413.456000", "135413.459000", "135413.462000", "135433.404000", "135433.416000", "135433.418000", "135433.422000", "135433.424000", "135433.427000", "135433.430000", "135433.433000", "135433.436000", "135433.439000", "135433.441000", "135433.444000", "135433.447000", "135433.450000", "135433.453000", "135433.455000", "135433.458000", "135433.461000", "135433.464000", "135433.467000", "135453.404000", "135453.407000", "135453.410000", "135453.413000", "135453.416000", "135453.419000", "135453.421000", "135453.424000", "135453.427000", "135453.430000", "135453.433000", "135453.436000", "135453.438000", "135453.441000", "135453.444000", "135453.447000", "135453.450000", "135453.453000", "135453.455000", "135453.458000", "135453.461000", "135533.404000", "135533.407000", "135533.410000", "135533.412000", "135533.415000", "135533.418000", "135533.421000", "135533.424000", "135533.426000", "135533.429000", "135533.432000", "135533.435000", "135533.438000", "135533.440000", "135533.443000", "135533.446000", "135533.449000", "135533.452000", "135533.454000", "135533.457000", "135533.460000", "135533.463000", "135533.466000", "135533.469000", "135533.471000", "135533.474000", "135533.477000", "135533.480000", "135533.483000", "135613.405000", "135613.408000", "135613.411000", "135613.414000", "135613.416000", "135613.419000", "135613.422000", "135613.425000", "135613.428000", "135613.430000", "135613.433000", "135613.436000", "135613.439000", "135613.442000", "135613.445000", "135613.448000", "135613.450000", "135613.453000", "135613.456000", "135613.459000", "135613.462000", "135613.464000", "135613.467000", "135613.470000", "135613.473000", "135613.476000", "135613.479000", "135653.404000", "135653.407000", "135653.410000", "135653.413000", "135653.415000", "135653.418000", "135653.421000", "135653.424000", "135653.427000", "135653.430000", "135653.433000", "135653.435000", "135653.438000", "135653.441000", "135653.444000", "135653.447000", "135653.450000", "135653.453000", "135653.455000", "135653.458000", "135653.461000", "135653.464000", "135653.467000", "135653.469000", "135653.472000", "135653.475000", "135733.412000", "135733.416000", "135733.419000", "135733.421000", "135733.424000", "135733.427000", "135733.430000", "135733.433000", "135733.435000", "135733.438000", "135733.441000", "135733.444000", "135733.447000", "135733.455000", "135733.458000", "135733.460000", "135733.463000", "135733.466000", "135733.469000", "135733.472000", "135733.475000", "135733.477000", "135733.480000", "135733.483000", "135733.486000", "135733.489000", "135733.492000", "135813.405000", "135813.408000", "135813.411000", "135813.414000", "135813.417000", "135813.419000", "135813.422000", "135813.425000", "135813.428000", "135813.431000", "135813.433000", "135813.436000", "135813.439000", "135813.442000", "135813.445000", "135813.448000", "135813.451000", "135813.453000", "135813.456000", "135813.459000", "135813.462000", "135813.465000", "135813.467000", "135813.470000", "135813.473000", "135813.476000", "135813.479000", "135853.404000", "135853.407000", "135853.410000", "135853.412000", "135853.415000", "135853.418000", "135853.421000", "135853.424000", "135853.427000", "135853.429000", "135853.432000", "135853.435000", "135853.438000", "135853.441000", "135853.444000", "135853.446000", "135853.449000", "135853.452000", "135853.455000", "135853.458000", "135853.461000", "135853.463000", "135853.466000", "135853.469000", "135853.472000", "135853.475000", "135853.478000", "135933.404000", "135933.407000", "135933.410000", "135933.412000", "135933.415000", "135933.418000", "135933.421000", "135933.424000", "135933.426000", "135933.429000", "135933.432000", "135933.435000", "135933.438000", "135933.441000", "135933.444000", "135933.447000", "135933.450000", "135933.453000", "135933.455000", "135933.458000", "135933.461000", "135933.464000", "135933.467000", "135933.469000", "135933.472000", "135933.475000", "135933.478000", "140013.404000", "140013.407000", "140013.410000", "140013.413000", "140013.415000", "140013.418000", "140013.421000", "140013.424000", "140013.427000", "140013.429000", "140013.432000", "140013.435000", "140013.438000", "140013.441000", "140013.444000", "140013.447000", "140013.449000", "140013.452000", "140013.455000", "140013.458000", "140013.461000", "140013.463000", "140013.466000", "140013.469000", "140013.472000", "140013.475000", "140013.478000", "140053.405000", "140053.408000", "140053.411000", "140053.414000", "140053.417000", "140053.425000", "140053.428000", "140053.431000", "140053.434000", "140053.437000", "140053.439000", "140053.442000", "140053.445000", "140053.448000", "140053.451000", "140053.454000", "140053.456000", "140053.459000", "140053.462000", "140053.465000", "140053.468000", "140053.470000", "140053.473000", "140053.476000", "140053.479000", "140053.482000", "140053.485000", "140133.404000", "140133.407000", "140133.410000", "140133.413000", "140133.415000", "140133.418000", "140133.421000", "140133.424000", "140133.427000", "140133.430000", "140133.433000", "140133.435000", "140133.438000", "140133.441000", "140133.444000", "140133.447000", "140133.449000", "140133.452000", "140133.455000", "140133.458000", "140133.461000", "140133.464000", "140133.467000", "140133.469000", "140133.472000", "140133.475000", "140213.404000", "140213.407000", "140213.410000", "140213.413000", "140213.416000", "140213.418000", "140213.421000", "140213.424000", "140213.427000", "140213.430000", "140213.433000", "140213.436000", "140213.438000", "140213.441000", "140213.444000", "140213.447000", "140213.450000", "140213.452000", "140213.455000", "140213.458000", "140213.461000", "140213.464000", "140213.466000", "140213.469000", "140213.472000", "140213.475000", "140213.478000", "140253.405000", "140253.408000", "140253.411000", "140253.414000", "140253.417000", "140253.420000", "140253.423000", "140253.426000", "140253.428000", "140253.431000", "140253.434000", "140253.437000", "140253.440000", "140253.443000", "140253.446000", "140253.448000", "140253.451000", "140253.454000", "140253.457000", "140253.460000", "140253.463000", "140253.465000", "140253.468000", "140253.471000", "140253.474000", "140253.477000", "140253.480000", "140333.404000", "140333.407000", "140333.410000", "140333.413000", "140333.415000", "140333.418000", "140333.421000", "140333.424000", "140333.427000", "140333.430000", "140333.433000", "140333.435000", "140333.438000", "140333.441000", "140333.444000", "140333.447000", "140333.450000", "140333.452000", "140333.455000", "140333.458000", "140333.461000", "140333.464000", "140333.467000", "140333.469000", "140333.472000", "140333.475000", "140333.478000", "140413.404000", "140413.407000", "140413.410000", "140413.413000", "140413.416000", "140413.418000", "140413.421000", "140413.424000", "140413.427000", "140413.430000", "140413.433000", "140413.435000", "140413.438000", "140413.441000", "140413.444000", "140413.447000", "140413.450000", "140413.453000", "140413.455000", "140413.458000", "140413.461000", "140413.464000", "140413.467000", "140413.470000", "140413.473000", "140413.475000", "140413.478000", "140441.399000", "140441.402000", "140441.405000", "140441.408000", "140441.411000", "140441.414000", "140441.417000", "140441.420000", "140441.423000", "140441.425000", "140441.428000", "140441.431000", "140441.434000", "140441.437000", "140441.440000", "140441.443000", "140441.445000", "140441.448000", "140441.451000"],
