{
  "AcquisitionMatrixPE": 104,
  "AcquisitionNumber": 1,
  "AcquisitionTime": "10:53:19.332500",
  "BandwidthPerPixelPhaseEncode": 17.17,
  "BaseResolution": 104,
  "BodyPartExamined": "BRAIN",
  "CoilString": "HC1-7;NC1_2",
  "ConsistencyInfo": "N4_VE11C_LATEST_20160120",
  "ConversionSoftware": "dcm2niix",
  "ConversionSoftwareVersion": "v1.0.20190902",
  "DerivedVendorReportedEchoSpacing": 0.000560011,
  "DeviceSerialNumber": "167006",
  "DwellTime": 2.1e-06,
  "EchoTime": 0.037,
  "EchoTrainLength": 104,
  "EffectiveEchoSpacing": 0.000560011,
  "FlipAngle": 52,
  "ImageComments": "Unaliased_MB4_PE3_LB",
  "ImageOrientationPatientDICOM": [0.998844, 0.0240199, 0.0416326, -0.00592731, 0.921121, -0.389231],
  "ImageType": [
    "ORIGINAL",
    "PRIMARY",
    "M",
    "MB",
    "ND",
    "MOSAIC"
],
  "ImagingFrequency": 123.259,
  "InPlanePhaseEncodingDirectionDICOM": "COL",
  "InstitutionAddress": "Chemin_Queen-Mary_4565_Montreal_District_CA_H3W_1W5",
  "InstitutionName": "IUGM",
  "InstitutionalDepartmentName": "Department",
  "MRAcquisitionType": "2D",
  "MagneticFieldStrength": 3,
  "Manufacturer": "Siemens",
  "ManufacturersModelName": "Prisma_fit",
  "Modality": "MR",
  "MultibandAccelerationFactor": 4,
  "PartialFourier": 1,
  "PatientPosition": "HFS",
  "PercentPhaseFOV": 100,
  "PhaseEncodingDirection": "j",
  "PhaseEncodingSteps": 104,
  "PhaseResolution": 1,
  "PixelBandwidth": 2290,
  "ProcedureStepDescription": "video_friends",
  "ProtocolName": "func_task-friends-s04e14a",
  "PulseSequenceDetails": "%CustomerSeq%_cmrr_mbep2d_bold",
  "ReceiveCoilActiveElements": "HC1-7;NC1,2",
  "ReceiveCoilName": "HeadNeck_64",
  "ReconMatrixPE": 104,
  "RepetitionTime": 1.49,
  "SAR": 0.0395179,
  "ScanOptions": "FS",
  "ScanningSequence": "EP",
  "SequenceName": "epfid2d1_104",
  "SequenceVariant": "SK_SS",
  "SeriesDescription": "func_task-friends-s04e14a",
  "SeriesNumber": 17,
  "ShimSetting": [653, -7181, -8854, 662, 119, 12, 25, 9],
  "SliceThickness": 2,
  "SliceTiming": [0, 0.7825, 0.0975, 0.88, 0.195, 0.98, 0.2925, 1.0775, 0.39, 1.175, 0.49, 1.2725, 0.5875, 1.37, 0.685, 0, 0.7825, 0.0975, 0.88, 0.195, 0.98, 0.2925, 1.0775, 0.39, 1.175, 0.49, 1.2725, 0.5875, 1.37, 0.685, 0, 0.7825, 0.0975, 0.88, 0.195, 0.98, 0.2925, 1.0775, 0.39, 1.175, 0.49, 1.2725, 0.5875, 1.37, 0.685, 0, 0.7825, 0.0975, 0.88, 0.195, 0.98, 0.2925, 1.0775, 0.39, 1.175, 0.49, 1.2725, 0.5875, 1.37, 0.685],
  "SoftwareVersions": "syngo_MR_E11",
  "SpacingBetweenSlices": 2,
  "StationName": "MRC35049",
  "TaskName": "s04e14a",
  "TotalReadoutTime": 0.0576811,
  "TxRefAmp": 248.534,
  "WipMemBlock": "2630d029-328f-43d4-ab76-010d9ea628bc||Sequence: R016 ve11c/master r/e634e98; Dec 19 2017 11:00:25 by eja",
  "dcmmeta_affine": [
    [-1.9976884126663208, -0.011854622513055801, 0.09539597481489182, 101.50398254394531],
    [-0.048039719462394714, 1.842241883277893, -0.7770695686340332, -63.876277923583984],
    [0.08326529711484909, 0.778462827205658, 1.8403973579406738, -77.11408233642578],
    [0.0, 0.0, 0.0, 1.0]
],
  "dcmmeta_reorient_transform": [
    [0.0, -1.0, 0.0, 103.0],
    [1.0, 0.0, 0.0, 0.0],
    [0.0, 0.0, 1.0, 0.0],
    [0.0, 0.0, 0.0, 1.0]
],
  "dcmmeta_shape": [104, 104, 60, 447],
  "dcmmeta_slice_dim": 2,
  "dcmmeta_version": 0.6,
  "global": {
    "const": {
      "AcquisitionMatrix": [104, 0, 0, 104],
      "AngioFlag": "N",
      "BitsAllocated": 16,
      "BitsStored": 16,
      "BodyPartExamined": "BRAIN",
      "Columns": 832,
      "EchoNumbers": 1,
      "EchoTime": 37.0,
      "EchoTrainLength": 104,
      "FlipAngle": 52.0,
      "HighBit": 15,
      "ImageOrientationPatient": [0.99884421656095, 0.02401985915198, 0.04163264835512, -0.0059273112293, 0.92112093351544, -0.3892314129425],
      "ImagePositionPatient": [-823.12646467362, -813.93712988625, 256.11949238819],
      "ImageType": [
        "ORIGINAL",
        "PRIMARY",
        "M",
        "MB",
        "ND",
        "MOSAIC"
],
      "ImagedNucleus": "1H",
      "ImagingFrequency": 123.259027,
      "InPlanePhaseEncodingDirection": "COL",
      "MRAcquisitionType": "2D",
      "MagneticFieldStrength": 3.0,
      "Manufacturer": "SIEMENS",
      "ManufacturerModelName": "Prisma_fit",
      "Modality": "MR",
      "NumberOfAverages": 1.0,
      "NumberOfPhaseEncodingSteps": 104,
      "PercentPhaseFieldOfView": 100.0,
      "PercentSampling": 100.0,
      "PerformedProcedureStepStartTime": "085950.480000",
      "PhotometricInterpretation": "MONOCHROME2",
      "PixelBandwidth": 2290.0,
      "PixelRepresentation": 0,
      "PixelSpacing": [2.0, 2.0],
      "ProtocolName": "func_task-friends-s04e14a",
      "RepetitionTime": 1490.0,
      "Rows": 832,
      "SAR": 0.0395179150274,
      "SamplesPerPixel": 1,
      "ScanOptions": "FS",
      "ScanningSequence": "EP",
      "SequenceName": "epfid2d1_104",
      "SequenceVariant": [
        "SK",
        "SS"
],
      "SeriesDescription": "func_task-friends-s04e14a",
      "SeriesNumber": 17,
      "SeriesTime": "105443.424000",
      "SliceLocation": -41.300583076558,
      "SliceThickness": 2.0,
      "SmallestImagePixelValue": 0,
      "SoftwareVersions": "syngo MR E11",
      "SpacingBetweenSlices": 1.9999999804517,
      "SpecificCharacterSet": "ISO_IR 100",
      "StudyID": "1",
      "StudyTime": "085950.346000",
      "TransmitCoilName": "Body",
      "VariableFlipAngleFlag": "N",
      "WindowCenterWidthExplanation": "Algo1",
      "dBdt": 0.0},
    "slices": {}
  },
  "time": {
    "samples": {
      "AcquisitionNumber": [1, 2, 3, 4, 5, 6, 7, 8, 9, 10, 11, 12, 13, 14, 15, 16, 17, 18, 19, 20, 21, 22, 23, 24, 25, 26, 27, 28, 29, 30, 31, 32, 33, 34, 35, 36, 37, 38, 39, 40, 41, 42, 43, 44, 45, 46, 47, 48, 49, 50, 51, 52, 53, 54, 55, 56, 57, 58, 59, 60, 61, 62, 63, 64, 65, 66, 67, 68, 69, 70, 71, 72, 73, 74, 75, 76, 77, 78, 79, 80, 81, 82, 83, 84, 85, 86, 87, 88, 89, 90, 91, 92, 93, 94, 95, 96, 97, 98, 99, 100, 101, 102, 103, 104, 105, 106, 107, 108, 109, 110, 111, 112, 113, 114, 115, 116, 117, 118, 119, 120, 121, 122, 123, 124, 125, 126, 127, 128, 129, 130, 131, 132, 133, 134, 135, 136, 137, 138, 139, 140, 141, 142, 143, 144, 145, 146, 147, 148, 149, 150, 151, 152, 153, 154, 155, 156, 157, 158, 159, 160, 161, 162, 163, 164, 165, 166, 167, 168, 169, 170, 171, 172, 173, 174, 175, 176, 177, 178, 179, 180, 181, 182, 183, 184, 185, 186, 187, 188, 189, 190, 191, 192, 193, 194, 195, 196, 197, 198, 199, 200, 201, 202, 203, 204, 205, 206, 207, 208, 209, 210, 211, 212, 213, 214, 215, 216, 217, 218, 219, 220, 221, 222, 223, 224, 225, 226, 227, 228, 229, 230, 231, 232, 233, 234, 235, 236, 237, 238, 239, 240, 241, 242, 243, 244, 245, 246, 247, 248, 249, 250, 251, 252, 253, 254, 255, 256, 257, 258, 259, 260, 261, 262, 263, 264, 265, 266, 267, 268, 269, 270, 271, 272, 273, 274, 275, 276, 277, 278, 279, 280, 281, 282, 283, 284, 285, 286, 287, 288, 289, 290, 291, 292, 293, 294, 295, 296, 297, 298, 299, 300, 301, 302, 303, 304, 305, 306, 307, 308, 309, 310, 311, 312, 313, 314, 315, 316, 317, 318, 319, 320, 321, 322, 323, 324, 325, 326, 327, 328, 329, 330, 331, 332, 333, 334, 335, 336, 337, 338, 339, 340, 341, 342, 343, 344, 345, 346, 347, 348, 349, 350, 351, 352, 353, 354, 355, 356, 357, 358, 359, 360, 361, 362, 363, 364, 365, 366, 367, 368, 369, 370, 371, 372, 373, 374, 375, 376, 377, 378, 379, 380, 381, 382, 383, 384, 385, 386, 387, 388, 389, 390, 391, 392, 393, 394, 395, 396, 397, 398, 399, 400, 401, 402, 403, 404, 405, 406, 407, 408, 409, 410, 411, 412, 413, 414, 415, 416, 417, 418, 419, 420, 421, 422, 423, 424, 425, 426, 427, 428, 429, 430, 431, 432, 433, 434, 435, 436, 437, 438, 439, 440, 441, 442, 443, 444, 445, 446, 447],
      "AcquisitionTime": ["105319.332500", "105320.822500", "105322.312500", "105323.802500", "105325.292500", "105326.782500", "105328.272500", "105329.762500", "105331.252500", "105332.742500", "105334.232500", "105335.722500", "105337.212500", "105338.702500", "105340.192500", "105341.682500", "105343.172500", "105344.662500", "105346.152500", "105347.642500", "105349.132500", "105350.622500", "105352.112500", "105353.602500", "105355.092500", "105356.582500", "105358.072500", "105359.562500", "105401.052500", "105402.542500", "105404.032500", "105405.522500", "105407.012500", "105408.502500", "105409.992500", "105411.482500", "105412.972500", "105414.462500", "105415.952500", "105417.442500", "105418.932500", "105420.422500", "105421.912500", "105423.402500", "105424.892500", "105426.382500", "105427.872500", "105429.362500", "105430.852500", "105432.342500", "105433.832500", "105435.322500", "105436.812500", "105438.302500", "105439.792500", "105441.282500", "105442.772500", "105444.262500", "105445.752500", "105447.242500", "105448.732500", "105450.222500", "105451.712500", "105453.202500", "105454.692500", "105456.182500", "105457.672500", "105459.162500", "105500.652500", "105502.142500", "105503.632500", "105505.122500", "105506.612500", "105508.102500", "105509.592500", "105511.082500", "105512.572500", "105514.062500", "105515.552500", "105517.042500", "105518.532500", "105520.022500", "105521.512500", "105523.002500", "105524.492500", "105525.982500", "105527.472500", "105528.962500", "105530.452500", "105531.942500", "105533.432500", "105534.922500", "105536.412500", "105537.902500", "105539.392500", "105540.882500", "105542.372500", "105543.862500", "105545.352500", "105546.842500", "105548.332500", "105549.822500", "105551.312500", "105552.802500", "105554.292500", "105555.782500", "105557.272500", "105558.762500", "105600.252500", "105601.742500", "105603.232500", "105604.722500", "105606.212500", "105607.702500", "105609.192500", "105610.682500", "105612.172500", "105613.662500", "105615.152500", "105616.642500", "105618.132500", "105619.622500", "105621.112500", "105622.602500", "105624.092500", "105625.582500", "105627.072500", "105628.562500", "105630.052500", "105631.542500", "105633.032500", "105634.522500", "105636.012500", "105637.502500", "105638.992500", "105640.482500", "105641.972500", "105643.462500", "105644.952500", "105646.442500", "105647.932500", "105649.422500", "105650.912500", "105652.402500", "105653.892500", "105655.382500", "105656.872500", "105658.362500", "105659.852500", "105701.342500", "105702.832500", "105704.322500", "105705.812500", "105707.302500", "105708.792500", "105710.282500", "105711.772500", "105713.262500", "105714.752500", "105716.242500", "105717.732500", "105719.222500", "105720.712500", "105722.202500", "105723.692500", "105725.182500", "105726.672500", "105728.162500", "105729.652500", "105731.142500", "105732.632500", "105734.122500", "105735.612500", "105737.102500", "105738.592500", "105740.082500", "105741.572500", "105743.062500", "105744.552500", "105746.042500", "105747.532500", "105749.022500", "105750.512500", "105752.002500", "105753.492500", "105754.982500", "105756.472500", "105757.962500", "105759.452500", "105800.942500", "105802.432500", "105803.922500", "105805.412500", "105806.902500", "105808.392500", "105809.882500", "105811.372500", "105812.862500", "105814.352500", "105815.842500", "105817.332500", "105818.822500", "105820.312500", "105821.802500", "105823.292500", "105824.782500", "105826.272500", "105827.762500", "105829.252500", "105830.742500", "105832.232500", "105833.722500", "105835.212500", "105836.702500", "105838.192500", "105839.682500", "105841.172500", "105842.662500", "105844.152500", "105845.642500", "105847.132500", "105848.622500", "105850.112500", "105851.602500", "105853.092500", "105854.582500", "105856.072500", "105857.562500", "105859.052500", "105900.542500", "105902.032500", "105903.522500", "105905.012500", "105906.502500", "105907.992500", "105909.482500", "105910.972500", "105912.462500", "105913.952500", "105915.442500", "105916.932500", "105918.422500", "105919.912500", "105921.402500", "105922.892500", "105924.382500", "105925.872500", "105927.362500", "105928.852500", "105930.342500", "105931.832500", "105933.322500", "105934.812500", "105936.302500", "105937.792500", "105939.282500", "105940.772500", "105942.262500", "105943.752500", "105945.242500", "105946.732500", "105948.222500", "105949.712500", "105951.202500", "105952.692500", "105954.182500", "105955.672500", "105957.162500", "105958.652500", "110000.142500", "110001.632500", "110003.122500", "110004.612500", "110006.102500", "110007.592500", "110009.082500", "110010.572500", "110012.062500", "110013.552500", "110015.042500", "110016.532500", "110018.022500", "110019.512500", "110021.002500", "110022.492500", "110023.982500", "110025.472500", "110026.962500", "110028.452500", "110029.942500", "110031.432500", "110032.922500", "110034.412500", "110035.902500", "110037.392500", "110038.882500", "110040.372500", "110041.862500", "110043.352500", "110044.842500", "110046.332500", "110047.822500", "110049.312500", "110050.802500", "110052.292500", "110053.782500", "110055.272500", "110056.762500", "110058.252500", "110059.742500", "110101.232500", "110102.722500", "110104.212500", "110105.702500", "110107.192500", "110108.682500", "110110.172500", "110111.662500", "110113.152500", "110114.642500", "110116.132500", "110117.622500", "110119.112500", "110120.602500", "110122.092500", "110123.582500", "110125.072500", "110126.562500", "110128.052500", "110129.542500", "110131.032500", "110132.522500", "110134.012500", "110135.502500", "110136.992500", "110138.482500", "110139.972500", "110141.462500", "110142.952500", "110144.442500", "110145.932500", "110147.422500", "110148.912500", "110150.402500", "110151.892500", "110153.382500", "110154.872500", "110156.362500", "110157.852500", "110159.342500", "110200.832500", "110202.322500", "110203.812500", "110205.302500", "110206.792500", "110208.282500", "110209.772500", "110211.262500", "110212.752500", "110214.242500", "110215.732500", "110217.222500", "110218.712500", "110220.202500", "110221.692500", "110223.182500", "110224.672500", "110226.162500", "110227.652500", "110229.142500", "110230.632500", "110232.122500", "110233.612500", "110235.102500", "110236.592500", "110238.082500", "110239.572500", "110241.062500", "110242.552500", "110244.042500", "110245.532500", "110247.022500", "110248.512500", "110250.002500", "110251.492500", "110252.982500", "110254.472500", "110255.962500", "110257.452500", "110258.942500", "110300.432500", "110301.922500", "110303.412500", "110304.902500", "110306.392500", "110307.882500", "110309.372500", "110310.862500", "110312.352500", "110313.842500", "110315.332500", "110316.822500", "110318.312500", "110319.802500", "110321.292500", "110322.782500", "110324.272500", "110325.762500", "110327.252500", "110328.742500", "110330.232500", "110331.722500", "110333.212500", "110334.702500", "110336.192500", "110337.682500", "110339.172500", "110340.662500", "110342.152500", "110343.642500", "110345.132500", "110346.622500", "110348.112500", "110349.602500", "110351.092500", "110352.582500", "110354.072500", "110355.562500", "110357.052500", "110358.542500", "110400.032500", "110401.522500", "110403.012500", "110404.502500", "110405.992500", "110407.482500", "110408.972500", "110410.462500", "110411.952500", "110413.442500", "110414.932500", "110416.422500", "110417.912500", "110419.402500", "110420.892500", "110422.382500", "110423.872500"],
      "ContentTime": ["105443.427000", "105443.439000", "105443.442000", "105443.445000", "105443.448000", "105443.451000", "105443.454000", "105443.456000", "105443.462000", "105443.465000", "105443.468000", "105443.471000", "105443.474000", "105443.477000", "105443.479000", "105443.487000", "105443.490000", "105443.493000", "105443.496000", "105443.498000", "105443.501000", "105443.504000", "105443.507000", "105443.510000", "105443.512000", "105443.515000", "105443.518000", "105443.521000", "105443.524000", "105443.527000", "105443.530000", "105443.533000", "105503.397000", "105503.404000", "105503.407000", "105503.410000", "105503.413000", "105503.416000", "105503.419000", "105503.421000", "105503.424000", "105503.427000", "105503.430000", "105503.433000", "105503.436000", "105503.438000", "105503.441000", "105503.444000", "105503.447000", "105503.450000", "105503.453000", "105503.456000", "105523.397000", "105523.400000", "105523.403000", "105523.406000", "105523.408000", "105523.411000", "105523.414000", "105523.431000", "105523.434000", "105523.437000", "105523.440000", "105523.443000", "105523.457000", "105523.460000", "105523.463000", "105523.465000", "105523.468000", "105523.471000", "105523.474000", "105523.477000", "105543.397000", "105543.400000", "105543.403000", "105543.405000", "105543.408000", "105543.411000", "105543.414000", "105543.417000", "105543.420000", "105543.422000", "105543.425000", "105543.428000", "105543.431000", "105543.434000", "105543.442000", "105543.445000", "105543.448000", "105543.451000", "105543.454000", "105543.456000", "105623.398000", "105623.401000", "105623.404000", "105623.407000", "105623.409000", "105623.412000", "105623.415000", "105623.418000", "105623.421000", "105623.424000", "105623.427000", "105623.429000", "105623.432000", "105623.435000", "105623.438000", "105623.441000", "105623.444000", "105623.446000", "105623.449000", "105623.452000", "105623.455000", "105623.458000", "105623.461000", "105623.463000", "105623.466000", "105623.469000", "105623.472000", "105623.475000", "105623.478000", "105623.481000", "105623.483000", "105703.398000", "105703.401000", "105703.404000", "105703.406000", "105703.409000", "105703.412000", "105703.415000", "105703.418000", "105703.421000", "105703.424000", "105703.427000", "105703.429000", "105703.432000", "105703.435000", "105703.438000", "105703.441000", "105703.444000", "105703.446000", "105703.449000", "105703.452000", "105703.455000", "105703.458000", "105703.461000", "105703.463000", "105703.466000", "105703.469000", "105703.472000", "105743.397000", "105743.400000", "105743.403000", "105743.406000", "105743.408000", "105743.411000", "105743.414000", "105743.417000", "105743.420000", "105743.423000", "105743.426000", "105743.428000", "105743.431000", "105743.434000", "105743.437000", "105743.440000", "105743.443000", "105743.446000", "105743.449000", "105743.453000", "105743.455000", "105743.458000", "105743.461000", "105743.464000", "105743.467000", "105743.470000", "105823.397000", "105823.400000", "105823.403000", "105823.406000", "105823.409000", "105823.411000", "105823.414000", "105823.417000", "105823.420000", "105823.423000", "105823.426000", "105823.428000", "105823.431000", "105823.434000", "105823.437000", "105823.440000", "105823.443000", "105823.445000", "105823.448000", "105823.451000", "105823.454000", "105823.457000", "105823.460000", "105823.463000", "105823.466000", "105823.468000", "105823.471000", "105903.398000", "105903.401000", "105903.404000", "105903.407000", "105903.410000", "105903.412000", "105903.415000", "105903.418000", "105903.421000", "105903.424000", "105903.427000", "105903.430000", "105903.432000", "105903.435000", "105903.438000", "105903.441000", "105903.444000", "105903.447000", "105903.450000", "105903.452000", "105903.455000", "105903.458000", "105903.470000", "105903.473000", "105903.476000", "105903.479000", "105903.482000", "105943.397000", "105943.400000", "105943.403000", "105943.406000", "105943.409000", "105943.412000", "105943.414000", "105943.417000", "105943.420000", "105943.423000", "105943.426000", "105943.429000", "105943.431000", "105943.434000", "105943.437000", "105943.440000", "105943.443000", "105943.446000", "105943.449000", "105943.451000", "105943.454000", "105943.457000", "105943.460000", "105943.463000", "105943.466000", "105943.468000", "105943.471000", "110023.397000", "110023.400000", "110023.403000", "110023.413000", "110023.416000", "110023.419000", "110023.421000", "110023.424000", "110023.427000", "110023.430000", "110023.433000", "110023.436000", "110023.439000", "110023.441000", "110023.444000", "110023.447000", "110023.450000", "110023.453000", "110023.456000", "110023.459000", "110023.461000", "110023.464000", "110023.467000", "110023.470000", "110023.473000", "110023.476000", "110023.479000", "110103.398000", "110103.401000", "110103.404000", "110103.407000", "110103.410000", "110103.412000", "110103.415000", "110103.418000", "110103.421000", "110103.424000", "110103.427000", "110103.430000", "110103.432000", "110103.435000", "110103.438000", "110103.441000", "110103.444000", "110103.447000", "110103.450000", "110103.452000", "110103.455000", "110103.458000", "110103.461000", "110103.464000", "110103.467000", "110103.469000", "110103.472000", "110143.397000", "110143.400000", "110143.403000", "110143.406000", "110143.409000", "110143.411000", "110143.414000", "110143.417000", "110143.420000", "110143.423000", "110143.426000", "110143.429000", "110143.432000", "110143.434000", "110143.437000", "110143.440000", "110143.443000", "110143.446000", "110143.449000", "110143.452000", "110143.455000", "110143.460000", "110143.464000", "110143.467000", "110143.471000", "110143.474000", "110223.397000", "110223.400000", "110223.403000", "110223.406000", "110223.408000", "110223.411000", "110223.414000", "110223.417000", "110223.420000", "110223.423000", "110223.426000", "110223.428000", "110223.431000", "110223.434000", "110223.437000", "110223.440000", "110223.443000", "110223.446000", "110223.449000", "110223.451000", "110223.454000", "110223.457000", "110223.460000", "110223.463000", "110223.466000", "110223.468000", "110223.471000", "110303.397000", "110303.400000", "110303.403000", "110303.406000", "110303.409000", "110303.412000", "110303.414000", "110303.417000", "110303.420000", "110303.430000", "110303.432000", "110303.435000", "110303.438000", "110303.441000", "110303.444000", "110303.447000", "110303.449000", "110303.452000", "110303.455000", "110303.458000", "110303.461000", "110303.464000", "110303.467000", "110303.469000", "110303.472000", "110303.475000", "110303.478000", "110343.398000", "110343.401000", "110343.404000", "110343.407000", "110343.410000", "110343.412000", "110343.415000", "110343.418000", "110343.421000", "110343.424000", "110343.427000", "110343.430000", "110343.433000", "110343.435000", "110343.438000", "110343.441000", "110343.444000", "110343.447000", "110343.450000", "110343.452000", "110343.455000", "110343.458000", "110343.461000", "110343.464000", "110343.467000", "110343.469000", "110343.472000", "110423.397000", "110423.400000", "110423.403000", "110423.406000", "110423.409000", "110423.412000", "110423.414000", "110423.417000", "110423.420000", "110423.423000", "110423.426000", "110423.429000", "110423.431000", "110423.434000", "110423.437000", "110423.440000", "110423.443000", "110423.446000", "110423.460000", "110423.463000", "110423.466000", "110423.469000", "110423.472000", "110423.475000", "110423.478000", "110423.481000", "110423.494000", "110425.928000", "110425.932000"],
