{
  "AcquisitionMatrixPE": 104,
  "AcquisitionNumber": 1,
  "AcquisitionTime": "10:16:41.597500",
  "BandwidthPerPixelPhaseEncode": 17.17,
  "BaseResolution": 104,
  "BodyPartExamined": "BRAIN",
  "CoilString": "HC1-7;NC1_2",
  "ConsistencyInfo": "N4_VE11C_LATEST_20160120",
  "ConversionSoftware": "dcm2niix",
  "ConversionSoftwareVersion": "v1.0.20190902",
  "DerivedVendorReportedEchoSpacing": 0.000560011,
  "DeviceSerialNumber": "167006",
  "DwellTime": 2.1e-06,
  "EchoTime": 0.037,
  "EchoTrainLength": 104,
  "EffectiveEchoSpacing": 0.000560011,
  "FlipAngle": 52,
  "ImageComments": "Unaliased_MB4_PE3_LB",
  "ImageOrientationPatientDICOM": [0.998844, 0.0240199, 0.0416326, -0.00592731, 0.921121, -0.389231],
  "ImageType": [
    "ORIGINAL",
    "PRIMARY",
    "M",
    "MB",
    "ND",
    "MOSAIC"
],
  "ImagingFrequency": 123.259,
  "InPlanePhaseEncodingDirectionDICOM": "COL",
  "InstitutionAddress": "Chemin_Queen-Mary_4565_Montreal_District_CA_H3W_1W5",
  "InstitutionName": "IUGM",
  "InstitutionalDepartmentName": "Department",
  "MRAcquisitionType": "2D",
  "MagneticFieldStrength": 3,
  "Manufacturer": "Siemens",
  "ManufacturersModelName": "Prisma_fit",
  "Modality": "MR",
  "MultibandAccelerationFactor": 4,
  "PartialFourier": 1,
  "PatientPosition": "HFS",
  "PercentPhaseFOV": 100,
  "PhaseEncodingDirection": "j",
  "PhaseEncodingSteps": 104,
  "PhaseResolution": 1,
  "PixelBandwidth": 2290,
  "ProcedureStepDescription": "video_friends",
  "ProtocolName": "func_task-friends-s04e12b",
  "PulseSequenceDetails": "%CustomerSeq%_cmrr_mbep2d_bold",
  "ReceiveCoilActiveElements": "HC1-7;NC1,2",
  "ReceiveCoilName": "HeadNeck_64",
  "ReconMatrixPE": 104,
  "RepetitionTime": 1.49,
  "SAR": 0.039525,
  "ScanOptions": "FS",
  "ScanningSequence": "EP",
  "SequenceName": "epfid2d1_104",
  "SequenceVariant": "SK_SS",
  "SeriesDescription": "func_task-friends-s04e12b",
  "SeriesNumber": 11,
  "ShimSetting": [653, -7181, -8854, 662, 119, 12, 25, 9],
  "SliceThickness": 2,
  "SliceTiming": [0, 0.785, 0.0975, 0.8825, 0.1975, 0.98, 0.295, 1.0775, 0.3925, 1.1775, 0.49, 1.275, 0.5875, 1.3725, 0.6875, 0, 0.785, 0.0975, 0.8825, 0.1975, 0.98, 0.295, 1.0775, 0.3925, 1.1775, 0.49, 1.275, 0.5875, 1.3725, 0.6875, 0, 0.785, 0.0975, 0.8825, 0.1975, 0.98, 0.295, 1.0775, 0.3925, 1.1775, 0.49, 1.275, 0.5875, 1.3725, 0.6875, 0, 0.785, 0.0975, 0.8825, 0.1975, 0.98, 0.295, 1.0775, 0.3925, 1.1775, 0.49, 1.275, 0.5875, 1.3725, 0.6875],
  "SoftwareVersions": "syngo_MR_E11",
  "SpacingBetweenSlices": 2,
  "StationName": "MRC35049",
  "TaskName": "s04e12b",
  "TotalReadoutTime": 0.0576811,
  "TxRefAmp": 248.534,
  "WipMemBlock": "889c282d-d7dc-41ad-8c32-60c426e59ef5||Sequence: R016 ve11c/master r/e634e98; Dec 19 2017 11:00:25 by eja",
  "dcmmeta_affine": [
    [-1.9976884126663208, -0.011854622513055801, 0.09539597481489182, 101.50398254394531],
    [-0.048039719462394714, 1.842241883277893, -0.7770695686340332, -63.876277923583984],
    [0.08326529711484909, 0.778462827205658, 1.8403973579406738, -77.11408233642578],
    [0.0, 0.0, 0.0, 1.0]
],
  "dcmmeta_reorient_transform": [
    [0.0, -1.0, 0.0, 103.0],
    [1.0, 0.0, 0.0, 0.0],
    [0.0, 0.0, 1.0, 0.0],
    [0.0, 0.0, 0.0, 1.0]
],
  "dcmmeta_shape": [104, 104, 60, 466],
  "dcmmeta_slice_dim": 2,
  "dcmmeta_version": 0.6,
  "global": {
    "const": {
      "AcquisitionMatrix": [104, 0, 0, 104],
      "AngioFlag": "N",
      "BitsAllocated": 16,
      "BitsStored": 16,
      "BodyPartExamined": "BRAIN",
      "Columns": 832,
      "EchoNumbers": 1,
      "EchoTime": 37.0,
      "EchoTrainLength": 104,
      "FlipAngle": 52.0,
      "HighBit": 15,
      "ImageOrientationPatient": [0.99884421656095, 0.02401985915198, 0.04163264835512, -0.0059273112293, 0.92112093351544, -0.3892314129425],
      "ImagePositionPatient": [-823.12646467362, -813.93712988625, 256.11949238819],
      "ImageType": [
        "ORIGINAL",
        "PRIMARY",
        "M",
        "MB",
        "ND",
        "MOSAIC"
],
      "ImagedNucleus": "1H",
      "ImagingFrequency": 123.259014,
      "InPlanePhaseEncodingDirection": "COL",
      "MRAcquisitionType": "2D",
      "MagneticFieldStrength": 3.0,
      "Manufacturer": "SIEMENS",
      "ManufacturerModelName": "Prisma_fit",
      "Modality": "MR",
      "NumberOfAverages": 1.0,
      "NumberOfPhaseEncodingSteps": 104,
      "PercentPhaseFieldOfView": 100.0,
      "PercentSampling": 100.0,
      "PerformedProcedureStepStartTime": "085950.480000",
      "PhotometricInterpretation": "MONOCHROME2",
      "PixelBandwidth": 2290.0,
      "PixelRepresentation": 0,
      "PixelSpacing": [2.0, 2.0],
      "ProtocolName": "func_task-friends-s04e12b",
      "RepetitionTime": 1490.0,
      "Rows": 832,
      "SAR": 0.03952503026351,
      "SamplesPerPixel": 1,
      "ScanOptions": "FS",
      "ScanningSequence": "EP",
      "SequenceName": "epfid2d1_104",
      "SequenceVariant": [
        "SK",
        "SS"
],
      "SeriesDescription": "func_task-friends-s04e12b",
      "SeriesNumber": 11,
      "SeriesTime": "101803.441000",
      "SliceLocation": -41.300583076558,
      "SliceThickness": 2.0,
      "SmallestImagePixelValue": 0,
      "SoftwareVersions": "syngo MR E11",
      "SpacingBetweenSlices": 1.9999999804517,
      "SpecificCharacterSet": "ISO_IR 100",
      "StudyID": "1",
      "StudyTime": "085950.346000",
      "TransmitCoilName": "Body",
      "VariableFlipAngleFlag": "N",
      "WindowCenterWidthExplanation": "Algo1",
      "dBdt": 0.0},
    "slices": {}
  },
  "time": {
    "samples": {
      "AcquisitionNumber": [1, 2, 3, 4, 5, 6, 7, 8, 9, 10, 11, 12, 13, 14, 15, 16, 17, 18, 19, 20, 21, 22, 23, 24, 25, 26, 27, 28, 29, 30, 31, 32, 33, 34, 35, 36, 37, 38, 39, 40, 41, 42, 43, 44, 45, 46, 47, 48, 49, 50, 51, 52, 53, 54, 55, 56, 57, 58, 59, 60, 61, 62, 63, 64, 65, 66, 67, 68, 69, 70, 71, 72, 73, 74, 75, 76, 77, 78, 79, 80, 81, 82, 83, 84, 85, 86, 87, 88, 89, 90, 91, 92, 93, 94, 95, 96, 97, 98, 99, 100, 101, 102, 103, 104, 105, 106, 107, 108, 109, 110, 111, 112, 113, 114, 115, 116, 117, 118, 119, 120, 121, 122, 123, 124, 125, 126, 127, 128, 129, 130, 131, 132, 133, 134, 135, 136, 137, 138, 139, 140, 141, 142, 143, 144, 145, 146, 147, 148, 149, 150, 151, 152, 153, 154, 155, 156, 157, 158, 159, 160, 161, 162, 163, 164, 165, 166, 167, 168, 169, 170, 171, 172, 173, 174, 175, 176, 177, 178, 179, 180, 181, 182, 183, 184, 185, 186, 187, 188, 189, 190, 191, 192, 193, 194, 195, 196, 197, 198, 199, 200, 201, 202, 203, 204, 205, 206, 207, 208, 209, 210, 211, 212, 213, 214, 215, 216, 217, 218, 219, 220, 221, 222, 223, 224, 225, 226, 227, 228, 229, 230, 231, 232, 233, 234, 235, 236, 237, 238, 239, 240, 241, 242, 243, 244, 245, 246, 247, 248, 249, 250, 251, 252, 253, 254, 255, 256, 257, 258, 259, 260, 261, 262, 263, 264, 265, 266, 267, 268, 269, 270, 271, 272, 273, 274, 275, 276, 277, 278, 279, 280, 281, 282, 283, 284, 285, 286, 287, 288, 289, 290, 291, 292, 293, 294, 295, 296, 297, 298, 299, 300, 301, 302, 303, 304, 305, 306, 307, 308, 309, 310, 311, 312, 313, 314, 315, 316, 317, 318, 319, 320, 321, 322, 323, 324, 325, 326, 327, 328, 329, 330, 331, 332, 333, 334, 335, 336, 337, 338, 339, 340, 341, 342, 343, 344, 345, 346, 347, 348, 349, 350, 351, 352, 353, 354, 355, 356, 357, 358, 359, 360, 361, 362, 363, 364, 365, 366, 367, 368, 369, 370, 371, 372, 373, 374, 375, 376, 377, 378, 379, 380, 381, 382, 383, 384, 385, 386, 387, 388, 389, 390, 391, 392, 393, 394, 395, 396, 397, 398, 399, 400, 401, 402, 403, 404, 405, 406, 407, 408, 409, 410, 411, 412, 413, 414, 415, 416, 417, 418, 419, 420, 421, 422, 423, 424, 425, 426, 427, 428, 429, 430, 431, 432, 433, 434, 435, 436, 437, 438, 439, 440, 441, 442, 443, 444, 445, 446, 447, 448, 449, 450, 451, 452, 453, 454, 455, 456, 457, 458, 459, 460, 461, 462, 463, 464, 465, 466],
      "AcquisitionTime": ["101641.597500", "101643.087500", "101644.577500", "101646.067500", "101647.557500", "101649.047500", "101650.537500", "101652.027500", "101653.517500", "101655.007500", "101656.497500", "101657.987500", "101659.477500", "101700.967500", "101702.457500", "101703.947500", "101705.437500", "101706.927500", "101708.417500", "101709.907500", "101711.397500", "101712.887500", "101714.377500", "101715.867500", "101717.357500", "101718.847500", "101720.337500", "101721.827500", "101723.317500", "101724.807500", "101726.297500", "101727.787500", "101729.277500", "101730.767500", "101732.257500", "101733.747500", "101735.237500", "101736.727500", "101738.217500", "101739.707500", "101741.197500", "101742.687500", "101744.177500", "101745.667500", "101747.157500", "101748.647500", "101750.137500", "101751.627500", "101753.117500", "101754.607500", "101756.097500", "101757.587500", "101759.077500", "101800.567500", "101802.057500", "101803.547500", "101805.037500", "101806.527500", "101808.017500", "101809.507500", "101810.997500", "101812.487500", "101813.977500", "101815.467500", "101816.957500", "101818.447500", "101819.937500", "101821.427500", "101822.917500", "101824.407500", "101825.897500", "101827.387500", "101828.877500", "101830.367500", "101831.857500", "101833.347500", "101834.837500", "101836.327500", "101837.817500", "101839.307500", "101840.797500", "101842.287500", "101843.777500", "101845.267500", "101846.757500", "101848.247500", "101849.737500", "101851.227500", "101852.717500", "101854.207500", "101855.697500", "101857.187500", "101858.677500", "101900.167500", "101901.657500", "101903.147500", "101904.637500", "101906.127500", "101907.617500", "101909.107500", "101910.597500", "101912.087500", "101913.577500", "101915.067500", "101916.557500", "101918.047500", "101919.537500", "101921.027500", "101922.517500", "101924.007500", "101925.497500", "101926.987500", "101928.477500", "101929.967500", "101931.457500", "101932.947500", "101934.437500", "101935.927500", "101937.417500", "101938.907500", "101940.397500", "101941.887500", "101943.377500", "101944.867500", "101946.357500", "101947.847500", "101949.337500", "101950.827500", "101952.317500", "101953.807500", "101955.297500", "101956.787500", "101958.277500", "101959.767500", "102001.257500", "102002.747500", "102004.237500", "102005.727500", "102007.217500", "102008.707500", "102010.197500", "102011.687500", "102013.177500", "102014.667500", "102016.157500", "102017.647500", "102019.137500", "102020.627500", "102022.117500", "102023.607500", "102025.097500", "102026.587500", "102028.077500", "102029.567500", "102031.057500", "102032.547500", "102034.037500", "102035.527500", "102037.017500", "102038.507500", "102039.997500", "102041.487500", "102042.977500", "102044.467500", "102045.957500", "102047.447500", "102048.937500", "102050.427500", "102051.917500", "102053.407500", "102054.897500", "102056.387500", "102057.877500", "102059.367500", "102100.857500", "102102.347500", "102103.837500", "102105.327500", "102106.817500", "102108.307500", "102109.797500", "102111.287500", "102112.777500", "102114.267500", "102115.757500", "102117.247500", "102118.737500", "102120.227500", "102121.717500", "102123.207500", "102124.697500", "102126.187500", "102127.677500", "102129.167500", "102130.657500", "102132.147500", "102133.637500", "102135.127500", "102136.617500", "102138.107500", "102139.597500", "102141.087500", "102142.577500", "102144.067500", "102145.557500", "102147.047500", "102148.537500", "102150.027500", "102151.517500", "102153.007500", "102154.497500", "102155.987500", "102157.477500", "102158.967500", "102200.457500", "102201.947500", "102203.437500", "102204.927500", "102206.417500", "102207.907500", "102209.397500", "102210.887500", "102212.377500", "102213.867500", "102215.357500", "102216.847500", "102218.337500", "102219.827500", "102221.317500", "102222.807500", "102224.297500", "102225.787500", "102227.277500", "102228.767500", "102230.257500", "102231.747500", "102233.237500", "102234.727500", "102236.217500", "102237.707500", "102239.197500", "102240.687500", "102242.177500", "102243.667500", "102245.157500", "102246.647500", "102248.137500", "102249.627500", "102251.117500", "102252.607500", "102254.097500", "102255.587500", "102257.077500", "102258.567500", "102300.057500", "102301.547500", "102303.037500", "102304.527500", "102306.017500", "102307.507500", "102308.997500", "102310.487500", "102311.977500", "102313.467500", "102314.957500", "102316.447500", "102317.937500", "102319.427500", "102320.917500", "102322.407500", "102323.897500", "102325.387500", "102326.877500", "102328.367500", "102329.857500", "102331.347500", "102332.837500", "102334.327500", "102335.817500", "102337.307500", "102338.797500", "102340.287500", "102341.777500", "102343.267500", "102344.757500", "102346.247500", "102347.737500", "102349.227500", "102350.717500", "102352.207500", "102353.697500", "102355.187500", "102356.677500", "102358.167500", "102359.657500", "102401.147500", "102402.637500", "102404.127500", "102405.617500", "102407.107500", "102408.597500", "102410.087500", "102411.577500", "102413.067500", "102414.557500", "102416.047500", "102417.537500", "102419.027500", "102420.517500", "102422.007500", "102423.497500", "102424.987500", "102426.477500", "102427.967500", "102429.457500", "102430.947500", "102432.437500", "102433.927500", "102435.417500", "102436.907500", "102438.397500", "102439.887500", "102441.377500", "102442.867500", "102444.357500", "102445.847500", "102447.337500", "102448.827500", "102450.317500", "102451.807500", "102453.297500", "102454.787500", "102456.277500", "102457.767500", "102459.257500", "102500.747500", "102502.237500", "102503.727500", "102505.217500", "102506.707500", "102508.197500", "102509.687500", "102511.177500", "102512.667500", "102514.157500", "102515.647500", "102517.137500", "102518.627500", "102520.117500", "102521.607500", "102523.097500", "102524.587500", "102526.077500", "102527.567500", "102529.057500", "102530.547500", "102532.037500", "102533.527500", "102535.017500", "102536.507500", "102537.997500", "102539.487500", "102540.977500", "102542.467500", "102543.957500", "102545.447500", "102546.937500", "102548.427500", "102549.917500", "102551.407500", "102552.897500", "102554.387500", "102555.877500", "102557.367500", "102558.857500", "102600.347500", "102601.837500", "102603.327500", "102604.817500", "102606.307500", "102607.797500", "102609.287500", "102610.777500", "102612.267500", "102613.757500", "102615.247500", "102616.737500", "102618.227500", "102619.717500", "102621.207500", "102622.697500", "102624.187500", "102625.677500", "102627.167500", "102628.657500", "102630.147500", "102631.637500", "102633.127500", "102634.617500", "102636.107500", "102637.597500", "102639.087500", "102640.577500", "102642.067500", "102643.557500", "102645.047500", "102646.537500", "102648.027500", "102649.517500", "102651.007500", "102652.497500", "102653.987500", "102655.477500", "102656.967500", "102658.457500", "102659.947500", "102701.437500", "102702.927500", "102704.417500", "102705.907500", "102707.397500", "102708.887500", "102710.377500", "102711.867500", "102713.357500", "102714.847500", "102716.337500", "102717.827500", "102719.317500", "102720.807500", "102722.297500", "102723.787500", "102725.277500", "102726.767500", "102728.257500", "102729.747500", "102731.237500", "102732.727500", "102734.217500", "102735.707500", "102737.197500", "102738.687500", "102740.177500", "102741.667500", "102743.157500", "102744.647500", "102746.137500", "102747.627500", "102749.117500", "102750.607500", "102752.097500", "102753.587500", "102755.077500", "102756.567500", "102758.057500", "102759.547500", "102801.037500", "102802.527500", "102804.017500", "102805.507500", "102806.997500", "102808.487500", "102809.977500", "102811.467500", "102812.957500", "102814.447500"],
      "ContentTime": ["101803.444000", "101803.448000", "101803.450000", "101803.459000", "101803.462000", "101803.464000", "101803.467000", "101803.470000", "101803.473000", "101803.482000", "101803.485000", "101803.488000", "101803.491000", "101803.494000", "101803.496000", "101803.499000", "101803.502000", "101803.505000", "101803.508000", "101803.510000", "101803.513000", "101803.516000", "101803.519000", "101803.522000", "101803.525000", "101803.527000", "101803.530000", "101803.533000", "101823.397000", "101823.400000", "101823.403000", "101823.406000", "101823.408000", "101823.411000", "101823.414000", "101823.417000", "101823.420000", "101823.422000", "101823.425000", "101823.428000", "101823.431000", "101823.434000", "101823.436000", "101823.439000", "101823.442000", "101823.445000", "101823.448000", "101823.450000", "101843.397000", "101843.404000", "101843.407000", "101843.410000", "101843.412000", "101843.415000", "101843.418000", "101843.421000", "101843.424000", "101843.426000", "101843.429000", "101843.432000", "101843.435000", "101843.438000", "101843.441000", "101843.443000", "101843.446000", "101843.449000", "101843.452000", "101843.455000", "101903.397000", "101903.400000", "101903.403000", "101903.405000", "101903.414000", "101903.417000", "101903.420000", "101903.422000", "101903.425000", "101903.428000", "101903.431000", "101903.434000", "101903.437000", "101903.440000", "101903.442000", "101903.445000", "101903.449000", "101903.452000", "101903.455000", "101903.458000", "101923.398000", "101923.401000", "101923.404000", "101923.406000", "101923.409000", "101923.412000", "101923.415000", "101923.418000", "101923.421000", "101923.423000", "101923.426000", "101923.429000", "101923.432000", "101923.435000", "101923.438000", "101923.440000", "101923.443000", "101923.446000", "101923.449000", "101923.452000", "102003.397000", "102003.400000", "102003.403000", "102003.406000", "102003.409000", "102003.411000", "102003.414000", "102003.417000", "102003.420000", "102003.423000", "102003.426000", "102003.428000", "102003.431000", "102003.434000", "102003.437000", "102003.440000", "102003.442000", "102003.445000", "102003.448000", "102003.451000", "102003.454000", "102003.457000", "102003.459000", "102003.462000", "102003.465000", "102003.468000", "102003.471000", "102043.397000", "102043.400000", "102043.403000", "102043.406000", "102043.409000", "102043.412000", "102043.415000", "102043.418000", "102043.421000", "102043.424000", "102043.427000", "102043.429000", "102043.432000", "102043.435000", "102043.438000", "102043.441000", "102043.444000", "102043.446000", "102043.449000", "102043.452000", "102043.455000", "102043.458000", "102043.461000", "102043.464000", "102043.466000", "102043.469000", "102123.397000", "102123.400000", "102123.403000", "102123.406000", "102123.409000", "102123.411000", "102123.414000", "102123.417000", "102123.420000", "102123.423000", "102123.426000", "102123.428000", "102123.431000", "102123.434000", "102123.437000", "102123.440000", "102123.443000", "102123.445000", "102123.448000", "102123.451000", "102123.461000", "102123.464000", "102123.467000", "102123.470000", "102123.473000", "102123.476000", "102123.478000", "102203.398000", "102203.401000", "102203.404000", "102203.407000", "102203.409000", "102203.412000", "102203.415000", "102203.428000", "102203.431000", "102203.434000", "102203.437000", "102203.439000", "102203.442000", "102203.445000", "102203.448000", "102203.451000", "102203.453000", "102203.456000", "102203.459000", "102203.462000", "102203.465000", "102203.468000", "102203.471000", "102203.473000", "102203.476000", "102203.479000", "102203.482000", "102243.397000", "102243.400000", "102243.403000", "102243.406000", "102243.408000", "102243.411000", "102243.414000", "102243.417000", "102243.420000", "102243.423000", "102243.426000", "102243.428000", "102243.431000", "102243.434000", "102243.437000", "102243.440000", "102243.443000", "102243.445000", "102243.448000", "102243.451000", "102243.454000", "102243.457000", "102243.460000", "102243.463000", "102243.465000", "102243.468000", "102243.471000", "102323.397000", "102323.400000", "102323.403000", "102323.406000", "102323.409000", "102323.412000", "102323.415000", "102323.417000", "102323.420000", "102323.423000", "102323.426000", "102323.429000", "102323.432000", "102323.435000", "102323.437000", "102323.440000", "102323.443000", "102323.446000", "102323.449000", "102323.452000", "102323.455000", "102323.457000", "102323.460000", "102323.463000", "102323.466000", "102323.469000", "102323.472000", "102403.398000", "102403.401000", "102403.404000", "102403.407000", "102403.409000", "102403.412000", "102403.415000", "102403.418000", "102403.421000", "102403.424000", "102403.427000", "102403.429000", "102403.432000", "102403.435000", "102403.438000", "102403.441000", "102403.444000", "102403.447000", "102403.449000", "102403.452000", "102403.455000", "102403.458000", "102403.461000", "102403.464000", "102403.466000", "102403.469000", "102403.478000", "102443.397000", "102443.400000", "102443.403000", "102443.406000", "102443.408000", "102443.411000", "102443.414000", "102443.417000", "102443.420000", "102443.423000", "102443.425000", "102443.428000", "102443.431000", "102443.434000", "102443.437000", "102443.440000", "102443.442000", "102443.445000", "102443.448000", "102443.451000", "102443.454000", "102443.457000", "102443.459000", "102443.462000", "102443.465000", "102443.468000", "102443.471000", "102523.397000", "102523.400000", "102523.403000", "102523.406000", "102523.409000", "102523.411000", "102523.414000", "102523.417000", "102523.420000", "102523.423000", "102523.426000", "102523.428000", "102523.431000", "102523.434000", "102523.437000", "102523.440000", "102523.443000", "102523.446000", "102523.449000", "102523.452000", "102523.454000", "102523.457000", "102523.460000", "102523.463000", "102523.466000", "102523.469000", "102603.397000", "102603.400000", "102603.403000", "102603.406000", "102603.409000", "102603.412000", "102603.414000", "102603.417000", "102603.429000", "102603.432000", "102603.435000", "102603.438000", "102603.440000", "102603.443000", "102603.446000", "102603.449000", "102603.452000", "102603.455000", "102603.457000", "102603.460000", "102603.463000", "102603.466000", "102603.469000", "102603.472000", "102603.474000", "102603.477000", "102603.480000", "102643.398000", "102643.401000", "102643.415000", "102643.419000", "102643.422000", "102643.424000", "102643.427000", "102643.430000", "102643.433000", "102643.436000", "102643.439000", "102643.441000", "102643.444000", "102643.447000", "102643.450000", "102643.453000", "102643.456000", "102643.458000", "102643.461000", "102643.464000", "102643.475000", "102643.478000", "102643.481000", "102643.484000", "102643.487000", "102643.489000", "102643.492000", "102723.397000", "102723.400000", "102723.403000", "102723.406000", "102723.409000", "102723.411000", "102723.414000", "102723.417000", "102723.420000", "102723.423000", "102723.426000", "102723.428000", "102723.431000", "102723.434000", "102723.437000", "102723.440000", "102723.443000", "102723.445000", "102723.448000", "102723.451000", "102723.454000", "102723.457000", "102723.460000", "102723.462000", "102723.466000", "102723.468000", "102723.471000", "102803.397000", "102803.400000", "102803.403000", "102803.406000", "102803.409000", "102803.411000", "102803.414000", "102803.417000", "102803.420000", "102803.423000", "102803.426000", "102803.428000", "102803.431000", "102803.434000", "102803.437000", "102803.440000", "102803.443000", "102803.445000", "102803.448000", "102803.451000", "102803.454000", "102803.457000", "102803.460000", "102803.462000", "102803.465000", "102803.468000", "102803.471000", "102816.419000", "102816.422000", "102816.425000", "102816.428000", "102816.431000", "102816.433000", "102816.436000", "102816.439000", "102816.442000"],
