{
  "AcquisitionMatrixPE": 104,
  "AcquisitionNumber": 1,
  "AcquisitionTime": "10:04:23.362500",
  "BandwidthPerPixelPhaseEncode": 17.17,
  "BaseResolution": 104,
  "BodyPartExamined": "BRAIN",
  "CoilString": "HC1-7;NC1_2",
  "ConsistencyInfo": "N4_VE11C_LATEST_20160120",
  "ConversionSoftware": "dcm2niix",
  "ConversionSoftwareVersion": "v1.0.20190902",
  "DerivedVendorReportedEchoSpacing": 0.000560011,
  "DeviceSerialNumber": "167006",
  "DwellTime": 2.1e-06,
  "EchoTime": 0.037,
  "EchoTrainLength": 104,
  "EffectiveEchoSpacing": 0.000560011,
  "FlipAngle": 52,
  "ImageComments": "Unaliased_MB4_PE3_LB",
  "ImageOrientationPatientDICOM": [0.998844, 0.0240199, 0.0416326, -0.00592731, 0.921121, -0.389231],
  "ImageType": [
    "ORIGINAL",
    "PRIMARY",
    "M",
    "MB",
    "ND",
    "MOSAIC"
],
  "ImagingFrequency": 123.259,
  "InPlanePhaseEncodingDirectionDICOM": "COL",
  "InstitutionAddress": "Chemin_Queen-Mary_4565_Montreal_District_CA_H3W_1W5",
  "InstitutionName": "IUGM",
  "InstitutionalDepartmentName": "Department",
  "MRAcquisitionType": "2D",
  "MagneticFieldStrength": 3,
  "Manufacturer": "Siemens",
  "ManufacturersModelName": "Prisma_fit",
  "Modality": "MR",
  "MultibandAccelerationFactor": 4,
  "PartialFourier": 1,
  "PatientPosition": "HFS",
  "PercentPhaseFOV": 100,
  "PhaseEncodingDirection": "j",
  "PhaseEncodingSteps": 104,
  "PhaseResolution": 1,
  "PixelBandwidth": 2290,
  "ProcedureStepDescription": "video_friends",
  "ProtocolName": "func_task-friends-s04e12a",
  "PulseSequenceDetails": "%CustomerSeq%_cmrr_mbep2d_bold",
  "ReceiveCoilActiveElements": "HC1-7;NC1,2",
  "ReceiveCoilName": "HeadNeck_64",
  "ReconMatrixPE": 104,
  "RepetitionTime": 1.49,
  "SAR": 0.039525,
  "ScanOptions": "FS",
  "ScanningSequence": "EP",
  "SequenceName": "epfid2d1_104",
  "SequenceVariant": "SK_SS",
  "SeriesDescription": "func_task-friends-s04e12a",
  "SeriesNumber": 9,
  "ShimSetting": [653, -7181, -8854, 662, 119, 12, 25, 9],
  "SliceThickness": 2,
  "SliceTiming": [0, 0.7825, 0.0975, 0.88, 0.195, 0.98, 0.2925, 1.0775, 0.39, 1.175, 0.49, 1.2725, 0.5875, 1.37, 0.685, 0, 0.7825, 0.0975, 0.88, 0.195, 0.98, 0.2925, 1.0775, 0.39, 1.175, 0.49, 1.2725, 0.5875, 1.37, 0.685, 0, 0.7825, 0.0975, 0.88, 0.195, 0.98, 0.2925, 1.0775, 0.39, 1.175, 0.49, 1.2725, 0.5875, 1.37, 0.685, 0, 0.7825, 0.0975, 0.88, 0.195, 0.98, 0.2925, 1.0775, 0.39, 1.175, 0.49, 1.2725, 0.5875, 1.37, 0.685],
  "SoftwareVersions": "syngo_MR_E11",
  "SpacingBetweenSlices": 2,
  "StationName": "MRC35049",
  "TaskName": "s04e12a",
  "TotalReadoutTime": 0.0576811,
  "TxRefAmp": 248.534,
  "WipMemBlock": "5a4ea58d-0a49-40d1-a1cc-935025c816d6||Sequence: R016 ve11c/master r/e634e98; Dec 19 2017 11:00:25 by eja",
  "dcmmeta_affine": [
    [-1.9976884126663208, -0.011854622513055801, 0.09539597481489182, 101.50398254394531],
    [-0.048039719462394714, 1.842241883277893, -0.7770695686340332, -63.876277923583984],
    [0.08326529711484909, 0.778462827205658, 1.8403973579406738, -77.11408233642578],
    [0.0, 0.0, 0.0, 1.0]
],
  "dcmmeta_reorient_transform": [
    [0.0, -1.0, 0.0, 103.0],
    [1.0, 0.0, 0.0, 0.0],
    [0.0, 0.0, 1.0, 0.0],
    [0.0, 0.0, 0.0, 1.0]
],
  "dcmmeta_shape": [104, 104, 60, 466],
  "dcmmeta_slice_dim": 2,
  "dcmmeta_version": 0.6,
  "global": {
    "const": {
      "AcquisitionMatrix": [104, 0, 0, 104],
      "AngioFlag": "N",
      "BitsAllocated": 16,
      "BitsStored": 16,
      "BodyPartExamined": "BRAIN",
      "Columns": 832,
      "EchoNumbers": 1,
      "EchoTime": 37.0,
      "EchoTrainLength": 104,
      "FlipAngle": 52.0,
      "HighBit": 15,
      "ImageOrientationPatient": [0.99884421656095, 0.02401985915198, 0.04163264835512, -0.0059273112293, 0.92112093351544, -0.3892314129425],
      "ImagePositionPatient": [-823.12646467362, -813.93712988625, 256.11949238819],
      "ImageType": [
        "ORIGINAL",
        "PRIMARY",
        "M",
        "MB",
        "ND",
        "MOSAIC"
],
      "ImagedNucleus": "1H",
      "ImagingFrequency": 123.259003,
      "InPlanePhaseEncodingDirection": "COL",
      "MRAcquisitionType": "2D",
      "MagneticFieldStrength": 3.0,
      "Manufacturer": "SIEMENS",
      "ManufacturerModelName": "Prisma_fit",
      "Modality": "MR",
      "NumberOfAverages": 1.0,
      "NumberOfPhaseEncodingSteps": 104,
      "PercentPhaseFieldOfView": 100.0,
      "PercentSampling": 100.0,
      "PerformedProcedureStepStartTime": "085950.480000",
      "PhotometricInterpretation": "MONOCHROME2",
      "PixelBandwidth": 2290.0,
      "PixelRepresentation": 0,
      "PixelSpacing": [2.0, 2.0],
      "ProtocolName": "func_task-friends-s04e12a",
      "RepetitionTime": 1490.0,
      "Rows": 832,
      "SAR": 0.03952503026351,
      "SamplesPerPixel": 1,
      "ScanOptions": "FS",
      "ScanningSequence": "EP",
      "SequenceName": "epfid2d1_104",
      "SequenceVariant": [
        "SK",
        "SS"
],
      "SeriesDescription": "func_task-friends-s04e12a",
      "SeriesNumber": 9,
      "SeriesTime": "100521.226000",
      "SliceLocation": -41.300583076558,
      "SliceThickness": 2.0,
      "SmallestImagePixelValue": 0,
      "SoftwareVersions": "syngo MR E11",
      "SpacingBetweenSlices": 1.9999999804517,
      "SpecificCharacterSet": "ISO_IR 100",
      "StudyID": "1",
      "StudyTime": "085950.346000",
      "TransmitCoilName": "Body",
      "VariableFlipAngleFlag": "N",
      "WindowCenterWidthExplanation": "Algo1",
      "dBdt": 0.0},
    "slices": {}
  },
  "time": {
    "samples": {
      "AcquisitionNumber": [1, 2, 3, 4, 5, 6, 7, 8, 9, 10, 11, 12, 13, 14, 15, 16, 17, 18, 19, 20, 21, 22, 23, 24, 25, 26, 27, 28, 29, 30, 31, 32, 33, 34, 35, 36, 37, 38, 39, 40, 41, 42, 43, 44, 45, 46, 47, 48, 49, 50, 51, 52, 53, 54, 55, 56, 57, 58, 59, 60, 61, 62, 63, 64, 65, 66, 67, 68, 69, 70, 71, 72, 73, 74, 75, 76, 77, 78, 79, 80, 81, 82, 83, 84, 85, 86, 87, 88, 89, 90, 91, 92, 93, 94, 95, 96, 97, 98, 99, 100, 101, 102, 103, 104, 105, 106, 107, 108, 109, 110, 111, 112, 113, 114, 115, 116, 117, 118, 119, 120, 121, 122, 123, 124, 125, 126, 127, 128, 129, 130, 131, 132, 133, 134, 135, 136, 137, 138, 139, 140, 141, 142, 143, 144, 145, 146, 147, 148, 149, 150, 151, 152, 153, 154, 155, 156, 157, 158, 159, 160, 161, 162, 163, 164, 165, 166, 167, 168, 169, 170, 171, 172, 173, 174, 175, 176, 177, 178, 179, 180, 181, 182, 183, 184, 185, 186, 187, 188, 189, 190, 191, 192, 193, 194, 195, 196, 197, 198, 199, 200, 201, 202, 203, 204, 205, 206, 207, 208, 209, 210, 211, 212, 213, 214, 215, 216, 217, 218, 219, 220, 221, 222, 223, 224, 225, 226, 227, 228, 229, 230, 231, 232, 233, 234, 235, 236, 237, 238, 239, 240, 241, 242, 243, 244, 245, 246, 247, 248, 249, 250, 251, 252, 253, 254, 255, 256, 257, 258, 259, 260, 261, 262, 263, 264, 265, 266, 267, 268, 269, 270, 271, 272, 273, 274, 275, 276, 277, 278, 279, 280, 281, 282, 283, 284, 285, 286, 287, 288, 289, 290, 291, 292, 293, 294, 295, 296, 297, 298, 299, 300, 301, 302, 303, 304, 305, 306, 307, 308, 309, 310, 311, 312, 313, 314, 315, 316, 317, 318, 319, 320, 321, 322, 323, 324, 325, 326, 327, 328, 329, 330, 331, 332, 333, 334, 335, 336, 337, 338, 339, 340, 341, 342, 343, 344, 345, 346, 347, 348, 349, 350, 351, 352, 353, 354, 355, 356, 357, 358, 359, 360, 361, 362, 363, 364, 365, 366, 367, 368, 369, 370, 371, 372, 373, 374, 375, 376, 377, 378, 379, 380, 381, 382, 383, 384, 385, 386, 387, 388, 389, 390, 391, 392, 393, 394, 395, 396, 397, 398, 399, 400, 401, 402, 403, 404, 405, 406, 407, 408, 409, 410, 411, 412, 413, 414, 415, 416, 417, 418, 419, 420, 421, 422, 423, 424, 425, 426, 427, 428, 429, 430, 431, 432, 433, 434, 435, 436, 437, 438, 439, 440, 441, 442, 443, 444, 445, 446, 447, 448, 449, 450, 451, 452, 453, 454, 455, 456, 457, 458, 459, 460, 461, 462, 463, 464, 465, 466],
      "AcquisitionTime": ["100423.362500", "100424.852500", "100426.342500", "100427.832500", "100429.322500", "100430.812500", "100432.302500", "100433.792500", "100435.282500", "100436.772500", "100438.262500", "100439.752500", "100441.242500", "100442.732500", "100444.222500", "100445.712500", "100447.202500", "100448.692500", "100450.182500", "100451.672500", "100453.162500", "100454.652500", "100456.142500", "100457.632500", "100459.122500", "100500.612500", "100502.102500", "100503.592500", "100505.082500", "100506.572500", "100508.062500", "100509.552500", "100511.042500", "100512.532500", "100514.022500", "100515.512500", "100517.002500", "100518.492500", "100519.982500", "100521.472500", "100522.962500", "100524.452500", "100525.942500", "100527.432500", "100528.922500", "100530.412500", "100531.902500", "100533.392500", "100534.882500", "100536.372500", "100537.862500", "100539.352500", "100540.842500", "100542.332500", "100543.822500", "100545.312500", "100546.802500", "100548.292500", "100549.782500", "100551.272500", "100552.762500", "100554.252500", "100555.742500", "100557.232500", "100558.722500", "100600.212500", "100601.702500", "100603.192500", "100604.682500", "100606.172500", "100607.662500", "100609.152500", "100610.642500", "100612.132500", "100613.622500", "100615.112500", "100616.602500", "100618.092500", "100619.582500", "100621.072500", "100622.562500", "100624.052500", "100625.542500", "100627.032500", "100628.522500", "100630.012500", "100631.502500", "100632.992500", "100634.482500", "100635.972500", "100637.462500", "100638.952500", "100640.442500", "100641.932500", "100643.422500", "100644.912500", "100646.402500", "100647.892500", "100649.382500", "100650.872500", "100652.362500", "100653.852500", "100655.342500", "100656.832500", "100658.322500", "100659.812500", "100701.302500", "100702.792500", "100704.282500", "100705.772500", "100707.262500", "100708.752500", "100710.242500", "100711.732500", "100713.222500", "100714.712500", "100716.202500", "100717.692500", "100719.182500", "100720.672500", "100722.162500", "100723.652500", "100725.142500", "100726.632500", "100728.122500", "100729.612500", "100731.102500", "100732.592500", "100734.082500", "100735.572500", "100737.062500", "100738.552500", "100740.042500", "100741.532500", "100743.022500", "100744.512500", "100746.002500", "100747.492500", "100748.982500", "100750.472500", "100751.962500", "100753.452500", "100754.942500", "100756.432500", "100757.922500", "100759.412500", "100800.902500", "100802.392500", "100803.882500", "100805.372500", "100806.862500", "100808.352500", "100809.842500", "100811.332500", "100812.822500", "100814.312500", "100815.802500", "100817.292500", "100818.782500", "100820.272500", "100821.762500", "100823.252500", "100824.742500", "100826.232500", "100827.722500", "100829.212500", "100830.702500", "100832.192500", "100833.682500", "100835.172500", "100836.662500", "100838.152500", "100839.642500", "100841.132500", "100842.622500", "100844.112500", "100845.602500", "100847.092500", "100848.582500", "100850.072500", "100851.562500", "100853.052500", "100854.542500", "100856.032500", "100857.522500", "100859.012500", "100900.502500", "100901.992500", "100903.482500", "100904.972500", "100906.462500", "100907.952500", "100909.442500", "100910.932500", "100912.422500", "100913.912500", "100915.402500", "100916.892500", "100918.382500", "100919.872500", "100921.362500", "100922.852500", "100924.342500", "100925.832500", "100927.322500", "100928.812500", "100930.302500", "100931.792500", "100933.282500", "100934.772500", "100936.262500", "100937.752500", "100939.242500", "100940.732500", "100942.222500", "100943.712500", "100945.202500", "100946.692500", "100948.182500", "100949.672500", "100951.162500", "100952.652500", "100954.142500", "100955.632500", "100957.122500", "100958.612500", "101000.102500", "101001.592500", "101003.082500", "101004.572500", "101006.062500", "101007.552500", "101009.042500", "101010.532500", "101012.022500", "101013.512500", "101015.002500", "101016.492500", "101017.982500", "101019.472500", "101020.962500", "101022.452500", "101023.942500", "101025.432500", "101026.922500", "101028.412500", "101029.902500", "101031.392500", "101032.882500", "101034.372500", "101035.862500", "101037.352500", "101038.842500", "101040.332500", "101041.822500", "101043.312500", "101044.802500", "101046.292500", "101047.782500", "101049.272500", "101050.762500", "101052.252500", "101053.742500", "101055.232500", "101056.722500", "101058.212500", "101059.702500", "101101.192500", "101102.682500", "101104.172500", "101105.662500", "101107.152500", "101108.642500", "101110.132500", "101111.622500", "101113.112500", "101114.602500", "101116.092500", "101117.582500", "101119.072500", "101120.562500", "101122.052500", "101123.542500", "101125.032500", "101126.522500", "101128.012500", "101129.502500", "101130.992500", "101132.482500", "101133.972500", "101135.462500", "101136.952500", "101138.442500", "101139.932500", "101141.422500", "101142.912500", "101144.402500", "101145.892500", "101147.382500", "101148.872500", "101150.362500", "101151.852500", "101153.342500", "101154.832500", "101156.322500", "101157.812500", "101159.302500", "101200.792500", "101202.282500", "101203.772500", "101205.262500", "101206.752500", "101208.242500", "101209.732500", "101211.222500", "101212.712500", "101214.202500", "101215.692500", "101217.182500", "101218.672500", "101220.162500", "101221.652500", "101223.142500", "101224.632500", "101226.122500", "101227.612500", "101229.102500", "101230.592500", "101232.082500", "101233.572500", "101235.062500", "101236.552500", "101238.042500", "101239.532500", "101241.022500", "101242.512500", "101244.002500", "101245.492500", "101246.982500", "101248.472500", "101249.962500", "101251.452500", "101252.942500", "101254.432500", "101255.922500", "101257.412500", "101258.902500", "101300.392500", "101301.882500", "101303.372500", "101304.862500", "101306.352500", "101307.842500", "101309.332500", "101310.822500", "101312.312500", "101313.802500", "101315.292500", "101316.782500", "101318.272500", "101319.762500", "101321.252500", "101322.742500", "101324.232500", "101325.722500", "101327.212500", "101328.702500", "101330.192500", "101331.682500", "101333.172500", "101334.662500", "101336.152500", "101337.642500", "101339.132500", "101340.622500", "101342.112500", "101343.602500", "101345.092500", "101346.582500", "101348.072500", "101349.562500", "101351.052500", "101352.542500", "101354.032500", "101355.522500", "101357.012500", "101358.502500", "101359.992500", "101401.482500", "101402.972500", "101404.462500", "101405.952500", "101407.442500", "101408.932500", "101410.422500", "101411.912500", "101413.402500", "101414.892500", "101416.382500", "101417.872500", "101419.362500", "101420.852500", "101422.342500", "101423.832500", "101425.322500", "101426.812500", "101428.302500", "101429.792500", "101431.282500", "101432.772500", "101434.262500", "101435.752500", "101437.242500", "101438.732500", "101440.222500", "101441.712500", "101443.202500", "101444.692500", "101446.182500", "101447.672500", "101449.162500", "101450.652500", "101452.142500", "101453.632500", "101455.122500", "101456.612500", "101458.102500", "101459.592500", "101501.082500", "101502.572500", "101504.062500", "101505.552500", "101507.042500", "101508.532500", "101510.022500", "101511.512500", "101513.002500", "101514.492500", "101515.982500", "101517.472500", "101518.962500", "101520.452500", "101521.942500", "101523.432500", "101524.922500", "101526.412500", "101527.902500", "101529.392500", "101530.882500", "101532.372500", "101533.862500", "101535.352500", "101536.842500", "101538.332500", "101539.822500", "101541.312500", "101542.802500", "101544.292500", "101545.782500", "101547.272500", "101548.762500", "101550.252500", "101551.742500", "101553.232500", "101554.722500", "101556.212500"],
      "ContentTime": ["100521.228000", "100541.195000", "100541.198000", "100541.201000", "100541.204000", "100541.206000", "100541.209000", "100541.212000", "100541.215000", "100541.218000", "100541.221000", "100541.224000", "100541.226000", "100541.229000", "100541.240000", "100541.242000", "100541.245000", "100541.248000", "100541.251000", "100541.254000", "100541.257000", "100621.195000", "100621.198000", "100621.201000", "100621.204000", "100621.206000", "100621.209000", "100621.212000", "100621.215000", "100621.218000", "100621.221000", "100621.224000", "100621.226000", "100621.229000", "100621.232000", "100621.235000", "100621.238000", "100621.240000", "100621.243000", "100621.246000", "100621.249000", "100621.252000", "100621.255000", "100621.258000", "100621.261000", "100621.264000", "100621.266000", "100621.269000", "100621.272000", "100621.280000", "100621.283000", "100621.286000", "100621.289000", "100621.292000", "100621.294000", "100621.297000", "100621.300000", "100621.303000", "100621.306000", "100621.309000", "100641.195000", "100641.198000", "100641.201000", "100641.203000", "100641.206000", "100641.209000", "100641.212000", "100641.215000", "100641.218000", "100641.220000", "100641.223000", "100641.226000", "100641.229000", "100641.232000", "100641.235000", "100641.238000", "100641.240000", "100641.243000", "100641.246000", "100641.249000", "100641.252000", "100701.195000", "100701.198000", "100701.201000", "100701.204000", "100701.206000", "100701.209000", "100701.212000", "100701.215000", "100701.218000", "100701.221000", "100701.224000", "100701.226000", "100701.229000", "100701.232000", "100701.235000", "100701.238000", "100701.241000", "100701.243000", "100701.246000", "100701.249000", "100741.194000", "100741.197000", "100741.200000", "100741.203000", "100741.205000", "100741.208000", "100741.211000", "100741.214000", "100741.217000", "100741.220000", "100741.222000", "100741.225000", "100741.228000", "100741.231000", "100741.234000", "100741.248000", "100741.251000", "100741.254000", "100741.256000", "100741.259000", "100741.262000", "100741.265000", "100741.268000", "100741.271000", "100741.273000", "100741.276000", "100741.279000", "100741.282000", "100741.291000", "100741.294000", "100741.297000", "100821.195000", "100821.198000", "100821.201000", "100821.204000", "100821.206000", "100821.209000", "100821.212000", "100821.215000", "100821.218000", "100821.221000", "100821.223000", "100821.226000", "100821.229000", "100821.232000", "100821.235000", "100821.238000", "100821.241000", "100821.244000", "100821.247000", "100821.249000", "100821.252000", "100821.255000", "100821.258000", "100821.261000", "100821.264000", "100821.267000", "100821.269000", "100901.195000", "100901.198000", "100901.201000", "100901.204000", "100901.207000", "100901.209000", "100901.212000", "100901.215000", "100901.218000", "100901.221000", "100901.224000", "100901.227000", "100901.230000", "100901.233000", "100901.236000", "100901.238000", "100901.242000", "100901.246000", "100901.251000", "100901.254000", "100901.256000", "100901.259000", "100901.262000", "100901.265000", "100901.268000", "100901.271000", "100941.194000", "100941.197000", "100941.200000", "100941.203000", "100941.205000", "100941.208000", "100941.211000", "100941.214000", "100941.217000", "100941.220000", "100941.223000", "100941.226000", "100941.228000", "100941.231000", "100941.234000", "100941.237000", "100941.240000", "100941.243000", "100941.246000", "100941.248000", "100941.251000", "100941.254000", "100941.257000", "100941.260000", "100941.263000", "100941.266000", "100941.268000", "101021.195000", "101021.198000", "101021.201000", "101021.204000", "101021.206000", "101021.209000", "101021.212000", "101021.215000", "101021.218000", "101021.221000", "101021.224000", "101021.226000", "101021.229000", "101021.232000", "101021.235000", "101021.238000", "101021.241000", "101021.243000", "101021.246000", "101021.249000", "101021.252000", "101021.255000", "101021.258000", "101021.261000", "101021.264000", "101021.267000", "101021.269000", "101101.195000", "101101.198000", "101101.201000", "101101.204000", "101101.207000", "101101.209000", "101101.212000", "101101.215000", "101101.218000", "101101.221000", "101101.230000", "101101.233000", "101101.236000", "101101.239000", "101101.242000", "101101.245000", "101101.248000", "101101.251000", "101101.253000", "101101.256000", "101101.259000", "101101.262000", "101101.265000", "101101.268000", "101101.271000", "101101.274000", "101101.276000", "101141.195000", "101141.198000", "101141.201000", "101141.204000", "101141.206000", "101141.209000", "101141.212000", "101141.215000", "101141.218000", "101141.221000", "101141.224000", "101141.227000", "101141.229000", "101141.232000", "101141.235000", "101141.238000", "101141.241000", "101141.244000", "101141.247000", "101141.249000", "101141.253000", "101141.256000", "101141.259000", "101141.262000", "101141.265000", "101141.268000", "101141.271000", "101221.194000", "101221.197000", "101221.200000", "101221.203000", "101221.206000", "101221.208000", "101221.211000", "101221.236000", "101221.239000", "101221.242000", "101221.245000", "101221.248000", "101221.250000", "101221.253000", "101221.256000", "101221.259000", "101221.262000", "101221.265000", "101221.268000", "101221.271000", "101221.273000", "101221.276000", "101221.279000", "101221.282000", "101221.285000", "101221.288000", "101221.291000", "101301.195000", "101301.198000", "101301.201000", "101301.204000", "101301.207000", "101301.210000", "101301.213000", "101301.215000", "101301.218000", "101301.221000", "101301.224000", "101301.227000", "101301.230000", "101301.233000", "101301.236000", "101301.238000", "101301.241000", "101301.244000", "101301.247000", "101301.250000", "101301.253000", "101301.256000", "101301.258000", "101301.261000", "101301.264000", "101301.267000", "101301.270000", "101341.195000", "101341.198000", "101341.201000", "101341.204000", "101341.207000", "101341.209000", "101341.212000", "101341.215000", "101341.218000", "101341.221000", "101341.224000", "101341.227000", "101341.229000", "101341.232000", "101341.235000", "101341.239000", "101341.242000", "101341.245000", "101341.248000", "101341.251000", "101341.253000", "101341.256000", "101341.259000", "101341.262000", "101341.265000", "101341.268000", "101421.194000", "101421.197000", "101421.200000", "101421.203000", "101421.206000", "101421.209000", "101421.212000", "101421.215000", "101421.218000", "101421.220000", "101421.223000", "101421.226000", "101421.229000", "101421.232000", "101421.235000", "101421.237000", "101421.240000", "101421.243000", "101421.246000", "101421.249000", "101421.252000", "101421.255000", "101421.258000", "101421.260000", "101421.263000", "101421.266000", "101421.269000", "101501.195000", "101501.198000", "101501.201000", "101501.204000", "101501.207000", "101501.210000", "101501.213000", "101501.215000", "101501.218000", "101501.221000", "101501.224000", "101501.227000", "101501.230000", "101501.233000", "101501.235000", "101501.238000", "101501.241000", "101501.244000", "101501.247000", "101501.250000", "101501.253000", "101501.255000", "101501.258000", "101501.261000", "101501.264000", "101501.267000", "101501.270000", "101521.196000", "101521.199000", "101521.202000", "101521.205000", "101521.208000", "101521.211000", "101521.214000", "101521.217000", "101521.220000", "101521.223000", "101521.226000", "101521.229000", "101521.232000", "101558.525000", "101558.528000", "101558.531000", "101558.534000", "101558.537000", "101558.540000", "101558.543000", "101558.546000", "101558.549000", "101558.552000", "101558.555000", "101558.558000", "101558.561000", "101558.564000", "101558.567000", "101558.570000", "101558.573000", "101558.576000", "101558.579000", "101558.582000", "101558.585000", "101558.588000", "101558.590000", "101558.593000", "101558.596000", "101558.599000"],
