{
  "AcquisitionMatrixPE": 104,
  "AcquisitionNumber": 1,
  "AcquisitionTime": "14:52:44.550000",
  "BandwidthPerPixelPhaseEncode": 17.17,
  "BaseResolution": 104,
  "BodyPartExamined": "BRAIN",
  "CoilCombinationMethod": "Sum of Squares",
  "ConsistencyInfo": "N4_VE11C_LATEST_20160120",
  "ConversionSoftware": "dcm2niix",
  "ConversionSoftwareVersion": "v1.0.20230411",
  "DerivedVendorReportedEchoSpacing": 0.000560011,
  "DeviceSerialNumber": "167006",
  "DwellTime": 2.1e-06,
  "EchoTime": 0.037,
  "EchoTrainLength": 104,
  "EffectiveEchoSpacing": 0.000560011,
  "FlipAngle": 52,
  "HeudiconvVersion": "0.5.3.post861+ge7d3c7f",
  "ImageComments": "Unaliased MB4/PE3/LB",
  "ImageOrientationPatientDICOM": [0.999935, 0.0107066, -0.00402059, -0.0113443, 0.973123, -0.230006],
  "ImageOrientationText": "Tra>Cor(-13.3)>Sag(-0.1)",
  "ImageType": [
    "ORIGINAL",
    "PRIMARY",
    "M",
    "MB",
    "ND",
    "MOSAIC"
],
  "ImagingFrequency": 123.249717,
  "InPlanePhaseEncodingDirectionDICOM": "COL",
  "InstitutionAddress": "Chemin Queen-Mary 4565,Montreal,District,CA,H3W 1W5",
  "InstitutionName": "Institut Universitaire de Geriatrie de Montreal",
  "InstitutionalDepartmentName": "Department",
  "MRAcquisitionType": "2D",
  "MagneticFieldStrength": 3,
  "Manufacturer": "Siemens",
  "ManufacturersModelName": "Prisma_fit",
  "MatrixCoilMode": "SENSE",
  "Modality": "MR",
  "MultibandAccelerationFactor": 4,
  "NonlinearGradientCorrection": false,
  "PartialFourier": 1,
  "PatientPosition": "HFS",
  "PercentPhaseFOV": 100,
  "PercentSampling": 100,
  "PhaseEncodingDirection": "j",
  "PhaseEncodingSteps": 104,
  "PhaseResolution": 1,
  "PixelBandwidth": 2290,
  "ProcedureStepDescription": "video^friends",
  "ProtocolName": "func_task-friends-s07e16a",
  "PulseSequenceDetails": "%CustomerSeq%\\cmrr_mbep2d_bold",
  "ReceiveCoilActiveElements": "HC1-7;NC1,2",
  "ReceiveCoilName": "HeadNeck_64",
  "ReconMatrixPE": 104,
  "RepetitionTime": 1.49,
  "SAR": 0.0623608,
  "ScanOptions": "FS",
  "ScanningSequence": "EP",
  "SequenceName": "epfid2d1_104",
  "SequenceVariant": "SK\\SS",
  "SeriesDescription": "func_task-friends-s07e16a",
  "SeriesNumber": 12,
  "ShimSetting": [607, -7260, -8750, 659, 72, -51, 44, 35],
  "SliceThickness": 2,
  "SliceTiming": [0, 0.7825, 0.0975, 0.88, 0.195, 0.98, 0.2925, 1.0775, 0.39, 1.175, 0.49, 1.2725, 0.5875, 1.37, 0.685, 0, 0.7825, 0.0975, 0.88, 0.195, 0.98, 0.2925, 1.0775, 0.39, 1.175, 0.49, 1.2725, 0.5875, 1.37, 0.685, 0, 0.7825, 0.0975, 0.88, 0.195, 0.98, 0.2925, 1.0775, 0.39, 1.175, 0.49, 1.2725, 0.5875, 1.37, 0.685, 0, 0.7825, 0.0975, 0.88, 0.195, 0.98, 0.2925, 1.0775, 0.39, 1.175, 0.49, 1.2725, 0.5875, 1.37, 0.685],
  "SoftwareVersions": "syngo MR E11",
  "SpacingBetweenSlices": 2,
  "StationName": "MRC35049",
  "TaskName": "s07e16a",
  "TotalReadoutTime": 0.0576811,
  "TxRefAmp": 244.427,
  "WipMemBlock": "ce9f561d-b99d-4648-a800-1a7e9e1a73be||Sequence: R017 ve11c/master r/75a17815+; Jun 28 2022 16:32:11 by eja",
  "dcmmeta_affine": [
    [-1.9998692274093628, -0.022688645869493484, -0.0028999096248298883, 107.0358657836914],
    [-0.021413160488009453, 1.9462461471557617, -0.4600732624530792, -75.77291107177734],
    [-0.008041189052164555, 0.46001213788986206, 1.946361780166626, -42.960147857666016],
    [0.0, 0.0, 0.0, 1.0]
],
  "dcmmeta_reorient_transform": [
    [0.0, -1.0, 0.0, 103.0],
    [1.0, 0.0, 0.0, 0.0],
    [0.0, 0.0, 1.0, 0.0],
    [0.0, 0.0, 0.0, 1.0]
],
  "dcmmeta_shape": [104, 104, 60, 398],
  "dcmmeta_slice_dim": 2,
  "dcmmeta_version": 0.6,
  "global": {
    "const": {
      "AcquisitionMatrix": [104, 0, 0, 104],
      "AngioFlag": "N",
      "BitsAllocated": 16,
      "BitsStored": 16,
      "BodyPartExamined": "BRAIN",
      "Columns": 832,
      "EchoNumbers": 1,
      "EchoTime": 37.0,
      "EchoTrainLength": 104,
      "FlipAngle": 52.0,
      "HighBit": 15,
      "ImageOrientationPatient": [0.99993459984408, 0.01070658002611, -0.0040205943348, -0.0113443230608, 0.97312307432495, -0.2300060619867],
      "ImagePositionPatient": [-824.39265684874, -840.91843428531, 174.79250494857],
      "ImageType": [
        "ORIGINAL",
        "PRIMARY",
        "M",
        "MB",
        "ND",
        "MOSAIC"
],
      "ImagedNucleus": "1H",
      "ImagingFrequency": 123.249717,
      "InPlanePhaseEncodingDirection": "COL",
      "MRAcquisitionType": "2D",
      "MagneticFieldStrength": 3.0,
      "Manufacturer": "SIEMENS",
      "ManufacturerModelName": "Prisma_fit",
      "Modality": "MR",
      "NumberOfAverages": 1.0,
      "NumberOfPhaseEncodingSteps": 104,
      "PercentPhaseFieldOfView": 100.0,
      "PercentSampling": 100.0,
      "PerformedProcedureStepStartTime": "143127.056000",
      "PhotometricInterpretation": "MONOCHROME2",
      "PixelBandwidth": 2290.0,
      "PixelRepresentation": 0,
      "PixelSpacing": [2.0, 2.0],
      "ProtocolName": "func_task-friends-s07e16a",
      "RepetitionTime": 1490.0,
      "Rows": 832,
      "SAR": 0.06236081919904,
      "SamplesPerPixel": 1,
      "ScanOptions": "FS",
      "ScanningSequence": "EP",
      "SequenceName": "epfid2d1_104",
      "SequenceVariant": [
        "SK",
        "SS"
],
      "SeriesDescription": "func_task-friends-s07e16a",
      "SeriesNumber": 12,
      "SeriesTime": "145351.434000",
      "SliceLocation": -24.532649550566,
      "SliceThickness": 2.0,
      "SmallestImagePixelValue": 0,
      "SoftwareVersions": "syngo MR E11",
      "SpacingBetweenSlices": 1.9999999885727,
      "SpecificCharacterSet": "ISO_IR 100",
      "StudyID": "1",
      "StudyTime": "143126.985000",
      "TransmitCoilName": "Body",
      "VariableFlipAngleFlag": "N",
      "WindowCenterWidthExplanation": "Algo1",
      "dBdt": 0.0},
    "slices": {}
  },
  "time": {
    "samples": {
      "AcquisitionNumber": [1, 2, 3, 4, 5, 6, 7, 8, 9, 10, 11, 12, 13, 14, 15, 16, 17, 18, 19, 20, 21, 22, 23, 24, 25, 26, 27, 28, 29, 30, 31, 32, 33, 34, 35, 36, 37, 38, 39, 40, 41, 42, 43, 44, 45, 46, 47, 48, 49, 50, 51, 52, 53, 54, 55, 56, 57, 58, 59, 60, 61, 62, 63, 64, 65, 66, 67, 68, 69, 70, 71, 72, 73, 74, 75, 76, 77, 78, 79, 80, 81, 82, 83, 84, 85, 86, 87, 88, 89, 90, 91, 92, 93, 94, 95, 96, 97, 98, 99, 100, 101, 102, 103, 104, 105, 106, 107, 108, 109, 110, 111, 112, 113, 114, 115, 116, 117, 118, 119, 120, 121, 122, 123, 124, 125, 126, 127, 128, 129, 130, 131, 132, 133, 134, 135, 136, 137, 138, 139, 140, 141, 142, 143, 144, 145, 146, 147, 148, 149, 150, 151, 152, 153, 154, 155, 156, 157, 158, 159, 160, 161, 162, 163, 164, 165, 166, 167, 168, 169, 170, 171, 172, 173, 174, 175, 176, 177, 178, 179, 180, 181, 182, 183, 184, 185, 186, 187, 188, 189, 190, 191, 192, 193, 194, 195, 196, 197, 198, 199, 200, 201, 202, 203, 204, 205, 206, 207, 208, 209, 210, 211, 212, 213, 214, 215, 216, 217, 218, 219, 220, 221, 222, 223, 224, 225, 226, 227, 228, 229, 230, 231, 232, 233, 234, 235, 236, 237, 238, 239, 240, 241, 242, 243, 244, 245, 246, 247, 248, 249, 250, 251, 252, 253, 254, 255, 256, 257, 258, 259, 260, 261, 262, 263, 264, 265, 266, 267, 268, 269, 270, 271, 272, 273, 274, 275, 276, 277, 278, 279, 280, 281, 282, 283, 284, 285, 286, 287, 288, 289, 290, 291, 292, 293, 294, 295, 296, 297, 298, 299, 300, 301, 302, 303, 304, 305, 306, 307, 308, 309, 310, 311, 312, 313, 314, 315, 316, 317, 318, 319, 320, 321, 322, 323, 324, 325, 326, 327, 328, 329, 330, 331, 332, 333, 334, 335, 336, 337, 338, 339, 340, 341, 342, 343, 344, 345, 346, 347, 348, 349, 350, 351, 352, 353, 354, 355, 356, 357, 358, 359, 360, 361, 362, 363, 364, 365, 366, 367, 368, 369, 370, 371, 372, 373, 374, 375, 376, 377, 378, 379, 380, 381, 382, 383, 384, 385, 386, 387, 388, 389, 390, 391, 392, 393, 394, 395, 396, 397, 398],
      "AcquisitionTime": ["145244.550000", "145246.040000", "145247.530000", "145249.020000", "145250.510000", "145252.000000", "145253.490000", "145254.980000", "145256.470000", "145257.960000", "145259.450000", "145300.940000", "145302.430000", "145303.920000", "145305.410000", "145306.900000", "145308.390000", "145309.880000", "145311.370000", "145312.860000", "145314.350000", "145315.840000", "145317.330000", "145318.820000", "145320.310000", "145321.800000", "145323.290000", "145324.780000", "145326.270000", "145327.760000", "145329.250000", "145330.740000", "145332.230000", "145333.720000", "145335.210000", "145336.700000", "145338.190000", "145339.680000", "145341.170000", "145342.660000", "145344.150000", "145345.640000", "145347.130000", "145348.620000", "145350.110000", "145351.600000", "145353.090000", "145354.580000", "145356.070000", "145357.560000", "145359.050000", "145400.540000", "145402.030000", "145403.520000", "145405.010000", "145406.500000", "145407.990000", "145409.480000", "145410.970000", "145412.460000", "145413.950000", "145415.440000", "145416.930000", "145418.420000", "145419.910000", "145421.400000", "145422.890000", "145424.380000", "145425.870000", "145427.360000", "145428.850000", "145430.340000", "145431.830000", "145433.320000", "145434.810000", "145436.300000", "145437.790000", "145439.280000", "145440.770000", "145442.260000", "145443.750000", "145445.240000", "145446.730000", "145448.220000", "145449.710000", "145451.200000", "145452.690000", "145454.180000", "145455.670000", "145457.160000", "145458.650000", "145500.140000", "145501.630000", "145503.120000", "145504.610000", "145506.100000", "145507.590000", "145509.080000", "145510.570000", "145512.060000", "145513.550000", "145515.040000", "145516.530000", "145518.020000", "145519.510000", "145521.000000", "145522.490000", "145523.980000", "145525.470000", "145526.960000", "145528.450000", "145529.940000", "145531.430000", "145532.920000", "145534.410000", "145535.900000", "145537.390000", "145538.880000", "145540.370000", "145541.860000", "145543.350000", "145544.840000", "145546.330000", "145547.820000", "145549.310000", "145550.800000", "145552.290000", "145553.780000", "145555.270000", "145556.760000", "145558.250000", "145559.740000", "145601.230000", "145602.720000", "145604.210000", "145605.700000", "145607.190000", "145608.680000", "145610.170000", "145611.660000", "145613.150000", "145614.640000", "145616.130000", "145617.620000", "145619.110000", "145620.600000", "145622.090000", "145623.580000", "145625.070000", "145626.560000", "145628.050000", "145629.540000", "145631.030000", "145632.520000", "145634.010000", "145635.500000", "145636.990000", "145638.480000", "145639.970000", "145641.460000", "145642.950000", "145644.440000", "145645.930000", "145647.420000", "145648.910000", "145650.400000", "145651.890000", "145653.380000", "145654.870000", "145656.360000", "145657.850000", "145659.340000", "145700.830000", "145702.320000", "145703.810000", "145705.300000", "145706.790000", "145708.280000", "145709.770000", "145711.260000", "145712.750000", "145714.240000", "145715.730000", "145717.220000", "145718.710000", "145720.200000", "145721.690000", "145723.180000", "145724.670000", "145726.160000", "145727.650000", "145729.140000", "145730.630000", "145732.120000", "145733.610000", "145735.100000", "145736.590000", "145738.080000", "145739.570000", "145741.060000", "145742.550000", "145744.040000", "145745.530000", "145747.020000", "145748.510000", "145750.000000", "145751.490000", "145752.980000", "145754.470000", "145755.960000", "145757.450000", "145758.940000", "145800.430000", "145801.920000", "145803.410000", "145804.900000", "145806.390000", "145807.880000", "145809.370000", "145810.860000", "145812.350000", "145813.840000", "145815.330000", "145816.820000", "145818.310000", "145819.800000", "145821.290000", "145822.780000", "145824.270000", "145825.760000", "145827.250000", "145828.740000", "145830.230000", "145831.720000", "145833.210000", "145834.700000", "145836.190000", "145837.680000", "145839.170000", "145840.660000", "145842.150000", "145843.640000", "145845.130000", "145846.620000", "145848.110000", "145849.600000", "145851.090000", "145852.580000", "145854.070000", "145855.560000", "145857.050000", "145858.540000", "145900.030000", "145901.520000", "145903.010000", "145904.500000", "145905.990000", "145907.480000", "145908.970000", "145910.460000", "145911.950000", "145913.440000", "145914.930000", "145916.420000", "145917.910000", "145919.400000", "145920.890000", "145922.380000", "145923.870000", "145925.360000", "145926.850000", "145928.340000", "145929.830000", "145931.320000", "145932.810000", "145934.300000", "145935.790000", "145937.280000", "145938.770000", "145940.260000", "145941.750000", "145943.240000", "145944.730000", "145946.220000", "145947.710000", "145949.200000", "145950.690000", "145952.180000", "145953.670000", "145955.160000", "145956.650000", "145958.140000", "145959.630000", "150001.120000", "150002.610000", "150004.100000", "150005.590000", "150007.080000", "150008.570000", "150010.060000", "150011.550000", "150013.040000", "150014.530000", "150016.020000", "150017.510000", "150019.000000", "150020.490000", "150021.980000", "150023.470000", "150024.960000", "150026.450000", "150027.940000", "150029.430000", "150030.920000", "150032.410000", "150033.900000", "150035.390000", "150036.880000", "150038.370000", "150039.860000", "150041.350000", "150042.840000", "150044.330000", "150045.820000", "150047.310000", "150048.800000", "150050.290000", "150051.780000", "150053.270000", "150054.760000", "150056.250000", "150057.740000", "150059.230000", "150100.720000", "150102.210000", "150103.700000", "150105.190000", "150106.680000", "150108.170000", "150109.660000", "150111.150000", "150112.640000", "150114.130000", "150115.620000", "150117.110000", "150118.600000", "150120.090000", "150121.580000", "150123.070000", "150124.560000", "150126.050000", "150127.540000", "150129.030000", "150130.520000", "150132.010000", "150133.500000", "150134.990000", "150136.480000", "150137.970000", "150139.460000", "150140.950000", "150142.440000", "150143.930000", "150145.420000", "150146.910000", "150148.400000", "150149.890000", "150151.380000", "150152.870000", "150154.360000", "150155.850000", "150157.340000", "150158.830000", "150200.320000", "150201.810000", "150203.300000", "150204.790000", "150206.280000", "150207.770000", "150209.260000", "150210.750000", "150212.240000", "150213.730000", "150215.220000", "150216.710000", "150218.200000", "150219.690000", "150221.180000", "150222.670000", "150224.160000", "150225.650000", "150227.140000", "150228.630000", "150230.120000", "150231.610000", "150233.100000", "150234.590000", "150236.080000"],
      "ContentTime": ["145351.437000", "145351.440000", "145351.443000", "145351.446000", "145351.449000", "145351.452000", "145351.455000", "145351.458000", "145351.461000", "145351.463000", "145351.466000", "145351.469000", "145351.472000", "145351.475000", "145351.478000", "145351.481000", "145351.483000", "145351.486000", "145411.406000", "145411.409000", "145411.412000", "145411.415000", "145411.418000", "145411.421000", "145411.423000", "145411.426000", "145411.429000", "145411.432000", "145411.435000", "145411.438000", "145411.441000", "145411.444000", "145411.446000", "145411.449000", "145411.452000", "145411.455000", "145411.458000", "145411.461000", "145431.405000", "145431.408000", "145431.411000", "145431.414000", "145431.423000", "145431.426000", "145431.429000", "145431.431000", "145431.435000", "145431.437000", "145431.440000", "145431.443000", "145431.446000", "145431.449000", "145431.452000", "145431.455000", "145431.458000", "145431.461000", "145431.464000", "145431.466000", "145451.405000", "145451.408000", "145451.411000", "145451.414000", "145451.416000", "145451.419000", "145451.422000", "145451.425000", "145451.428000", "145451.431000", "145451.434000", "145451.437000", "145451.440000", "145451.442000", "145451.445000", "145451.448000", "145451.451000", "145451.454000", "145451.457000", "145451.460000", "145531.405000", "145531.408000", "145531.411000", "145531.414000", "145531.417000", "145531.420000", "145531.423000", "145531.426000", "145531.429000", "145531.431000", "145531.443000", "145531.446000", "145531.449000", "145531.452000", "145531.455000", "145531.458000", "145531.461000", "145531.464000", "145531.467000", "145531.469000", "145531.472000", "145531.475000", "145531.478000", "145531.481000", "145531.484000", "145531.487000", "145531.490000", "145531.493000", "145531.496000", "145531.499000", "145531.502000", "145531.505000", "145531.508000", "145611.405000", "145611.408000", "145611.411000", "145611.414000", "145611.417000", "145611.420000", "145611.430000", "145611.433000", "145611.436000", "145611.438000", "145611.441000", "145611.444000", "145611.447000", "145611.450000", "145611.453000", "145611.456000", "145611.459000", "145611.462000", "145611.465000", "145611.468000", "145611.471000", "145611.474000", "145611.477000", "145611.480000", "145611.482000", "145611.485000", "145611.488000", "145651.405000", "145651.408000", "145651.411000", "145651.414000", "145651.417000", "145651.420000", "145651.423000", "145651.426000", "145651.429000", "145651.432000", "145651.435000", "145651.438000", "145651.440000", "145651.443000", "145651.446000", "145651.449000", "145651.452000", "145651.455000", "145651.458000", "145651.461000", "145651.464000", "145651.467000", "145651.470000", "145651.473000", "145651.476000", "145651.479000", "145651.482000", "145731.405000", "145731.408000", "145731.411000", "145731.414000", "145731.436000", "145731.439000", "145731.442000", "145731.445000", "145731.448000", "145731.451000", "145731.454000", "145731.457000", "145731.460000", "145731.463000", "145731.466000", "145731.469000", "145731.472000", "145731.475000", "145731.478000", "145731.481000", "145731.484000", "145731.487000", "145731.490000", "145731.493000", "145731.495000", "145731.498000", "145811.405000", "145811.408000", "145811.411000", "145811.414000", "145811.417000", "145811.420000", "145811.423000", "145811.426000", "145811.429000", "145811.432000", "145811.434000", "145811.437000", "145811.440000", "145811.443000", "145811.446000", "145811.449000", "145811.452000", "145811.455000", "145811.458000", "145811.461000", "145811.464000", "145811.467000", "145811.470000", "145811.472000", "145811.475000", "145811.478000", "145811.481000", "145851.406000", "145851.409000", "145851.412000", "145851.415000", "145851.418000", "145851.421000", "145851.424000", "145851.426000", "145851.429000", "145851.432000", "145851.435000", "145851.438000", "145851.441000", "145851.444000", "145851.447000", "145851.450000", "145851.453000", "145851.455000", "145851.458000", "145851.461000", "145851.464000", "145851.467000", "145851.470000", "145851.473000", "145851.476000", "145851.478000", "145851.481000", "145931.405000", "145931.408000", "145931.411000", "145931.414000", "145931.417000", "145931.420000", "145931.423000", "145931.425000", "145931.428000", "145931.431000", "145931.434000", "145931.437000", "145931.440000", "145931.443000", "145931.446000", "145931.449000", "145931.452000", "145931.454000", "145931.458000", "145931.461000", "145931.464000", "145931.466000", "145931.469000", "145931.472000", "145931.475000", "145931.478000", "145931.481000", "150011.405000", "150011.408000", "150011.411000", "150011.414000", "150011.417000", "150011.420000", "150011.422000", "150011.425000", "150011.428000", "150011.431000", "150011.434000", "150011.437000", "150011.440000", "150011.443000", "150011.445000", "150011.448000", "150011.451000", "150011.454000", "150011.457000", "150011.460000", "150011.463000", "150011.466000", "150011.469000", "150011.471000", "150011.474000", "150011.477000", "150011.480000", "150051.405000", "150051.408000", "150051.411000", "150051.414000", "150051.417000", "150051.420000", "150051.422000", "150051.425000", "150051.428000", "150051.431000", "150051.434000", "150051.437000", "150051.440000", "150051.443000", "150051.446000", "150051.449000", "150051.452000", "150051.454000", "150051.457000", "150051.460000", "150051.463000", "150051.466000", "150051.469000", "150051.472000", "150051.475000", "150051.478000", "150051.480000", "150131.405000", "150131.409000", "150131.412000", "150131.415000", "150131.418000", "150131.421000", "150131.424000", "150131.427000", "150131.430000", "150131.433000", "150131.436000", "150131.438000", "150131.441000", "150131.444000", "150131.447000", "150131.450000", "150131.453000", "150131.456000", "150131.459000", "150131.462000", "150131.464000", "150131.467000", "150131.470000", "150131.473000", "150131.476000", "150131.479000", "150131.482000", "150211.405000", "150211.408000", "150211.411000", "150211.414000", "150211.417000", "150211.419000", "150211.422000", "150211.425000", "150211.428000", "150211.431000", "150211.434000", "150211.437000", "150211.440000", "150211.443000", "150211.446000", "150211.448000", "150211.451000", "150211.454000", "150211.457000", "150211.460000", "150211.463000", "150211.467000", "150211.470000", "150211.473000", "150211.476000", "150211.479000", "150238.475000", "150238.478000", "150238.481000", "150238.484000", "150238.487000", "150238.490000", "150238.493000", "150238.496000", "150238.499000", "150238.510000", "150238.513000", "150238.516000", "150238.519000", "150238.522000", "150238.524000", "150238.527000", "150238.530000", "150238.533000", "150238.536000"],
      "InstanceCreationTime": ["145351.437000", "145351.440000", "145351.443000", "145351.446000", "145351.449000", "145351.452000", "145351.455000", "145351.458000", "145351.461000", "145351.463000", "145351.466000", "145351.469000", "145351.472000", "145351.475000", "145351.478000", "145351.481000", "145351.483000", "145351.486000", "145411.406000", "145411.409000", "145411.412000", "145411.415000", "145411.418000", "145411.421000", "145411.423000", "145411.426000", "145411.429000", "145411.432000", "145411.435000", "145411.438000", "145411.441000", "145411.444000", "145411.446000", "145411.449000", "145411.452000", "145411.455000", "145411.458000", "145411.461000", "145431.405000", "145431.408000", "145431.411000", "145431.414000", "145431.423000", "145431.426000", "145431.429000", "145431.431000", "145431.435000", "145431.437000", "145431.440000", "145431.443000", "145431.446000", "145431.449000", "145431.452000", "145431.455000", "145431.458000", "145431.461000", "145431.464000", "145431.466000", "145451.405000", "145451.408000", "145451.411000", "145451.414000", "145451.416000", "145451.419000", "145451.422000", "145451.425000", "145451.428000", "145451.431000", "145451.434000", "145451.437000", "145451.440000", "145451.442000", "145451.445000", "145451.448000", "145451.451000", "145451.454000", "145451.457000", "145451.460000", "145531.405000", "145531.408000", "145531.411000", "145531.414000", "145531.417000", "145531.420000", "145531.423000", "145531.426000", "145531.429000", "145531.431000", "145531.443000", "145531.446000", "145531.449000", "145531.452000", "145531.455000", "145531.458000", "145531.461000", "145531.464000", "145531.467000", "145531.469000", "145531.472000", "145531.475000", "145531.478000", "145531.481000", "145531.484000", "145531.487000", "145531.490000", "145531.493000", "145531.496000", "145531.499000", "145531.502000", "145531.505000", "145531.508000", "145611.405000", "145611.408000", "145611.411000", "145611.414000", "145611.417000", "145611.420000", "145611.430000", "145611.433000", "145611.436000", "145611.438000", "145611.441000", "145611.444000", "145611.447000", "145611.450000", "145611.453000", "145611.456000", "145611.459000", "145611.462000", "145611.465000", "145611.468000", "145611.471000", "145611.474000", "145611.477000", "145611.480000", "145611.482000", "145611.485000", "145611.488000", "145651.405000", "145651.408000", "145651.411000", "145651.414000", "145651.417000", "145651.420000", "145651.423000", "145651.426000", "145651.429000", "145651.432000", "145651.435000", "145651.438000", "145651.440000", "145651.443000", "145651.446000", "145651.449000", "145651.452000", "145651.455000", "145651.458000", "145651.461000", "145651.464000", "145651.467000", "145651.470000", "145651.473000", "145651.476000", "145651.479000", "145651.482000", "145731.405000", "145731.408000", "145731.411000", "145731.414000", "145731.436000", "145731.439000", "145731.442000", "145731.445000", "145731.448000", "145731.451000", "145731.454000", "145731.457000", "145731.460000", "145731.463000", "145731.466000", "145731.469000", "145731.472000", "145731.475000", "145731.478000", "145731.481000", "145731.484000", "145731.487000", "145731.490000", "145731.493000", "145731.495000", "145731.498000", "145811.405000", "145811.408000", "145811.411000", "145811.414000", "145811.417000", "145811.420000", "145811.423000", "145811.426000", "145811.429000", "145811.432000", "145811.434000", "145811.437000", "145811.440000", "145811.443000", "145811.446000", "145811.449000", "145811.452000", "145811.455000", "145811.458000", "145811.461000", "145811.464000", "145811.467000", "145811.470000", "145811.472000", "145811.475000", "145811.478000", "145811.481000", "145851.406000", "145851.409000", "145851.412000", "145851.415000", "145851.418000", "145851.421000", "145851.424000", "145851.426000", "145851.429000", "145851.432000", "145851.435000", "145851.438000", "145851.441000", "145851.444000", "145851.447000", "145851.450000", "145851.453000", "145851.455000", "145851.458000", "145851.461000", "145851.464000", "145851.467000", "145851.470000", "145851.473000", "145851.476000", "145851.478000", "145851.481000", "145931.405000", "145931.408000", "145931.411000", "145931.414000", "145931.417000", "145931.420000", "145931.423000", "145931.425000", "145931.428000", "145931.431000", "145931.434000", "145931.437000", "145931.440000", "145931.443000", "145931.446000", "145931.449000", "145931.452000", "145931.454000", "145931.458000", "145931.461000", "145931.464000", "145931.466000", "145931.469000", "145931.472000", "145931.475000", "145931.478000", "145931.481000", "150011.405000", "150011.408000", "150011.411000", "150011.414000", "150011.417000", "150011.420000", "150011.422000", "150011.425000", "150011.428000", "150011.431000", "150011.434000", "150011.437000", "150011.440000", "150011.443000", "150011.445000", "150011.448000", "150011.451000", "150011.454000", "150011.457000", "150011.460000", "150011.463000", "150011.466000", "150011.469000", "150011.471000", "150011.474000", "150011.477000", "150011.480000", "150051.405000", "150051.408000", "150051.411000", "150051.414000", "150051.417000", "150051.420000", "150051.422000", "150051.425000", "150051.428000", "150051.431000", "150051.434000", "150051.437000", "150051.440000", "150051.443000", "150051.446000", "150051.449000", "150051.452000", "150051.454000", "150051.457000", "150051.460000", "150051.463000", "150051.466000", "150051.469000", "150051.472000", "150051.475000", "150051.478000", "150051.480000", "150131.405000", "150131.409000", "150131.412000", "150131.415000", "150131.418000", "150131.421000", "150131.424000", "150131.427000", "150131.430000", "150131.433000", "150131.436000", "150131.438000", "150131.441000", "150131.444000", "150131.447000", "150131.450000", "150131.453000", "150131.456000", "150131.459000", "150131.462000", "150131.464000", "150131.467000", "150131.470000", "150131.473000", "150131.476000", "150131.479000", "150131.482000", "150211.405000", "150211.408000", "150211.411000", "150211.414000", "150211.417000", "150211.419000", "150211.422000", "150211.425000", "150211.428000", "150211.431000", "150211.434000", "150211.437000", "150211.440000", "150211.443000", "150211.446000", "150211.448000", "150211.451000", "150211.454000", "150211.457000", "150211.460000", "150211.463000", "150211.467000", "150211.470000", "150211.473000", "150211.476000", "150211.479000", "150238.475000", "150238.478000", "150238.481000", "150238.484000", "150238.487000", "150238.490000", "150238.493000", "150238.496000", "150238.499000", "150238.510000", "150238.513000", "150238.516000", "150238.519000", "150238.522000", "150238.524000", "150238.527000", "150238.530000", "150238.533000", "150238.536000"],
      "InstanceNumber": [1, 2, 3, 4, 5, 6, 7, 8, 9, 10, 11, 12, 13, 14, 15, 16, 17, 18, 19, 20, 21, 22, 23, 24, 25, 26, 27, 28, 29, 30, 31, 32, 33, 34, 35, 36, 37, 38, 39, 40, 41, 42, 43, 44, 45, 46, 47, 48, 49, 50, 51, 52, 53, 54, 55, 56, 57, 58, 59, 60, 61, 62, 63, 64, 65, 66, 67, 68, 69, 70, 71, 72, 73, 74, 75, 76, 77, 78, 79, 80, 81, 82, 83, 84, 85, 86, 87, 88, 89, 90, 91, 92, 93, 94, 95, 96, 97, 98, 99, 100, 101, 102, 103, 104, 105, 106, 107, 108, 109, 110, 111, 112, 113, 114, 115, 116, 117, 118, 119, 120, 121, 122, 123, 124, 125, 126, 127, 128, 129, 130, 131, 132, 133, 134, 135, 136, 137, 138, 139, 140, 141, 142, 143, 144, 145, 146, 147, 148, 149, 150, 151, 152, 153, 154, 155, 156, 157, 158, 159, 160, 161, 162, 163, 164, 165, 166, 167, 168, 169, 170, 171, 172, 173, 174, 175, 176, 177, 178, 179, 180, 181, 182, 183, 184, 185, 186, 187, 188, 189, 190, 191, 192, 193, 194, 195, 196, 197, 198, 199, 200, 201, 202, 203, 204, 205, 206, 207, 208, 209, 210, 211, 212, 213, 214, 215, 216, 217, 218, 219, 220, 221, 222, 223, 224, 225, 226, 227, 228, 229, 230, 231, 232, 233, 234, 235, 236, 237, 238, 239, 240, 241, 242, 243, 244, 245, 246, 247, 248, 249, 250, 251, 252, 253, 254, 255, 256, 257, 258, 259, 260, 261, 262, 263, 264, 265, 266, 267, 268, 269, 270, 271, 272, 273, 274, 275, 276, 277, 278, 279, 280, 281, 282, 283, 284, 285, 286, 287, 288, 289, 290, 291, 292, 293, 294, 295, 296, 297, 298, 299, 300, 301, 302, 303, 304, 305, 306, 307, 308, 309, 310, 311, 312, 313, 314, 315, 316, 317, 318, 319, 320, 321, 322, 323, 324, 325, 326, 327, 328, 329, 330, 331, 332, 333, 334, 335, 336, 337, 338, 339, 340, 341, 342, 343, 344, 345, 346, 347, 348, 349, 350, 351, 352, 353, 354, 355, 356, 357, 358, 359, 360, 361, 362, 363, 364, 365, 366, 367, 368, 369, 370, 371, 372, 373, 374, 375, 376, 377, 378, 379, 380, 381, 382, 383, 384, 385, 386, 387, 388, 389, 390, 391, 392, 393, 394, 395, 396, 397, 398],
