{
  "AcquisitionMatrixPE": 104,
  "AcquisitionNumber": 1,
  "AcquisitionTime": "17:02:23.590000",
  "BandwidthPerPixelPhaseEncode": 17.17,
  "BaseResolution": 104,
  "BodyPartExamined": "BRAIN",
  "CoilString": "HC1-7;NC1_2",
  "ConsistencyInfo": "N4_VE11C_LATEST_20160120",
  "ConversionSoftware": "dcm2niix",
  "ConversionSoftwareVersion": "v1.0.20190902",
  "DerivedVendorReportedEchoSpacing": 0.000560011,
  "DeviceSerialNumber": "167006",
  "DwellTime": 2.1e-06,
  "EchoTime": 0.037,
  "EchoTrainLength": 104,
  "EffectiveEchoSpacing": 0.000560011,
  "FlipAngle": 52,
  "HeudiconvVersion": "0.10.0",
  "ImageComments": "Unaliased_MB4_PE3_LB",
  "ImageOrientationPatientDICOM": [0.997671, -0.0658716, -0.0177335, 0.0542066, 0.923336, -0.380147],
  "ImageType": [
    "ORIGINAL",
    "PRIMARY",
    "M",
    "MB",
    "ND",
    "MOSAIC"
],
  "ImagingFrequency": 123.259,
  "InPlanePhaseEncodingDirectionDICOM": "COL",
  "InstitutionAddress": "Chemin_Queen-Mary_4565_Montreal_District_CA_H3W_1W5",
  "InstitutionName": "IUGM",
  "InstitutionalDepartmentName": "Department",
  "MRAcquisitionType": "2D",
  "MagneticFieldStrength": 3,
  "Manufacturer": "Siemens",
  "ManufacturersModelName": "Prisma_fit",
  "Modality": "MR",
  "MultibandAccelerationFactor": 4,
  "PartialFourier": 1,
  "PatientPosition": "HFS",
  "PercentPhaseFOV": 100,
  "PhaseEncodingDirection": "j",
  "PhaseEncodingSteps": 104,
  "PhaseResolution": 1,
  "PixelBandwidth": 2290,
  "ProcedureStepDescription": "video_friends",
  "ProtocolName": "func_task-friends-s04e19a",
  "PulseSequenceDetails": "%CustomerSeq%_cmrr_mbep2d_bold",
  "ReceiveCoilActiveElements": "HC1-7;NC1,2",
  "ReceiveCoilName": "HeadNeck_64",
  "ReconMatrixPE": 104,
  "RepetitionTime": 1.49,
  "SAR": 0.0366323,
  "ScanOptions": "FS",
  "ScanningSequence": "EP",
  "SequenceName": "epfid2d1_104",
  "SequenceVariant": "SK_SS",
  "SeriesDescription": "func_task-friends-s04e19a",
  "SeriesNumber": 9,
  "ShimSetting": [612, -7294, -8813, 460, 6, -447, 61, 33],
  "SliceThickness": 2,
  "SliceTiming": [0, 0.785, 0.1, 0.8825, 0.1975, 0.98, 0.295, 1.08, 0.3925, 1.1775, 0.49, 1.275, 0.59, 1.3725, 0.6875, 0, 0.785, 0.1, 0.8825, 0.1975, 0.98, 0.295, 1.08, 0.3925, 1.1775, 0.49, 1.275, 0.59, 1.3725, 0.6875, 0, 0.785, 0.1, 0.8825, 0.1975, 0.98, 0.295, 1.08, 0.3925, 1.1775, 0.49, 1.275, 0.59, 1.3725, 0.6875, 0, 0.785, 0.1, 0.8825, 0.1975, 0.98, 0.295, 1.08, 0.3925, 1.1775, 0.49, 1.275, 0.59, 1.3725, 0.6875],
  "SoftwareVersions": "syngo_MR_E11",
  "SpacingBetweenSlices": 2,
  "StationName": "MRC35049",
  "TaskName": "s04e19a",
  "TotalReadoutTime": 0.0576811,
  "TxRefAmp": 238.882,
  "WipMemBlock": "78d3e15a-c49d-494f-b1ae-e1835fb6eeb5||Sequence: R016 ve11c/master r/e634e98; Dec 19 2017 11:00:25 by eja",
  "dcmmeta_affine": [
    [-1.9953410625457764, 0.10841315239667892, -0.08282966911792755, 96.25070190429688],
    [0.1317431479692459, 1.8466728925704956, -0.756599485874176, -76.35437774658203],
    [-0.035466987639665604, 0.7602931261062622, 1.8495124578475952, -58.09218215942383],
    [0.0, 0.0, 0.0, 1.0]
],
  "dcmmeta_reorient_transform": [
    [0.0, -1.0, 0.0, 103.0],
    [1.0, 0.0, 0.0, 0.0],
    [0.0, 0.0, 1.0, 0.0],
    [0.0, 0.0, 0.0, 1.0]
],
  "dcmmeta_shape": [104, 104, 60, 437],
  "dcmmeta_slice_dim": 2,
  "dcmmeta_version": 0.6,
  "global": {
    "const": {
      "AcquisitionMatrix": [104, 0, 0, 104],
      "AngioFlag": "N",
      "BitsAllocated": 16,
      "BitsStored": 16,
      "BodyPartExamined": "BRAIN",
      "Columns": 832,
      "EchoNumbers": 1,
      "EchoTime": 37.0,
      "EchoTrainLength": 104,
      "FlipAngle": 52.0,
      "HighBit": 15,
      "ImageOrientationPatient": [0.99767051596209, -0.0658715777037, -0.0177334946014, 0.05420657667712, 0.92333647306913, -0.3801465566663],
      "ImagePositionPatient": [-873.18377834351, -738.08738290989, 309.87468455778],
      "ImageType": [
        "ORIGINAL",
        "PRIMARY",
        "M",
        "MB",
        "ND",
        "MOSAIC"
],
      "ImagedNucleus": "1H",
      "ImagingFrequency": 123.258891,
      "InPlanePhaseEncodingDirection": "COL",
      "MRAcquisitionType": "2D",
      "MagneticFieldStrength": 3.0,
      "Manufacturer": "SIEMENS",
      "ManufacturerModelName": "Prisma_fit",
      "Modality": "MR",
      "NumberOfAverages": 1.0,
      "NumberOfPhaseEncodingSteps": 104,
      "PercentPhaseFieldOfView": 100.0,
      "PercentSampling": 100.0,
      "PerformedProcedureStepStartTime": "162807.111000",
      "PhotometricInterpretation": "MONOCHROME2",
      "PixelBandwidth": 2290.0,
      "PixelRepresentation": 0,
      "PixelSpacing": [2.0, 2.0],
      "ProtocolName": "func_task-friends-s04e19a",
      "RepetitionTime": 1490.0,
      "Rows": 832,
      "SAR": 0.03663229157155,
      "SamplesPerPixel": 1,
      "ScanOptions": "FS",
      "ScanningSequence": "EP",
      "SequenceName": "epfid2d1_104",
      "SequenceVariant": [
        "SK",
        "SS"
],
      "SeriesDescription": "func_task-friends-s04e19a",
      "SeriesNumber": 9,
      "SeriesTime": "170338.428000",
      "SliceLocation": -28.822476630958,
      "SliceThickness": 2.0,
      "SmallestImagePixelValue": 0,
      "SoftwareVersions": "syngo MR E11",
      "SpacingBetweenSlices": 1.9999999787416,
      "SpecificCharacterSet": "ISO_IR 100",
      "StudyID": "1",
      "StudyTime": "162807.060000",
      "TransmitCoilName": "Body",
      "VariableFlipAngleFlag": "N",
      "WindowCenterWidthExplanation": "Algo1",
      "dBdt": 0.0},
    "slices": {}
  },
  "time": {
    "samples": {
      "AcquisitionNumber": [1, 2, 3, 4, 5, 6, 7, 8, 9, 10, 11, 12, 13, 14, 15, 16, 17, 18, 19, 20, 21, 22, 23, 24, 25, 26, 27, 28, 29, 30, 31, 32, 33, 34, 35, 36, 37, 38, 39, 40, 41, 42, 43, 44, 45, 46, 47, 48, 49, 50, 51, 52, 53, 54, 55, 56, 57, 58, 59, 60, 61, 62, 63, 64, 65, 66, 67, 68, 69, 70, 71, 72, 73, 74, 75, 76, 77, 78, 79, 80, 81, 82, 83, 84, 85, 86, 87, 88, 89, 90, 91, 92, 93, 94, 95, 96, 97, 98, 99, 100, 101, 102, 103, 104, 105, 106, 107, 108, 109, 110, 111, 112, 113, 114, 115, 116, 117, 118, 119, 120, 121, 122, 123, 124, 125, 126, 127, 128, 129, 130, 131, 132, 133, 134, 135, 136, 137, 138, 139, 140, 141, 142, 143, 144, 145, 146, 147, 148, 149, 150, 151, 152, 153, 154, 155, 156, 157, 158, 159, 160, 161, 162, 163, 164, 165, 166, 167, 168, 169, 170, 171, 172, 173, 174, 175, 176, 177, 178, 179, 180, 181, 182, 183, 184, 185, 186, 187, 188, 189, 190, 191, 192, 193, 194, 195, 196, 197, 198, 199, 200, 201, 202, 203, 204, 205, 206, 207, 208, 209, 210, 211, 212, 213, 214, 215, 216, 217, 218, 219, 220, 221, 222, 223, 224, 225, 226, 227, 228, 229, 230, 231, 232, 233, 234, 235, 236, 237, 238, 239, 240, 241, 242, 243, 244, 245, 246, 247, 248, 249, 250, 251, 252, 253, 254, 255, 256, 257, 258, 259, 260, 261, 262, 263, 264, 265, 266, 267, 268, 269, 270, 271, 272, 273, 274, 275, 276, 277, 278, 279, 280, 281, 282, 283, 284, 285, 286, 287, 288, 289, 290, 291, 292, 293, 294, 295, 296, 297, 298, 299, 300, 301, 302, 303, 304, 305, 306, 307, 308, 309, 310, 311, 312, 313, 314, 315, 316, 317, 318, 319, 320, 321, 322, 323, 324, 325, 326, 327, 328, 329, 330, 331, 332, 333, 334, 335, 336, 337, 338, 339, 340, 341, 342, 343, 344, 345, 346, 347, 348, 349, 350, 351, 352, 353, 354, 355, 356, 357, 358, 359, 360, 361, 362, 363, 364, 365, 366, 367, 368, 369, 370, 371, 372, 373, 374, 375, 376, 377, 378, 379, 380, 381, 382, 383, 384, 385, 386, 387, 388, 389, 390, 391, 392, 393, 394, 395, 396, 397, 398, 399, 400, 401, 402, 403, 404, 405, 406, 407, 408, 409, 410, 411, 412, 413, 414, 415, 416, 417, 418, 419, 420, 421, 422, 423, 424, 425, 426, 427, 428, 429, 430, 431, 432, 433, 434, 435, 436, 437],
      "AcquisitionTime": ["170223.590000", "170225.080000", "170226.570000", "170228.060000", "170229.550000", "170231.040000", "170232.530000", "170234.020000", "170235.510000", "170237.000000", "170238.490000", "170239.980000", "170241.470000", "170242.960000", "170244.450000", "170245.940000", "170247.430000", "170248.920000", "170250.410000", "170251.900000", "170253.390000", "170254.880000", "170256.370000", "170257.860000", "170259.350000", "170300.840000", "170302.330000", "170303.820000", "170305.310000", "170306.800000", "170308.290000", "170309.780000", "170311.270000", "170312.760000", "170314.250000", "170315.740000", "170317.230000", "170318.720000", "170320.210000", "170321.700000", "170323.190000", "170324.680000", "170326.170000", "170327.660000", "170329.150000", "170330.640000", "170332.130000", "170333.620000", "170335.110000", "170336.600000", "170338.090000", "170339.580000", "170341.070000", "170342.560000", "170344.050000", "170345.540000", "170347.030000", "170348.520000", "170350.010000", "170351.500000", "170352.990000", "170354.480000", "170355.970000", "170357.460000", "170358.950000", "170400.440000", "170401.930000", "170403.420000", "170404.910000", "170406.400000", "170407.890000", "170409.380000", "170410.870000", "170412.360000", "170413.850000", "170415.340000", "170416.830000", "170418.320000", "170419.810000", "170421.300000", "170422.790000", "170424.280000", "170425.770000", "170427.260000", "170428.750000", "170430.240000", "170431.730000", "170433.220000", "170434.710000", "170436.200000", "170437.690000", "170439.180000", "170440.670000", "170442.160000", "170443.650000", "170445.140000", "170446.630000", "170448.120000", "170449.610000", "170451.100000", "170452.590000", "170454.080000", "170455.570000", "170457.060000", "170458.550000", "170500.040000", "170501.530000", "170503.020000", "170504.510000", "170506.000000", "170507.490000", "170508.980000", "170510.470000", "170511.960000", "170513.450000", "170514.940000", "170516.430000", "170517.920000", "170519.410000", "170520.900000", "170522.390000", "170523.880000", "170525.370000", "170526.860000", "170528.350000", "170529.840000", "170531.330000", "170532.820000", "170534.310000", "170535.800000", "170537.290000", "170538.780000", "170540.270000", "170541.760000", "170543.250000", "170544.740000", "170546.230000", "170547.720000", "170549.210000", "170550.700000", "170552.190000", "170553.680000", "170555.170000", "170556.660000", "170558.150000", "170559.640000", "170601.130000", "170602.620000", "170604.110000", "170605.600000", "170607.090000", "170608.580000", "170610.070000", "170611.560000", "170613.050000", "170614.540000", "170616.030000", "170617.520000", "170619.010000", "170620.500000", "170621.990000", "170623.480000", "170624.970000", "170626.460000", "170627.950000", "170629.440000", "170630.930000", "170632.420000", "170633.910000", "170635.400000", "170636.890000", "170638.380000", "170639.870000", "170641.360000", "170642.850000", "170644.340000", "170645.830000", "170647.320000", "170648.810000", "170650.300000", "170651.790000", "170653.280000", "170654.770000", "170656.260000", "170657.750000", "170659.240000", "170700.730000", "170702.220000", "170703.710000", "170705.200000", "170706.690000", "170708.180000", "170709.670000", "170711.160000", "170712.650000", "170714.140000", "170715.630000", "170717.120000", "170718.610000", "170720.100000", "170721.590000", "170723.080000", "170724.570000", "170726.060000", "170727.550000", "170729.040000", "170730.530000", "170732.020000", "170733.510000", "170735.000000", "170736.490000", "170737.980000", "170739.470000", "170740.960000", "170742.450000", "170743.940000", "170745.430000", "170746.920000", "170748.410000", "170749.900000", "170751.390000", "170752.880000", "170754.370000", "170755.860000", "170757.350000", "170758.840000", "170800.330000", "170801.820000", "170803.310000", "170804.800000", "170806.290000", "170807.780000", "170809.270000", "170810.760000", "170812.250000", "170813.740000", "170815.230000", "170816.720000", "170818.210000", "170819.700000", "170821.190000", "170822.680000", "170824.170000", "170825.660000", "170827.150000", "170828.640000", "170830.130000", "170831.620000", "170833.110000", "170834.600000", "170836.090000", "170837.580000", "170839.070000", "170840.560000", "170842.050000", "170843.540000", "170845.030000", "170846.520000", "170848.010000", "170849.500000", "170850.990000", "170852.480000", "170853.970000", "170855.460000", "170856.950000", "170858.440000", "170859.930000", "170901.420000", "170902.910000", "170904.400000", "170905.890000", "170907.380000", "170908.870000", "170910.360000", "170911.850000", "170913.340000", "170914.830000", "170916.320000", "170917.810000", "170919.300000", "170920.790000", "170922.280000", "170923.770000", "170925.260000", "170926.750000", "170928.240000", "170929.730000", "170931.220000", "170932.710000", "170934.200000", "170935.690000", "170937.180000", "170938.670000", "170940.160000", "170941.650000", "170943.140000", "170944.630000", "170946.120000", "170947.610000", "170949.100000", "170950.590000", "170952.080000", "170953.570000", "170955.060000", "170956.550000", "170958.040000", "170959.530000", "171001.020000", "171002.510000", "171004.000000", "171005.490000", "171006.980000", "171008.470000", "171009.960000", "171011.450000", "171012.940000", "171014.430000", "171015.920000", "171017.410000", "171018.900000", "171020.390000", "171021.880000", "171023.370000", "171024.860000", "171026.350000", "171027.840000", "171029.330000", "171030.820000", "171032.310000", "171033.800000", "171035.290000", "171036.780000", "171038.270000", "171039.760000", "171041.250000", "171042.740000", "171044.230000", "171045.720000", "171047.210000", "171048.700000", "171050.190000", "171051.680000", "171053.170000", "171054.660000", "171056.150000", "171057.640000", "171059.130000", "171100.620000", "171102.110000", "171103.600000", "171105.090000", "171106.580000", "171108.070000", "171109.560000", "171111.050000", "171112.540000", "171114.030000", "171115.520000", "171117.010000", "171118.500000", "171119.990000", "171121.480000", "171122.970000", "171124.460000", "171125.950000", "171127.440000", "171128.930000", "171130.420000", "171131.910000", "171133.400000", "171134.890000", "171136.380000", "171137.870000", "171139.360000", "171140.850000", "171142.340000", "171143.830000", "171145.320000", "171146.810000", "171148.300000", "171149.790000", "171151.280000", "171152.770000", "171154.260000", "171155.750000", "171157.240000", "171158.730000", "171200.220000", "171201.710000", "171203.200000", "171204.690000", "171206.180000", "171207.670000", "171209.160000", "171210.650000", "171212.140000", "171213.630000", "171215.120000", "171216.610000", "171218.100000", "171219.590000", "171221.080000", "171222.570000", "171224.060000", "171225.550000", "171227.040000", "171228.530000", "171230.020000", "171231.510000", "171233.000000", "171234.490000", "171235.980000", "171237.470000", "171238.960000", "171240.450000", "171241.940000", "171243.430000", "171244.920000", "171246.410000", "171247.900000", "171249.390000", "171250.880000", "171252.370000", "171253.860000", "171255.350000", "171256.840000", "171258.330000", "171259.820000", "171301.310000", "171302.800000", "171304.290000", "171305.780000", "171307.270000", "171308.760000", "171310.250000", "171311.740000", "171313.230000"],
      "ContentTime": ["170338.431000", "170338.435000", "170338.438000", "170338.440000", "170338.443000", "170338.446000", "170338.449000", "170338.452000", "170338.455000", "170338.457000", "170338.460000", "170338.471000", "170338.474000", "170338.483000", "170338.486000", "170338.489000", "170338.491000", "170338.494000", "170338.497000", "170338.500000", "170338.503000", "170418.398000", "170418.401000", "170418.404000", "170418.407000", "170418.409000", "170418.412000", "170418.415000", "170418.418000", "170418.421000", "170418.424000", "170418.426000", "170418.429000", "170418.432000", "170418.435000", "170418.438000", "170418.441000", "170418.443000", "170418.446000", "170418.449000", "170418.452000", "170418.455000", "170418.458000", "170418.460000", "170418.463000", "170418.466000", "170418.469000", "170418.472000", "170418.475000", "170418.477000", "170418.480000", "170418.483000", "170418.490000", "170418.493000", "170418.496000", "170418.498000", "170418.501000", "170418.504000", "170418.507000", "170418.510000", "170418.513000", "170438.398000", "170438.401000", "170438.404000", "170438.407000", "170438.410000", "170438.413000", "170438.415000", "170438.418000", "170438.421000", "170438.424000", "170438.427000", "170438.430000", "170438.432000", "170438.435000", "170438.438000", "170438.441000", "170438.444000", "170438.447000", "170438.450000", "170438.452000", "170458.398000", "170458.401000", "170458.404000", "170458.406000", "170458.409000", "170458.412000", "170458.415000", "170458.418000", "170458.421000", "170458.424000", "170458.426000", "170458.429000", "170458.432000", "170458.435000", "170458.438000", "170458.441000", "170458.443000", "170458.446000", "170458.449000", "170458.452000", "170538.397000", "170538.400000", "170538.403000", "170538.406000", "170538.409000", "170538.411000", "170538.414000", "170538.417000", "170538.420000", "170538.423000", "170538.426000", "170538.429000", "170538.432000", "170538.434000", "170538.437000", "170538.440000", "170538.443000", "170538.446000", "170538.449000", "170538.451000", "170538.454000", "170538.457000", "170538.460000", "170538.463000", "170538.466000", "170538.468000", "170538.471000", "170538.481000", "170538.484000", "170618.398000", "170618.401000", "170618.404000", "170618.407000", "170618.410000", "170618.412000", "170618.415000", "170618.418000", "170618.421000", "170618.424000", "170618.427000", "170618.430000", "170618.444000", "170618.447000", "170618.449000", "170618.452000", "170618.455000", "170618.458000", "170618.461000", "170618.464000", "170618.466000", "170618.469000", "170618.472000", "170618.475000", "170618.478000", "170618.481000", "170618.484000", "170658.398000", "170658.401000", "170658.404000", "170658.406000", "170658.409000", "170658.412000", "170658.415000", "170658.418000", "170658.421000", "170658.424000", "170658.426000", "170658.429000", "170658.433000", "170658.436000", "170658.439000", "170658.442000", "170658.445000", "170658.447000", "170658.450000", "170658.453000", "170658.456000", "170658.459000", "170658.462000", "170658.464000", "170658.467000", "170658.470000", "170738.397000", "170738.400000", "170738.403000", "170738.406000", "170738.409000", "170738.412000", "170738.415000", "170738.417000", "170738.420000", "170738.423000", "170738.426000", "170738.429000", "170738.432000", "170738.435000", "170738.437000", "170738.440000", "170738.443000", "170738.446000", "170738.449000", "170738.452000", "170738.454000", "170738.457000", "170738.460000", "170738.463000", "170738.466000", "170738.469000", "170738.472000", "170818.397000", "170818.400000", "170818.403000", "170818.406000", "170818.409000", "170818.412000", "170818.415000", "170818.418000", "170818.420000", "170818.423000", "170818.426000", "170818.429000", "170818.432000", "170818.435000", "170818.438000", "170818.441000", "170818.443000", "170818.446000", "170818.449000", "170818.452000", "170818.455000", "170818.458000", "170818.461000", "170818.464000", "170818.466000", "170818.469000", "170818.472000", "170858.398000", "170858.401000", "170858.404000", "170858.407000", "170858.410000", "170858.412000", "170858.415000", "170858.418000", "170858.421000", "170858.424000", "170858.427000", "170858.438000", "170858.441000", "170858.444000", "170858.447000", "170858.450000", "170858.452000", "170858.455000", "170858.458000", "170858.461000", "170858.464000", "170858.467000", "170858.469000", "170858.472000", "170858.476000", "170858.478000", "170858.481000", "170938.398000", "170938.401000", "170938.404000", "170938.407000", "170938.410000", "170938.412000", "170938.415000", "170938.418000", "170938.421000", "170938.424000", "170938.427000", "170938.430000", "170938.432000", "170938.435000", "170938.438000", "170938.441000", "170938.444000", "170938.447000", "170938.450000", "170938.452000", "170938.455000", "170938.458000", "170938.461000", "170938.464000", "170938.467000", "170938.470000", "170938.472000", "171018.397000", "171018.400000", "171018.403000", "171018.406000", "171018.409000", "171018.411000", "171018.414000", "171018.417000", "171018.420000", "171018.423000", "171018.426000", "171018.429000", "171018.432000", "171018.434000", "171018.437000", "171018.440000", "171018.443000", "171018.446000", "171018.449000", "171018.452000", "171018.454000", "171018.457000", "171018.460000", "171018.463000", "171018.466000", "171018.469000", "171018.472000", "171058.398000", "171058.401000", "171058.404000", "171058.407000", "171058.410000", "171058.412000", "171058.415000", "171058.418000", "171058.432000", "171058.436000", "171058.440000", "171058.443000", "171058.447000", "171058.450000", "171058.453000", "171058.456000", "171058.459000", "171058.461000", "171058.464000", "171058.467000", "171058.470000", "171058.473000", "171058.476000", "171058.478000", "171058.481000", "171058.484000", "171138.398000", "171138.401000", "171138.404000", "171138.407000", "171138.410000", "171138.412000", "171138.415000", "171138.418000", "171138.421000", "171138.424000", "171138.427000", "171138.430000", "171138.432000", "171138.435000", "171138.438000", "171138.441000", "171138.444000", "171138.447000", "171138.449000", "171138.452000", "171138.455000", "171138.458000", "171138.461000", "171138.464000", "171138.467000", "171138.469000", "171138.472000", "171218.397000", "171218.400000", "171218.403000", "171218.406000", "171218.409000", "171218.412000", "171218.414000", "171218.417000", "171218.420000", "171218.423000", "171218.426000", "171218.429000", "171218.432000", "171218.434000", "171218.437000", "171218.440000", "171218.443000", "171218.446000", "171218.449000", "171218.451000", "171218.454000", "171218.457000", "171218.460000", "171218.463000", "171218.466000", "171218.469000", "171218.471000", "171258.397000", "171258.400000", "171258.403000", "171258.406000", "171258.408000", "171258.411000", "171258.414000", "171258.417000", "171258.420000", "171258.423000", "171258.426000", "171258.429000", "171258.432000", "171258.434000", "171258.437000", "171258.440000", "171258.443000", "171258.446000", "171258.449000", "171258.452000", "171258.454000", "171258.457000", "171258.460000", "171258.463000", "171258.466000", "171258.469000", "171258.471000", "171315.581000", "171315.584000", "171315.587000", "171315.590000", "171315.593000", "171315.596000", "171315.599000", "171315.602000", "171315.605000", "171315.608000", "171315.611000", "171315.614000"],
