{
  "AcquisitionMatrixPE": 104,
  "AcquisitionNumber": 1,
  "AcquisitionTime": "17:36:30.227500",
  "BandwidthPerPixelPhaseEncode": 17.17,
  "BaseResolution": 104,
  "BodyPartExamined": "BRAIN",
  "CoilString": "HC1-7;NC1_2",
  "ConsistencyInfo": "N4_VE11C_LATEST_20160120",
  "ConversionSoftware": "dcm2niix",
  "ConversionSoftwareVersion": "v1.0.20190902",
  "DerivedVendorReportedEchoSpacing": 0.000560011,
  "DeviceSerialNumber": "167006",
  "DwellTime": 2.1e-06,
  "EchoTime": 0.037,
  "EchoTrainLength": 104,
  "EffectiveEchoSpacing": 0.000560011,
  "FlipAngle": 52,
  "HeudiconvVersion": "0.10.0",
  "ImageComments": "Unaliased_MB4_PE3_LB",
  "ImageOrientationPatientDICOM": [0.997671, -0.0658716, -0.0177335, 0.0542066, 0.923336, -0.380147],
  "ImageType": [
    "ORIGINAL",
    "PRIMARY",
    "M",
    "MB",
    "ND",
    "MOSAIC"
],
  "ImagingFrequency": 123.259,
  "InPlanePhaseEncodingDirectionDICOM": "COL",
  "InstitutionAddress": "Chemin_Queen-Mary_4565_Montreal_District_CA_H3W_1W5",
  "InstitutionName": "IUGM",
  "InstitutionalDepartmentName": "Department",
  "MRAcquisitionType": "2D",
  "MagneticFieldStrength": 3,
  "Manufacturer": "Siemens",
  "ManufacturersModelName": "Prisma_fit",
  "Modality": "MR",
  "MultibandAccelerationFactor": 4,
  "PartialFourier": 1,
  "PatientPosition": "HFS",
  "PercentPhaseFOV": 100,
  "PhaseEncodingDirection": "j",
  "PhaseEncodingSteps": 104,
  "PhaseResolution": 1,
  "PixelBandwidth": 2290,
  "ProcedureStepDescription": "video_friends",
  "ProtocolName": "func_task-friends-s04e20b",
  "PulseSequenceDetails": "%CustomerSeq%_cmrr_mbep2d_bold",
  "ReceiveCoilActiveElements": "HC1-7;NC1,2",
  "ReceiveCoilName": "HeadNeck_64",
  "ReconMatrixPE": 104,
  "RepetitionTime": 1.49,
  "SAR": 0.036636,
  "ScanOptions": "FS",
  "ScanningSequence": "EP",
  "SequenceName": "epfid2d1_104",
  "SequenceVariant": "SK_SS",
  "SeriesDescription": "func_task-friends-s04e20b",
  "SeriesNumber": 15,
  "ShimSetting": [612, -7294, -8813, 460, 6, -447, 61, 33],
  "SliceThickness": 2,
  "SliceTiming": [0, 0.7825, 0.0975, 0.8825, 0.195, 0.98, 0.2925, 1.0775, 0.3925, 1.175, 0.49, 1.2725, 0.5875, 1.3725, 0.685, 0, 0.7825, 0.0975, 0.8825, 0.195, 0.98, 0.2925, 1.0775, 0.3925, 1.175, 0.49, 1.2725, 0.5875, 1.3725, 0.685, 0, 0.7825, 0.0975, 0.8825, 0.195, 0.98, 0.2925, 1.0775, 0.3925, 1.175, 0.49, 1.2725, 0.5875, 1.3725, 0.685, 0, 0.7825, 0.0975, 0.8825, 0.195, 0.98, 0.2925, 1.0775, 0.3925, 1.175, 0.49, 1.2725, 0.5875, 1.3725, 0.685],
  "SoftwareVersions": "syngo_MR_E11",
  "SpacingBetweenSlices": 2,
  "StationName": "MRC35049",
  "TaskName": "s04e20b",
  "TotalReadoutTime": 0.0576811,
  "TxRefAmp": 238.882,
  "WipMemBlock": "42813779-ff67-4fa1-88b0-f0695266eb07||Sequence: R016 ve11c/master r/e634e98; Dec 19 2017 11:00:25 by eja",
  "dcmmeta_affine": [
    [-1.9953410625457764, 0.10841315239667892, -0.08282966911792755, 96.25070190429688],
    [0.1317431479692459, 1.8466728925704956, -0.756599485874176, -76.35437774658203],
    [-0.035466987639665604, 0.7602931261062622, 1.8495124578475952, -58.09218215942383],
    [0.0, 0.0, 0.0, 1.0]
],
  "dcmmeta_reorient_transform": [
    [0.0, -1.0, 0.0, 103.0],
    [1.0, 0.0, 0.0, 0.0],
    [0.0, 0.0, 1.0, 0.0],
    [0.0, 0.0, 0.0, 1.0]
],
  "dcmmeta_shape": [104, 104, 60, 447],
  "dcmmeta_slice_dim": 2,
  "dcmmeta_version": 0.6,
  "global": {
    "const": {
      "AcquisitionMatrix": [104, 0, 0, 104],
      "AngioFlag": "N",
      "BitsAllocated": 16,
      "BitsStored": 16,
      "BodyPartExamined": "BRAIN",
      "Columns": 832,
      "EchoNumbers": 1,
      "EchoTime": 37.0,
      "EchoTrainLength": 104,
      "FlipAngle": 52.0,
      "HighBit": 15,
      "ImageOrientationPatient": [0.99767051596209, -0.0658715777037, -0.0177334946014, 0.05420657667712, 0.92333647306913, -0.3801465566663],
      "ImagePositionPatient": [-873.18377834351, -738.08738290989, 309.87468455778],
      "ImageType": [
        "ORIGINAL",
        "PRIMARY",
        "M",
        "MB",
        "ND",
        "MOSAIC"
],
      "ImagedNucleus": "1H",
      "ImagingFrequency": 123.258913,
      "InPlanePhaseEncodingDirection": "COL",
      "MRAcquisitionType": "2D",
      "MagneticFieldStrength": 3.0,
      "Manufacturer": "SIEMENS",
      "ManufacturerModelName": "Prisma_fit",
      "Modality": "MR",
      "NumberOfAverages": 1.0,
      "NumberOfPhaseEncodingSteps": 104,
      "PercentPhaseFieldOfView": 100.0,
      "PercentSampling": 100.0,
      "PerformedProcedureStepStartTime": "162807.111000",
      "PhotometricInterpretation": "MONOCHROME2",
      "PixelBandwidth": 2290.0,
      "PixelRepresentation": 0,
      "PixelSpacing": [2.0, 2.0],
      "ProtocolName": "func_task-friends-s04e20b",
      "RepetitionTime": 1490.0,
      "Rows": 832,
      "SAR": 0.03663599062747,
      "SamplesPerPixel": 1,
      "ScanOptions": "FS",
      "ScanningSequence": "EP",
      "SequenceName": "epfid2d1_104",
      "SequenceVariant": [
        "SK",
        "SS"
],
      "SeriesDescription": "func_task-friends-s04e20b",
      "SeriesNumber": 15,
      "SeriesTime": "173758.425000",
      "SliceLocation": -28.822476630958,
      "SliceThickness": 2.0,
      "SmallestImagePixelValue": 0,
      "SoftwareVersions": "syngo MR E11",
      "SpacingBetweenSlices": 1.9999999787416,
      "SpecificCharacterSet": "ISO_IR 100",
      "StudyID": "1",
      "StudyTime": "162807.060000",
      "TransmitCoilName": "Body",
      "VariableFlipAngleFlag": "N",
      "WindowCenterWidthExplanation": "Algo1",
      "dBdt": 0.0},
    "slices": {}
  },
  "time": {
    "samples": {
      "AcquisitionNumber": [1, 2, 3, 4, 5, 6, 7, 8, 9, 10, 11, 12, 13, 14, 15, 16, 17, 18, 19, 20, 21, 22, 23, 24, 25, 26, 27, 28, 29, 30, 31, 32, 33, 34, 35, 36, 37, 38, 39, 40, 41, 42, 43, 44, 45, 46, 47, 48, 49, 50, 51, 52, 53, 54, 55, 56, 57, 58, 59, 60, 61, 62, 63, 64, 65, 66, 67, 68, 69, 70, 71, 72, 73, 74, 75, 76, 77, 78, 79, 80, 81, 82, 83, 84, 85, 86, 87, 88, 89, 90, 91, 92, 93, 94, 95, 96, 97, 98, 99, 100, 101, 102, 103, 104, 105, 106, 107, 108, 109, 110, 111, 112, 113, 114, 115, 116, 117, 118, 119, 120, 121, 122, 123, 124, 125, 126, 127, 128, 129, 130, 131, 132, 133, 134, 135, 136, 137, 138, 139, 140, 141, 142, 143, 144, 145, 146, 147, 148, 149, 150, 151, 152, 153, 154, 155, 156, 157, 158, 159, 160, 161, 162, 163, 164, 165, 166, 167, 168, 169, 170, 171, 172, 173, 174, 175, 176, 177, 178, 179, 180, 181, 182, 183, 184, 185, 186, 187, 188, 189, 190, 191, 192, 193, 194, 195, 196, 197, 198, 199, 200, 201, 202, 203, 204, 205, 206, 207, 208, 209, 210, 211, 212, 213, 214, 215, 216, 217, 218, 219, 220, 221, 222, 223, 224, 225, 226, 227, 228, 229, 230, 231, 232, 233, 234, 235, 236, 237, 238, 239, 240, 241, 242, 243, 244, 245, 246, 247, 248, 249, 250, 251, 252, 253, 254, 255, 256, 257, 258, 259, 260, 261, 262, 263, 264, 265, 266, 267, 268, 269, 270, 271, 272, 273, 274, 275, 276, 277, 278, 279, 280, 281, 282, 283, 284, 285, 286, 287, 288, 289, 290, 291, 292, 293, 294, 295, 296, 297, 298, 299, 300, 301, 302, 303, 304, 305, 306, 307, 308, 309, 310, 311, 312, 313, 314, 315, 316, 317, 318, 319, 320, 321, 322, 323, 324, 325, 326, 327, 328, 329, 330, 331, 332, 333, 334, 335, 336, 337, 338, 339, 340, 341, 342, 343, 344, 345, 346, 347, 348, 349, 350, 351, 352, 353, 354, 355, 356, 357, 358, 359, 360, 361, 362, 363, 364, 365, 366, 367, 368, 369, 370, 371, 372, 373, 374, 375, 376, 377, 378, 379, 380, 381, 382, 383, 384, 385, 386, 387, 388, 389, 390, 391, 392, 393, 394, 395, 396, 397, 398, 399, 400, 401, 402, 403, 404, 405, 406, 407, 408, 409, 410, 411, 412, 413, 414, 415, 416, 417, 418, 419, 420, 421, 422, 423, 424, 425, 426, 427, 428, 429, 430, 431, 432, 433, 434, 435, 436, 437, 438, 439, 440, 441, 442, 443, 444, 445, 446, 447],
      "AcquisitionTime": ["173630.227500", "173631.717500", "173633.207500", "173634.697500", "173636.187500", "173637.677500", "173639.167500", "173640.657500", "173642.147500", "173643.637500", "173645.127500", "173646.617500", "173648.107500", "173649.597500", "173651.087500", "173652.577500", "173654.067500", "173655.557500", "173657.047500", "173658.537500", "173700.027500", "173701.517500", "173703.007500", "173704.497500", "173705.987500", "173707.477500", "173708.967500", "173710.457500", "173711.947500", "173713.437500", "173714.927500", "173716.417500", "173717.907500", "173719.397500", "173720.887500", "173722.377500", "173723.867500", "173725.357500", "173726.847500", "173728.337500", "173729.827500", "173731.317500", "173732.807500", "173734.297500", "173735.787500", "173737.277500", "173738.767500", "173740.257500", "173741.747500", "173743.237500", "173744.727500", "173746.217500", "173747.707500", "173749.197500", "173750.687500", "173752.177500", "173753.667500", "173755.157500", "173756.647500", "173758.137500", "173759.627500", "173801.117500", "173802.607500", "173804.097500", "173805.587500", "173807.077500", "173808.567500", "173810.057500", "173811.547500", "173813.037500", "173814.527500", "173816.017500", "173817.507500", "173818.997500", "173820.487500", "173821.977500", "173823.467500", "173824.957500", "173826.447500", "173827.937500", "173829.427500", "173830.917500", "173832.407500", "173833.897500", "173835.387500", "173836.877500", "173838.367500", "173839.857500", "173841.347500", "173842.837500", "173844.327500", "173845.817500", "173847.307500", "173848.797500", "173850.287500", "173851.777500", "173853.267500", "173854.757500", "173856.247500", "173857.737500", "173859.227500", "173900.717500", "173902.207500", "173903.697500", "173905.187500", "173906.677500", "173908.167500", "173909.657500", "173911.147500", "173912.637500", "173914.127500", "173915.617500", "173917.107500", "173918.597500", "173920.087500", "173921.577500", "173923.067500", "173924.557500", "173926.047500", "173927.537500", "173929.027500", "173930.517500", "173932.007500", "173933.497500", "173934.987500", "173936.477500", "173937.967500", "173939.457500", "173940.947500", "173942.437500", "173943.927500", "173945.417500", "173946.907500", "173948.397500", "173949.887500", "173951.377500", "173952.867500", "173954.357500", "173955.847500", "173957.337500", "173958.827500", "174000.317500", "174001.807500", "174003.297500", "174004.787500", "174006.277500", "174007.767500", "174009.257500", "174010.747500", "174012.237500", "174013.727500", "174015.217500", "174016.707500", "174018.197500", "174019.687500", "174021.177500", "174022.667500", "174024.157500", "174025.647500", "174027.137500", "174028.627500", "174030.117500", "174031.607500", "174033.097500", "174034.587500", "174036.077500", "174037.567500", "174039.057500", "174040.547500", "174042.037500", "174043.527500", "174045.017500", "174046.507500", "174047.997500", "174049.487500", "174050.977500", "174052.467500", "174053.957500", "174055.447500", "174056.937500", "174058.427500", "174059.917500", "174101.407500", "174102.897500", "174104.387500", "174105.877500", "174107.367500", "174108.857500", "174110.347500", "174111.837500", "174113.327500", "174114.817500", "174116.307500", "174117.797500", "174119.287500", "174120.777500", "174122.267500", "174123.757500", "174125.247500", "174126.737500", "174128.227500", "174129.717500", "174131.207500", "174132.697500", "174134.187500", "174135.677500", "174137.167500", "174138.657500", "174140.147500", "174141.637500", "174143.127500", "174144.617500", "174146.107500", "174147.597500", "174149.087500", "174150.577500", "174152.067500", "174153.557500", "174155.047500", "174156.537500", "174158.027500", "174159.517500", "174201.007500", "174202.497500", "174203.987500", "174205.477500", "174206.967500", "174208.457500", "174209.947500", "174211.437500", "174212.927500", "174214.417500", "174215.907500", "174217.397500", "174218.887500", "174220.377500", "174221.867500", "174223.357500", "174224.847500", "174226.337500", "174227.827500", "174229.317500", "174230.807500", "174232.297500", "174233.787500", "174235.277500", "174236.767500", "174238.257500", "174239.747500", "174241.237500", "174242.727500", "174244.217500", "174245.707500", "174247.197500", "174248.687500", "174250.177500", "174251.667500", "174253.157500", "174254.647500", "174256.137500", "174257.627500", "174259.117500", "174300.607500", "174302.097500", "174303.587500", "174305.077500", "174306.567500", "174308.057500", "174309.547500", "174311.037500", "174312.527500", "174314.017500", "174315.507500", "174316.997500", "174318.487500", "174319.977500", "174321.467500", "174322.957500", "174324.447500", "174325.937500", "174327.427500", "174328.917500", "174330.407500", "174331.897500", "174333.387500", "174334.877500", "174336.367500", "174337.857500", "174339.347500", "174340.837500", "174342.327500", "174343.817500", "174345.307500", "174346.797500", "174348.287500", "174349.777500", "174351.267500", "174352.757500", "174354.247500", "174355.737500", "174357.227500", "174358.717500", "174400.207500", "174401.697500", "174403.187500", "174404.677500", "174406.167500", "174407.657500", "174409.147500", "174410.637500", "174412.127500", "174413.617500", "174415.107500", "174416.597500", "174418.087500", "174419.577500", "174421.067500", "174422.557500", "174424.047500", "174425.537500", "174427.027500", "174428.517500", "174430.007500", "174431.497500", "174432.987500", "174434.477500", "174435.967500", "174437.457500", "174438.947500", "174440.437500", "174441.927500", "174443.417500", "174444.907500", "174446.397500", "174447.887500", "174449.377500", "174450.867500", "174452.357500", "174453.847500", "174455.337500", "174456.827500", "174458.317500", "174459.807500", "174501.297500", "174502.787500", "174504.277500", "174505.767500", "174507.257500", "174508.747500", "174510.237500", "174511.727500", "174513.217500", "174514.707500", "174516.197500", "174517.687500", "174519.177500", "174520.667500", "174522.157500", "174523.647500", "174525.137500", "174526.627500", "174528.117500", "174529.607500", "174531.097500", "174532.587500", "174534.077500", "174535.567500", "174537.057500", "174538.547500", "174540.037500", "174541.527500", "174543.017500", "174544.507500", "174545.997500", "174547.487500", "174548.977500", "174550.467500", "174551.957500", "174553.447500", "174554.937500", "174556.427500", "174557.917500", "174559.407500", "174600.897500", "174602.387500", "174603.877500", "174605.367500", "174606.857500", "174608.347500", "174609.837500", "174611.327500", "174612.817500", "174614.307500", "174615.797500", "174617.287500", "174618.777500", "174620.267500", "174621.757500", "174623.247500", "174624.737500", "174626.227500", "174627.717500", "174629.207500", "174630.697500", "174632.187500", "174633.677500", "174635.167500", "174636.657500", "174638.147500", "174639.637500", "174641.127500", "174642.617500", "174644.107500", "174645.597500", "174647.087500", "174648.577500", "174650.067500", "174651.557500", "174653.047500", "174654.537500", "174656.027500", "174657.517500", "174659.007500", "174700.497500", "174701.987500", "174703.477500", "174704.967500", "174706.457500", "174707.947500", "174709.437500", "174710.927500", "174712.417500", "174713.907500", "174715.397500", "174716.887500", "174718.377500", "174719.867500", "174721.357500", "174722.847500", "174724.337500", "174725.827500", "174727.317500", "174728.807500", "174730.297500", "174731.787500", "174733.277500", "174734.767500"],
      "ContentTime": ["173758.428000", "173758.431000", "173758.434000", "173758.437000", "173758.439000", "173758.442000", "173758.445000", "173758.448000", "173758.451000", "173758.454000", "173758.457000", "173758.460000", "173758.462000", "173758.474000", "173758.476000", "173758.479000", "173758.482000", "173758.485000", "173758.488000", "173758.491000", "173758.493000", "173758.496000", "173758.499000", "173758.502000", "173758.505000", "173758.508000", "173758.510000", "173758.513000", "173758.516000", "173758.526000", "173758.529000", "173758.532000", "173758.534000", "173758.537000", "173758.540000", "173818.397000", "173818.400000", "173818.403000", "173818.406000", "173818.408000", "173818.411000", "173818.414000", "173818.417000", "173818.420000", "173818.423000", "173818.425000", "173818.428000", "173818.431000", "173818.434000", "173818.442000", "173818.444000", "173818.447000", "173818.450000", "173818.453000", "173818.456000", "173838.397000", "173838.400000", "173838.403000", "173838.406000", "173838.408000", "173838.411000", "173838.414000", "173838.417000", "173838.420000", "173838.423000", "173838.425000", "173838.428000", "173838.431000", "173838.434000", "173838.437000", "173838.440000", "173838.443000", "173838.445000", "173838.448000", "173838.451000", "173858.398000", "173858.401000", "173858.404000", "173858.407000", "173858.409000", "173858.412000", "173858.415000", "173858.418000", "173858.421000", "173858.424000", "173858.426000", "173858.429000", "173858.432000", "173858.435000", "173858.438000", "173858.456000", "173858.459000", "173858.462000", "173858.465000", "173858.468000", "173938.398000", "173938.401000", "173938.404000", "173938.407000", "173938.410000", "173938.412000", "173938.415000", "173938.418000", "173938.421000", "173938.424000", "173938.427000", "173938.429000", "173938.432000", "173938.435000", "173938.438000", "173938.441000", "173938.444000", "173938.446000", "173938.449000", "173938.452000", "173938.455000", "173938.458000", "173938.461000", "173938.463000", "173938.466000", "173938.469000", "173938.472000", "173938.475000", "173938.478000", "173938.480000", "173938.483000", "174018.397000", "174018.400000", "174018.403000", "174018.406000", "174018.408000", "174018.411000", "174018.414000", "174018.417000", "174018.420000", "174018.423000", "174018.425000", "174018.428000", "174018.431000", "174018.434000", "174018.437000", "174018.439000", "174018.442000", "174018.445000", "174018.448000", "174018.451000", "174018.454000", "174018.456000", "174018.459000", "174018.462000", "174018.465000", "174018.468000", "174018.471000", "174058.397000", "174058.400000", "174058.403000", "174058.406000", "174058.409000", "174058.411000", "174058.414000", "174058.417000", "174058.420000", "174058.423000", "174058.426000", "174058.428000", "174058.431000", "174058.434000", "174058.437000", "174058.440000", "174058.444000", "174058.447000", "174058.450000", "174058.453000", "174058.455000", "174058.458000", "174058.461000", "174058.464000", "174058.467000", "174058.470000", "174138.398000", "174138.401000", "174138.404000", "174138.407000", "174138.410000", "174138.412000", "174138.415000", "174138.418000", "174138.421000", "174138.424000", "174138.427000", "174138.430000", "174138.432000", "174138.435000", "174138.438000", "174138.441000", "174138.444000", "174138.447000", "174138.450000", "174138.452000", "174138.455000", "174138.458000", "174138.461000", "174138.464000", "174138.467000", "174138.469000", "174138.472000", "174218.398000", "174218.401000", "174218.404000", "174218.407000", "174218.410000", "174218.412000", "174218.415000", "174218.418000", "174218.421000", "174218.424000", "174218.427000", "174218.430000", "174218.432000", "174218.435000", "174218.438000", "174218.441000", "174218.444000", "174218.447000", "174218.450000", "174218.452000", "174218.455000", "174218.458000", "174218.461000", "174218.464000", "174218.467000", "174218.470000", "174218.473000", "174258.397000", "174258.400000", "174258.403000", "174258.406000", "174258.414000", "174258.416000", "174258.419000", "174258.422000", "174258.425000", "174258.428000", "174258.431000", "174258.434000", "174258.436000", "174258.439000", "174258.442000", "174258.445000", "174258.448000", "174258.451000", "174258.453000", "174258.456000", "174258.459000", "174258.462000", "174258.465000", "174258.468000", "174258.470000", "174258.473000", "174258.476000", "174338.398000", "174338.401000", "174338.404000", "174338.407000", "174338.409000", "174338.412000", "174338.415000", "174338.418000", "174338.421000", "174338.424000", "174338.427000", "174338.429000", "174338.432000", "174338.435000", "174338.438000", "174338.441000", "174338.444000", "174338.447000", "174338.449000", "174338.452000", "174338.455000", "174338.458000", "174338.461000", "174338.463000", "174338.466000", "174338.469000", "174338.472000", "174418.398000", "174418.401000", "174418.404000", "174418.407000", "174418.410000", "174418.412000", "174418.415000", "174418.418000", "174418.421000", "174418.424000", "174418.427000", "174418.430000", "174418.432000", "174418.435000", "174418.438000", "174418.441000", "174418.444000", "174418.447000", "174418.449000", "174418.452000", "174418.455000", "174418.458000", "174418.461000", "174418.464000", "174418.467000", "174418.469000", "174418.472000", "174458.397000", "174458.400000", "174458.403000", "174458.415000", "174458.417000", "174458.420000", "174458.423000", "174458.426000", "174458.429000", "174458.432000", "174458.434000", "174458.437000", "174458.440000", "174458.443000", "174458.446000", "174458.449000", "174458.452000", "174458.455000", "174458.458000", "174458.461000", "174458.463000", "174458.466000", "174458.469000", "174458.472000", "174458.475000", "174458.478000", "174538.398000", "174538.401000", "174538.404000", "174538.407000", "174538.410000", "174538.412000", "174538.415000", "174538.418000", "174538.421000", "174538.424000", "174538.426000", "174538.429000", "174538.432000", "174538.435000", "174538.438000", "174538.441000", "174538.444000", "174538.446000", "174538.449000", "174538.452000", "174538.455000", "174538.458000", "174538.460000", "174538.463000", "174538.466000", "174538.469000", "174538.472000", "174618.398000", "174618.401000", "174618.404000", "174618.407000", "174618.410000", "174618.412000", "174618.415000", "174618.418000", "174618.421000", "174618.424000", "174618.427000", "174618.430000", "174618.433000", "174618.435000", "174618.438000", "174618.441000", "174618.444000", "174618.447000", "174618.450000", "174618.452000", "174618.455000", "174618.458000", "174618.461000", "174618.464000", "174618.467000", "174618.470000", "174618.472000", "174658.397000", "174658.400000", "174658.403000", "174658.406000", "174658.409000", "174658.411000", "174658.414000", "174658.417000", "174658.420000", "174658.423000", "174658.426000", "174658.429000", "174658.432000", "174658.434000", "174658.437000", "174658.440000", "174658.443000", "174658.446000", "174658.449000", "174658.452000", "174658.454000", "174658.457000", "174658.460000", "174658.463000", "174658.466000", "174658.469000", "174658.472000", "174736.449000", "174736.453000", "174736.456000", "174736.459000", "174736.461000", "174736.464000", "174736.467000", "174736.470000", "174736.473000", "174736.476000", "174736.479000", "174736.482000", "174736.485000", "174736.488000", "174736.491000", "174736.495000", "174736.498000", "174736.501000", "174736.504000", "174736.507000", "174736.510000", "174736.513000", "174736.516000", "174736.519000", "174736.522000", "174736.525000"],
