{
  "AcquisitionMatrixPE": 104,
  "AcquisitionNumber": 1,
  "AcquisitionTime": "17:13:38.242500",
  "BandwidthPerPixelPhaseEncode": 17.17,
  "BaseResolution": 104,
  "BodyPartExamined": "BRAIN",
  "CoilString": "HC1-7;NC1_2",
  "ConsistencyInfo": "N4_VE11C_LATEST_20160120",
  "ConversionSoftware": "dcm2niix",
  "ConversionSoftwareVersion": "v1.0.20190902",
  "DerivedVendorReportedEchoSpacing": 0.000560011,
  "DeviceSerialNumber": "167006",
  "DwellTime": 2.1e-06,
  "EchoTime": 0.037,
  "EchoTrainLength": 104,
  "EffectiveEchoSpacing": 0.000560011,
  "FlipAngle": 52,
  "HeudiconvVersion": "0.10.0",
  "ImageComments": "Unaliased_MB4_PE3_LB",
  "ImageOrientationPatientDICOM": [0.997671, -0.0658716, -0.0177335, 0.0542066, 0.923336, -0.380147],
  "ImageType": [
    "ORIGINAL",
    "PRIMARY",
    "M",
    "MB",
    "ND",
    "MOSAIC"
],
  "ImagingFrequency": 123.259,
  "InPlanePhaseEncodingDirectionDICOM": "COL",
  "InstitutionAddress": "Chemin_Queen-Mary_4565_Montreal_District_CA_H3W_1W5",
  "InstitutionName": "IUGM",
  "InstitutionalDepartmentName": "Department",
  "MRAcquisitionType": "2D",
  "MagneticFieldStrength": 3,
  "Manufacturer": "Siemens",
  "ManufacturersModelName": "Prisma_fit",
  "Modality": "MR",
  "MultibandAccelerationFactor": 4,
  "PartialFourier": 1,
  "PatientPosition": "HFS",
  "PercentPhaseFOV": 100,
  "PhaseEncodingDirection": "j",
  "PhaseEncodingSteps": 104,
  "PhaseResolution": 1,
  "PixelBandwidth": 2290,
  "ProcedureStepDescription": "video_friends",
  "ProtocolName": "func_task-friends-s04e19b",
  "PulseSequenceDetails": "%CustomerSeq%_cmrr_mbep2d_bold",
  "ReceiveCoilActiveElements": "HC1-7;NC1,2",
  "ReceiveCoilName": "HeadNeck_64",
  "ReconMatrixPE": 104,
  "RepetitionTime": 1.49,
  "SAR": 0.0366323,
  "ScanOptions": "FS",
  "ScanningSequence": "EP",
  "SequenceName": "epfid2d1_104",
  "SequenceVariant": "SK_SS",
  "SeriesDescription": "func_task-friends-s04e19b",
  "SeriesNumber": 11,
  "ShimSetting": [612, -7294, -8813, 460, 6, -447, 61, 33],
  "SliceThickness": 2,
  "SliceTiming": [0, 0.7825, 0.0975, 0.8825, 0.195, 0.98, 0.2925, 1.0775, 0.3925, 1.175, 0.49, 1.2725, 0.5875, 1.3725, 0.685, 0, 0.7825, 0.0975, 0.8825, 0.195, 0.98, 0.2925, 1.0775, 0.3925, 1.175, 0.49, 1.2725, 0.5875, 1.3725, 0.685, 0, 0.7825, 0.0975, 0.8825, 0.195, 0.98, 0.2925, 1.0775, 0.3925, 1.175, 0.49, 1.2725, 0.5875, 1.3725, 0.685, 0, 0.7825, 0.0975, 0.8825, 0.195, 0.98, 0.2925, 1.0775, 0.3925, 1.175, 0.49, 1.2725, 0.5875, 1.3725, 0.685],
  "SoftwareVersions": "syngo_MR_E11",
  "SpacingBetweenSlices": 2,
  "StationName": "MRC35049",
  "TaskName": "s04e19b",
  "TotalReadoutTime": 0.0576811,
  "TxRefAmp": 238.882,
  "WipMemBlock": "042c5be5-1301-431e-b369-b8f6b6b4d723||Sequence: R016 ve11c/master r/e634e98; Dec 19 2017 11:00:25 by eja",
  "dcmmeta_affine": [
    [-1.9953410625457764, 0.10841315239667892, -0.08282966911792755, 96.25070190429688],
    [0.1317431479692459, 1.8466728925704956, -0.756599485874176, -76.35437774658203],
    [-0.035466987639665604, 0.7602931261062622, 1.8495124578475952, -58.09218215942383],
    [0.0, 0.0, 0.0, 1.0]
],
  "dcmmeta_reorient_transform": [
    [0.0, -1.0, 0.0, 103.0],
    [1.0, 0.0, 0.0, 0.0],
    [0.0, 0.0, 1.0, 0.0],
    [0.0, 0.0, 0.0, 1.0]
],
  "dcmmeta_shape": [104, 104, 60, 437],
  "dcmmeta_slice_dim": 2,
  "dcmmeta_version": 0.6,
  "global": {
    "const": {
      "AcquisitionMatrix": [104, 0, 0, 104],
      "AngioFlag": "N",
      "BitsAllocated": 16,
      "BitsStored": 16,
      "BodyPartExamined": "BRAIN",
      "Columns": 832,
      "EchoNumbers": 1,
      "EchoTime": 37.0,
      "EchoTrainLength": 104,
      "FlipAngle": 52.0,
      "HighBit": 15,
      "ImageOrientationPatient": [0.99767051596209, -0.0658715777037, -0.0177334946014, 0.05420657667712, 0.92333647306913, -0.3801465566663],
      "ImagePositionPatient": [-873.18377834351, -738.08738290989, 309.87468455778],
      "ImageType": [
        "ORIGINAL",
        "PRIMARY",
        "M",
        "MB",
        "ND",
        "MOSAIC"
],
      "ImagedNucleus": "1H",
      "ImagingFrequency": 123.258901,
      "InPlanePhaseEncodingDirection": "COL",
      "MRAcquisitionType": "2D",
      "MagneticFieldStrength": 3.0,
      "Manufacturer": "SIEMENS",
      "ManufacturerModelName": "Prisma_fit",
      "Modality": "MR",
      "NumberOfAverages": 1.0,
      "NumberOfPhaseEncodingSteps": 104,
      "PercentPhaseFieldOfView": 100.0,
      "PercentSampling": 100.0,
      "PerformedProcedureStepStartTime": "162807.111000",
      "PhotometricInterpretation": "MONOCHROME2",
      "PixelBandwidth": 2290.0,
      "PixelRepresentation": 0,
      "PixelSpacing": [2.0, 2.0],
      "ProtocolName": "func_task-friends-s04e19b",
      "RepetitionTime": 1490.0,
      "Rows": 832,
      "SAR": 0.03663229157155,
      "SamplesPerPixel": 1,
      "ScanOptions": "FS",
      "ScanningSequence": "EP",
      "SequenceName": "epfid2d1_104",
      "SequenceVariant": [
        "SK",
        "SS"
],
      "SeriesDescription": "func_task-friends-s04e19b",
      "SeriesNumber": 11,
      "SeriesTime": "171511.397000",
      "SliceLocation": -28.822476630958,
      "SliceThickness": 2.0,
      "SmallestImagePixelValue": 0,
      "SoftwareVersions": "syngo MR E11",
      "SpacingBetweenSlices": 1.9999999787416,
      "SpecificCharacterSet": "ISO_IR 100",
      "StudyID": "1",
      "StudyTime": "162807.060000",
      "TransmitCoilName": "Body",
      "VariableFlipAngleFlag": "N",
      "WindowCenterWidthExplanation": "Algo1",
      "dBdt": 0.0},
    "slices": {}
  },
  "time": {
    "samples": {
      "AcquisitionNumber": [1, 2, 3, 4, 5, 6, 7, 8, 9, 10, 11, 12, 13, 14, 15, 16, 17, 18, 19, 20, 21, 22, 23, 24, 25, 26, 27, 28, 29, 30, 31, 32, 33, 34, 35, 36, 37, 38, 39, 40, 41, 42, 43, 44, 45, 46, 47, 48, 49, 50, 51, 52, 53, 54, 55, 56, 57, 58, 59, 60, 61, 62, 63, 64, 65, 66, 67, 68, 69, 70, 71, 72, 73, 74, 75, 76, 77, 78, 79, 80, 81, 82, 83, 84, 85, 86, 87, 88, 89, 90, 91, 92, 93, 94, 95, 96, 97, 98, 99, 100, 101, 102, 103, 104, 105, 106, 107, 108, 109, 110, 111, 112, 113, 114, 115, 116, 117, 118, 119, 120, 121, 122, 123, 124, 125, 126, 127, 128, 129, 130, 131, 132, 133, 134, 135, 136, 137, 138, 139, 140, 141, 142, 143, 144, 145, 146, 147, 148, 149, 150, 151, 152, 153, 154, 155, 156, 157, 158, 159, 160, 161, 162, 163, 164, 165, 166, 167, 168, 169, 170, 171, 172, 173, 174, 175, 176, 177, 178, 179, 180, 181, 182, 183, 184, 185, 186, 187, 188, 189, 190, 191, 192, 193, 194, 195, 196, 197, 198, 199, 200, 201, 202, 203, 204, 205, 206, 207, 208, 209, 210, 211, 212, 213, 214, 215, 216, 217, 218, 219, 220, 221, 222, 223, 224, 225, 226, 227, 228, 229, 230, 231, 232, 233, 234, 235, 236, 237, 238, 239, 240, 241, 242, 243, 244, 245, 246, 247, 248, 249, 250, 251, 252, 253, 254, 255, 256, 257, 258, 259, 260, 261, 262, 263, 264, 265, 266, 267, 268, 269, 270, 271, 272, 273, 274, 275, 276, 277, 278, 279, 280, 281, 282, 283, 284, 285, 286, 287, 288, 289, 290, 291, 292, 293, 294, 295, 296, 297, 298, 299, 300, 301, 302, 303, 304, 305, 306, 307, 308, 309, 310, 311, 312, 313, 314, 315, 316, 317, 318, 319, 320, 321, 322, 323, 324, 325, 326, 327, 328, 329, 330, 331, 332, 333, 334, 335, 336, 337, 338, 339, 340, 341, 342, 343, 344, 345, 346, 347, 348, 349, 350, 351, 352, 353, 354, 355, 356, 357, 358, 359, 360, 361, 362, 363, 364, 365, 366, 367, 368, 369, 370, 371, 372, 373, 374, 375, 376, 377, 378, 379, 380, 381, 382, 383, 384, 385, 386, 387, 388, 389, 390, 391, 392, 393, 394, 395, 396, 397, 398, 399, 400, 401, 402, 403, 404, 405, 406, 407, 408, 409, 410, 411, 412, 413, 414, 415, 416, 417, 418, 419, 420, 421, 422, 423, 424, 425, 426, 427, 428, 429, 430, 431, 432, 433, 434, 435, 436, 437],
      "AcquisitionTime": ["171338.242500", "171339.732500", "171341.222500", "171342.712500", "171344.202500", "171345.692500", "171347.182500", "171348.672500", "171350.162500", "171351.652500", "171353.142500", "171354.632500", "171356.122500", "171357.612500", "171359.102500", "171400.592500", "171402.082500", "171403.572500", "171405.062500", "171406.552500", "171408.042500", "171409.532500", "171411.022500", "171412.512500", "171414.002500", "171415.492500", "171416.982500", "171418.472500", "171419.962500", "171421.452500", "171422.942500", "171424.432500", "171425.922500", "171427.412500", "171428.902500", "171430.392500", "171431.882500", "171433.372500", "171434.862500", "171436.352500", "171437.842500", "171439.332500", "171440.822500", "171442.312500", "171443.802500", "171445.292500", "171446.782500", "171448.272500", "171449.762500", "171451.252500", "171452.742500", "171454.232500", "171455.722500", "171457.212500", "171458.702500", "171500.192500", "171501.682500", "171503.172500", "171504.662500", "171506.152500", "171507.642500", "171509.132500", "171510.622500", "171512.112500", "171513.602500", "171515.092500", "171516.582500", "171518.072500", "171519.562500", "171521.052500", "171522.542500", "171524.032500", "171525.522500", "171527.012500", "171528.502500", "171529.992500", "171531.482500", "171532.972500", "171534.462500", "171535.952500", "171537.442500", "171538.932500", "171540.422500", "171541.912500", "171543.402500", "171544.892500", "171546.382500", "171547.872500", "171549.362500", "171550.852500", "171552.342500", "171553.832500", "171555.322500", "171556.812500", "171558.302500", "171559.792500", "171601.282500", "171602.772500", "171604.262500", "171605.752500", "171607.242500", "171608.732500", "171610.222500", "171611.712500", "171613.202500", "171614.692500", "171616.182500", "171617.672500", "171619.162500", "171620.652500", "171622.142500", "171623.632500", "171625.122500", "171626.612500", "171628.102500", "171629.592500", "171631.082500", "171632.572500", "171634.062500", "171635.552500", "171637.042500", "171638.532500", "171640.022500", "171641.512500", "171643.002500", "171644.492500", "171645.982500", "171647.472500", "171648.962500", "171650.452500", "171651.942500", "171653.432500", "171654.922500", "171656.412500", "171657.902500", "171659.392500", "171700.882500", "171702.372500", "171703.862500", "171705.352500", "171706.842500", "171708.332500", "171709.822500", "171711.312500", "171712.802500", "171714.292500", "171715.782500", "171717.272500", "171718.762500", "171720.252500", "171721.742500", "171723.232500", "171724.722500", "171726.212500", "171727.702500", "171729.192500", "171730.682500", "171732.172500", "171733.662500", "171735.152500", "171736.642500", "171738.132500", "171739.622500", "171741.112500", "171742.602500", "171744.092500", "171745.582500", "171747.072500", "171748.562500", "171750.052500", "171751.542500", "171753.032500", "171754.522500", "171756.012500", "171757.502500", "171758.992500", "171800.482500", "171801.972500", "171803.462500", "171804.952500", "171806.442500", "171807.932500", "171809.422500", "171810.912500", "171812.402500", "171813.892500", "171815.382500", "171816.872500", "171818.362500", "171819.852500", "171821.342500", "171822.832500", "171824.322500", "171825.812500", "171827.302500", "171828.792500", "171830.282500", "171831.772500", "171833.262500", "171834.752500", "171836.242500", "171837.732500", "171839.222500", "171840.712500", "171842.202500", "171843.692500", "171845.182500", "171846.672500", "171848.162500", "171849.652500", "171851.142500", "171852.632500", "171854.122500", "171855.612500", "171857.102500", "171858.592500", "171900.082500", "171901.572500", "171903.062500", "171904.552500", "171906.042500", "171907.532500", "171909.022500", "171910.512500", "171912.002500", "171913.492500", "171914.982500", "171916.472500", "171917.962500", "171919.452500", "171920.942500", "171922.432500", "171923.922500", "171925.412500", "171926.902500", "171928.392500", "171929.882500", "171931.372500", "171932.862500", "171934.352500", "171935.842500", "171937.332500", "171938.822500", "171940.312500", "171941.802500", "171943.292500", "171944.782500", "171946.272500", "171947.762500", "171949.252500", "171950.742500", "171952.232500", "171953.722500", "171955.212500", "171956.702500", "171958.192500", "171959.682500", "172001.172500", "172002.662500", "172004.152500", "172005.642500", "172007.132500", "172008.622500", "172010.112500", "172011.602500", "172013.092500", "172014.582500", "172016.072500", "172017.562500", "172019.052500", "172020.542500", "172022.032500", "172023.522500", "172025.012500", "172026.502500", "172027.992500", "172029.482500", "172030.972500", "172032.462500", "172033.952500", "172035.442500", "172036.932500", "172038.422500", "172039.912500", "172041.402500", "172042.892500", "172044.382500", "172045.872500", "172047.362500", "172048.852500", "172050.342500", "172051.832500", "172053.322500", "172054.812500", "172056.302500", "172057.792500", "172059.282500", "172100.772500", "172102.262500", "172103.752500", "172105.242500", "172106.732500", "172108.222500", "172109.712500", "172111.202500", "172112.692500", "172114.182500", "172115.672500", "172117.162500", "172118.652500", "172120.142500", "172121.632500", "172123.122500", "172124.612500", "172126.102500", "172127.592500", "172129.082500", "172130.572500", "172132.062500", "172133.552500", "172135.042500", "172136.532500", "172138.022500", "172139.512500", "172141.002500", "172142.492500", "172143.982500", "172145.472500", "172146.962500", "172148.452500", "172149.942500", "172151.432500", "172152.922500", "172154.412500", "172155.902500", "172157.392500", "172158.882500", "172200.372500", "172201.862500", "172203.352500", "172204.842500", "172206.332500", "172207.822500", "172209.312500", "172210.802500", "172212.292500", "172213.782500", "172215.272500", "172216.762500", "172218.252500", "172219.742500", "172221.232500", "172222.722500", "172224.212500", "172225.702500", "172227.192500", "172228.682500", "172230.172500", "172231.662500", "172233.152500", "172234.642500", "172236.132500", "172237.622500", "172239.112500", "172240.602500", "172242.092500", "172243.582500", "172245.072500", "172246.562500", "172248.052500", "172249.542500", "172251.032500", "172252.522500", "172254.012500", "172255.502500", "172256.992500", "172258.482500", "172259.972500", "172301.462500", "172302.952500", "172304.442500", "172305.932500", "172307.422500", "172308.912500", "172310.402500", "172311.892500", "172313.382500", "172314.872500", "172316.362500", "172317.852500", "172319.342500", "172320.832500", "172322.322500", "172323.812500", "172325.302500", "172326.792500", "172328.282500", "172329.772500", "172331.262500", "172332.752500", "172334.242500", "172335.732500", "172337.222500", "172338.712500", "172340.202500", "172341.692500", "172343.182500", "172344.672500", "172346.162500", "172347.652500", "172349.142500", "172350.632500", "172352.122500", "172353.612500", "172355.102500", "172356.592500", "172358.082500", "172359.572500", "172401.062500", "172402.552500", "172404.042500", "172405.532500", "172407.022500", "172408.512500", "172410.002500", "172411.492500", "172412.982500", "172414.472500", "172415.962500", "172417.452500", "172418.942500", "172420.432500", "172421.922500", "172423.412500", "172424.902500", "172426.392500", "172427.882500"],
      "ContentTime": ["171511.399000", "171511.403000", "171511.406000", "171511.409000", "171511.412000", "171511.415000", "171511.418000", "171511.421000", "171511.423000", "171511.426000", "171511.429000", "171511.441000", "171511.444000", "171511.447000", "171511.450000", "171511.453000", "171511.456000", "171511.458000", "171511.461000", "171511.464000", "171511.467000", "171511.470000", "171511.473000", "171511.476000", "171511.479000", "171511.482000", "171511.484000", "171511.487000", "171511.507000", "171511.509000", "171511.512000", "171511.515000", "171511.518000", "171511.521000", "171511.524000", "171511.527000", "171531.374000", "171531.377000", "171531.380000", "171531.383000", "171531.385000", "171531.388000", "171531.391000", "171531.394000", "171531.397000", "171531.399000", "171531.402000", "171531.405000", "171531.408000", "171531.411000", "171531.422000", "171531.425000", "171531.428000", "171531.431000", "171531.434000", "171531.437000", "171551.374000", "171551.377000", "171551.380000", "171551.383000", "171551.385000", "171551.388000", "171551.391000", "171551.394000", "171551.397000", "171551.400000", "171551.402000", "171551.405000", "171551.408000", "171551.411000", "171551.414000", "171551.416000", "171551.419000", "171551.422000", "171551.425000", "171551.428000", "171551.431000", "171611.374000", "171611.377000", "171611.380000", "171611.383000", "171611.386000", "171611.388000", "171611.391000", "171611.394000", "171611.397000", "171611.400000", "171611.403000", "171611.405000", "171611.414000", "171611.416000", "171611.419000", "171611.422000", "171611.425000", "171611.428000", "171611.431000", "171611.434000", "171651.374000", "171651.377000", "171651.380000", "171651.383000", "171651.386000", "171651.388000", "171651.391000", "171651.394000", "171651.397000", "171651.400000", "171651.403000", "171651.405000", "171651.408000", "171651.411000", "171651.414000", "171651.417000", "171651.419000", "171651.422000", "171651.445000", "171651.448000", "171651.451000", "171651.453000", "171651.456000", "171651.459000", "171651.462000", "171651.465000", "171651.468000", "171651.470000", "171651.473000", "171651.476000", "171651.479000", "171651.482000", "171731.374000", "171731.377000", "171731.380000", "171731.383000", "171731.385000", "171731.388000", "171731.391000", "171731.394000", "171731.397000", "171731.400000", "171731.402000", "171731.405000", "171731.408000", "171731.411000", "171731.414000", "171731.417000", "171731.419000", "171731.422000", "171731.425000", "171731.428000", "171731.431000", "171731.434000", "171731.436000", "171731.439000", "171731.442000", "171731.445000", "171731.448000", "171811.374000", "171811.377000", "171811.380000", "171811.383000", "171811.386000", "171811.388000", "171811.391000", "171811.394000", "171811.397000", "171811.400000", "171811.403000", "171811.406000", "171811.408000", "171811.411000", "171811.414000", "171811.417000", "171811.420000", "171811.423000", "171811.426000", "171811.429000", "171811.431000", "171811.434000", "171811.437000", "171811.440000", "171811.443000", "171811.446000", "171851.375000", "171851.378000", "171851.381000", "171851.384000", "171851.386000", "171851.389000", "171851.392000", "171851.395000", "171851.398000", "171851.401000", "171851.403000", "171851.406000", "171851.409000", "171851.412000", "171851.415000", "171851.418000", "171851.420000", "171851.423000", "171851.426000", "171851.429000", "171851.432000", "171851.435000", "171851.437000", "171851.440000", "171851.443000", "171851.446000", "171851.449000", "171931.374000", "171931.377000", "171931.380000", "171931.383000", "171931.386000", "171931.389000", "171931.391000", "171931.394000", "171931.397000", "171931.400000", "171931.403000", "171931.406000", "171931.409000", "171931.411000", "171931.414000", "171931.417000", "171931.428000", "171931.431000", "171931.433000", "171931.436000", "171931.439000", "171931.442000", "171931.445000", "171931.448000", "171931.451000", "171931.453000", "171931.456000", "172011.374000", "172011.377000", "172011.380000", "172011.383000", "172011.385000", "172011.388000", "172011.391000", "172011.394000", "172011.397000", "172011.400000", "172011.403000", "172011.413000", "172011.417000", "172011.419000", "172011.422000", "172011.425000", "172011.428000", "172011.431000", "172011.434000", "172011.436000", "172011.439000", "172011.442000", "172011.445000", "172011.448000", "172011.451000", "172011.454000", "172011.464000", "172051.374000", "172051.377000", "172051.380000", "172051.383000", "172051.386000", "172051.389000", "172051.391000", "172051.394000", "172051.397000", "172051.400000", "172051.403000", "172051.406000", "172051.409000", "172051.411000", "172051.414000", "172051.417000", "172051.420000", "172051.423000", "172051.426000", "172051.429000", "172051.431000", "172051.434000", "172051.437000", "172051.440000", "172051.443000", "172051.446000", "172051.449000", "172131.374000", "172131.377000", "172131.380000", "172131.383000", "172131.385000", "172131.388000", "172131.391000", "172131.394000", "172131.397000", "172131.400000", "172131.403000", "172131.405000", "172131.408000", "172131.411000", "172131.414000", "172131.417000", "172131.420000", "172131.423000", "172131.425000", "172131.428000", "172131.431000", "172131.434000", "172131.437000", "172131.440000", "172131.443000", "172131.445000", "172131.448000", "172211.374000", "172211.377000", "172211.380000", "172211.383000", "172211.385000", "172211.388000", "172211.391000", "172211.394000", "172211.397000", "172211.400000", "172211.411000", "172211.414000", "172211.417000", "172211.420000", "172211.422000", "172211.425000", "172211.428000", "172211.431000", "172211.434000", "172211.437000", "172211.439000", "172211.442000", "172211.445000", "172211.448000", "172211.451000", "172211.454000", "172211.457000", "172251.374000", "172251.377000", "172251.380000", "172251.383000", "172251.386000", "172251.389000", "172251.391000", "172251.394000", "172251.398000", "172251.401000", "172251.404000", "172251.407000", "172251.410000", "172251.412000", "172251.415000", "172251.418000", "172251.421000", "172251.424000", "172251.427000", "172251.430000", "172251.432000", "172251.435000", "172251.438000", "172251.441000", "172251.444000", "172251.447000", "172331.375000", "172331.378000", "172331.381000", "172331.384000", "172331.387000", "172331.390000", "172331.392000", "172331.395000", "172331.398000", "172331.401000", "172331.404000", "172331.407000", "172331.410000", "172331.412000", "172331.415000", "172331.418000", "172331.421000", "172331.424000", "172331.427000", "172331.429000", "172331.432000", "172331.435000", "172331.438000", "172331.441000", "172331.444000", "172331.447000", "172331.449000", "172411.374000", "172411.377000", "172411.380000", "172411.383000", "172411.386000", "172411.388000", "172411.391000", "172411.394000", "172411.397000", "172411.400000", "172411.403000", "172411.406000", "172411.408000", "172411.411000", "172411.414000", "172411.417000", "172411.420000", "172411.423000", "172411.426000", "172411.429000", "172411.432000", "172411.435000", "172411.438000", "172411.441000", "172411.443000", "172411.446000", "172411.449000", "172429.905000", "172429.908000", "172429.911000", "172429.914000", "172429.917000", "172429.919000", "172429.922000", "172429.925000", "172429.928000", "172429.931000", "172429.934000", "172429.937000", "172429.940000"],
