{
  "AcquisitionMatrixPE": 104,
  "AcquisitionNumber": 1,
  "AcquisitionTime": "19:04:2.392500",
  "BandwidthPerPixelPhaseEncode": 17.17,
  "BaseResolution": 104,
  "BodyPartExamined": "BRAIN",
  "CoilString": "HC1-7;NC1_2",
  "ConsistencyInfo": "N4_VE11C_LATEST_20160120",
  "ConversionSoftware": "dcm2niix",
  "ConversionSoftwareVersion": "v1.0.20190902",
  "DerivedVendorReportedEchoSpacing": 0.000560011,
  "DeviceSerialNumber": "167006",
  "DwellTime": 2.1e-06,
  "EchoTime": 0.037,
  "EchoTrainLength": 104,
  "EffectiveEchoSpacing": 0.000560011,
  "FlipAngle": 52,
  "HeudiconvVersion": "0.10.0",
  "ImageComments": "Unaliased_MB4_PE3_LB",
  "ImageOrientationPatientDICOM": [0.997671, -0.0658716, -0.0177335, 0.0542066, 0.923336, -0.380147],
  "ImageType": [
    "ORIGINAL",
    "PRIMARY",
    "M",
    "MB",
    "ND",
    "MOSAIC"
],
  "ImagingFrequency": 123.259,
  "InPlanePhaseEncodingDirectionDICOM": "COL",
  "InstitutionAddress": "Chemin_Queen-Mary_4565_Montreal_District_CA_H3W_1W5",
  "InstitutionName": "IUGM",
  "InstitutionalDepartmentName": "Department",
  "MRAcquisitionType": "2D",
  "MagneticFieldStrength": 3,
  "Manufacturer": "Siemens",
  "ManufacturersModelName": "Prisma_fit",
  "Modality": "MR",
  "MultibandAccelerationFactor": 4,
  "PartialFourier": 1,
  "PatientPosition": "HFS",
  "PercentPhaseFOV": 100,
  "PhaseEncodingDirection": "j",
  "PhaseEncodingSteps": 104,
  "PhaseResolution": 1,
  "PixelBandwidth": 2290,
  "ProcedureStepDescription": "video_friends",
  "ProtocolName": "func_task-friends-s04e23c",
  "PulseSequenceDetails": "%CustomerSeq%_cmrr_mbep2d_bold",
  "ReceiveCoilActiveElements": "HC1-7;NC1,2",
  "ReceiveCoilName": "HeadNeck_64",
  "ReconMatrixPE": 104,
  "RepetitionTime": 1.49,
  "SAR": 0.0366543,
  "ScanOptions": "FS",
  "ScanningSequence": "EP",
  "SequenceName": "epfid2d1_104",
  "SequenceVariant": "SK_SS",
  "SeriesDescription": "func_task-friends-s04e23c",
  "SeriesNumber": 31,
  "ShimSetting": [612, -7294, -8813, 460, 6, -447, 61, 33],
  "SliceThickness": 2,
  "SliceTiming": [0, 0.7825, 0.0975, 0.8825, 0.195, 0.98, 0.2925, 1.0775, 0.3925, 1.175, 0.49, 1.2725, 0.5875, 1.3725, 0.685, 0, 0.7825, 0.0975, 0.8825, 0.195, 0.98, 0.2925, 1.0775, 0.3925, 1.175, 0.49, 1.2725, 0.5875, 1.3725, 0.685, 0, 0.7825, 0.0975, 0.8825, 0.195, 0.98, 0.2925, 1.0775, 0.3925, 1.175, 0.49, 1.2725, 0.5875, 1.3725, 0.685, 0, 0.7825, 0.0975, 0.8825, 0.195, 0.98, 0.2925, 1.0775, 0.3925, 1.175, 0.49, 1.2725, 0.5875, 1.3725, 0.685],
  "SoftwareVersions": "syngo_MR_E11",
  "SpacingBetweenSlices": 2,
  "StationName": "MRC35049",
  "TaskName": "s04e23c",
  "TotalReadoutTime": 0.0576811,
  "TxRefAmp": 238.882,
  "WipMemBlock": "eab1a553-132c-4f8b-8439-1d6ed48ac687||Sequence: R016 ve11c/master r/e634e98; Dec 19 2017 11:00:25 by eja",
  "dcmmeta_affine": [
    [-1.9953410625457764, 0.10841315239667892, -0.08282966911792755, 96.25070190429688],
    [0.1317431479692459, 1.8466728925704956, -0.756599485874176, -76.35437774658203],
    [-0.035466987639665604, 0.7602931261062622, 1.8495124578475952, -58.09218215942383],
    [0.0, 0.0, 0.0, 1.0]
],
  "dcmmeta_reorient_transform": [
    [0.0, -1.0, 0.0, 103.0],
    [1.0, 0.0, 0.0, 0.0],
    [0.0, 0.0, 1.0, 0.0],
    [0.0, 0.0, 0.0, 1.0]
],
  "dcmmeta_shape": [104, 104, 60, 504],
  "dcmmeta_slice_dim": 2,
  "dcmmeta_version": 0.6,
  "global": {
    "const": {
      "AcquisitionMatrix": [104, 0, 0, 104],
      "AngioFlag": "N",
      "BitsAllocated": 16,
      "BitsStored": 16,
      "BodyPartExamined": "BRAIN",
      "Columns": 832,
      "EchoNumbers": 1,
      "EchoTime": 37.0,
      "EchoTrainLength": 104,
      "FlipAngle": 52.0,
      "HighBit": 15,
      "ImageOrientationPatient": [0.99767051596209, -0.0658715777037, -0.0177334946014, 0.05420657667712, 0.92333647306913, -0.3801465566663],
      "ImagePositionPatient": [-873.18377834351, -738.08738290989, 309.87468455778],
      "ImageType": [
        "ORIGINAL",
        "PRIMARY",
        "M",
        "MB",
        "ND",
        "MOSAIC"
],
      "ImagedNucleus": "1H",
      "ImagingFrequency": 123.258926,
      "InPlanePhaseEncodingDirection": "COL",
      "MRAcquisitionType": "2D",
      "MagneticFieldStrength": 3.0,
      "Manufacturer": "SIEMENS",
      "ManufacturerModelName": "Prisma_fit",
      "Modality": "MR",
      "NumberOfAverages": 1.0,
      "NumberOfPhaseEncodingSteps": 104,
      "PercentPhaseFieldOfView": 100.0,
      "PercentSampling": 100.0,
      "PerformedProcedureStepStartTime": "162807.111000",
      "PhotometricInterpretation": "MONOCHROME2",
      "PixelBandwidth": 2290.0,
      "PixelRepresentation": 0,
      "PixelSpacing": [2.0, 2.0],
      "ProtocolName": "func_task-friends-s04e23c",
      "RepetitionTime": 1490.0,
      "Rows": 832,
      "SAR": 0.03665431278346,
      "SamplesPerPixel": 1,
      "ScanOptions": "FS",
      "ScanningSequence": "EP",
      "SequenceName": "epfid2d1_104",
      "SequenceVariant": [
        "SK",
        "SS"
],
      "SeriesDescription": "func_task-friends-s04e23c",
      "SeriesNumber": 31,
      "SeriesTime": "190531.344000",
      "SliceLocation": -28.822476630958,
      "SliceThickness": 2.0,
      "SmallestImagePixelValue": 0,
      "SoftwareVersions": "syngo MR E11",
      "SpacingBetweenSlices": 1.9999999787416,
      "SpecificCharacterSet": "ISO_IR 100",
      "StudyID": "1",
      "StudyTime": "162807.060000",
      "TransmitCoilName": "Body",
      "VariableFlipAngleFlag": "N",
      "WindowCenterWidthExplanation": "Algo1",
      "dBdt": 0.0},
    "slices": {}
  },
  "time": {
    "samples": {
      "AcquisitionNumber": [1, 2, 3, 4, 5, 6, 7, 8, 9, 10, 11, 12, 13, 14, 15, 16, 17, 18, 19, 20, 21, 22, 23, 24, 25, 26, 27, 28, 29, 30, 31, 32, 33, 34, 35, 36, 37, 38, 39, 40, 41, 42, 43, 44, 45, 46, 47, 48, 49, 50, 51, 52, 53, 54, 55, 56, 57, 58, 59, 60, 61, 62, 63, 64, 65, 66, 67, 68, 69, 70, 71, 72, 73, 74, 75, 76, 77, 78, 79, 80, 81, 82, 83, 84, 85, 86, 87, 88, 89, 90, 91, 92, 93, 94, 95, 96, 97, 98, 99, 100, 101, 102, 103, 104, 105, 106, 107, 108, 109, 110, 111, 112, 113, 114, 115, 116, 117, 118, 119, 120, 121, 122, 123, 124, 125, 126, 127, 128, 129, 130, 131, 132, 133, 134, 135, 136, 137, 138, 139, 140, 141, 142, 143, 144, 145, 146, 147, 148, 149, 150, 151, 152, 153, 154, 155, 156, 157, 158, 159, 160, 161, 162, 163, 164, 165, 166, 167, 168, 169, 170, 171, 172, 173, 174, 175, 176, 177, 178, 179, 180, 181, 182, 183, 184, 185, 186, 187, 188, 189, 190, 191, 192, 193, 194, 195, 196, 197, 198, 199, 200, 201, 202, 203, 204, 205, 206, 207, 208, 209, 210, 211, 212, 213, 214, 215, 216, 217, 218, 219, 220, 221, 222, 223, 224, 225, 226, 227, 228, 229, 230, 231, 232, 233, 234, 235, 236, 237, 238, 239, 240, 241, 242, 243, 244, 245, 246, 247, 248, 249, 250, 251, 252, 253, 254, 255, 256, 257, 258, 259, 260, 261, 262, 263, 264, 265, 266, 267, 268, 269, 270, 271, 272, 273, 274, 275, 276, 277, 278, 279, 280, 281, 282, 283, 284, 285, 286, 287, 288, 289, 290, 291, 292, 293, 294, 295, 296, 297, 298, 299, 300, 301, 302, 303, 304, 305, 306, 307, 308, 309, 310, 311, 312, 313, 314, 315, 316, 317, 318, 319, 320, 321, 322, 323, 324, 325, 326, 327, 328, 329, 330, 331, 332, 333, 334, 335, 336, 337, 338, 339, 340, 341, 342, 343, 344, 345, 346, 347, 348, 349, 350, 351, 352, 353, 354, 355, 356, 357, 358, 359, 360, 361, 362, 363, 364, 365, 366, 367, 368, 369, 370, 371, 372, 373, 374, 375, 376, 377, 378, 379, 380, 381, 382, 383, 384, 385, 386, 387, 388, 389, 390, 391, 392, 393, 394, 395, 396, 397, 398, 399, 400, 401, 402, 403, 404, 405, 406, 407, 408, 409, 410, 411, 412, 413, 414, 415, 416, 417, 418, 419, 420, 421, 422, 423, 424, 425, 426, 427, 428, 429, 430, 431, 432, 433, 434, 435, 436, 437, 438, 439, 440, 441, 442, 443, 444, 445, 446, 447, 448, 449, 450, 451, 452, 453, 454, 455, 456, 457, 458, 459, 460, 461, 462, 463, 464, 465, 466, 467, 468, 469, 470, 471, 472, 473, 474, 475, 476, 477, 478, 479, 480, 481, 482, 483, 484, 485, 486, 487, 488, 489, 490, 491, 492, 493, 494, 495, 496, 497, 498, 499, 500, 501, 502, 503, 504],
      "AcquisitionTime": ["190402.392500", "190403.882500", "190405.372500", "190406.862500", "190408.352500", "190409.842500", "190411.332500", "190412.822500", "190414.312500", "190415.802500", "190417.292500", "190418.782500", "190420.272500", "190421.762500", "190423.252500", "190424.742500", "190426.232500", "190427.722500", "190429.212500", "190430.702500", "190432.192500", "190433.682500", "190435.172500", "190436.662500", "190438.152500", "190439.642500", "190441.132500", "190442.622500", "190444.112500", "190445.602500", "190447.092500", "190448.582500", "190450.072500", "190451.562500", "190453.052500", "190454.542500", "190456.032500", "190457.522500", "190459.012500", "190500.502500", "190501.992500", "190503.482500", "190504.972500", "190506.462500", "190507.952500", "190509.442500", "190510.932500", "190512.422500", "190513.912500", "190515.402500", "190516.892500", "190518.382500", "190519.872500", "190521.362500", "190522.852500", "190524.342500", "190525.832500", "190527.322500", "190528.812500", "190530.302500", "190531.792500", "190533.282500", "190534.772500", "190536.262500", "190537.752500", "190539.242500", "190540.732500", "190542.222500", "190543.712500", "190545.202500", "190546.692500", "190548.182500", "190549.672500", "190551.162500", "190552.652500", "190554.142500", "190555.632500", "190557.122500", "190558.612500", "190600.102500", "190601.592500", "190603.082500", "190604.572500", "190606.062500", "190607.552500", "190609.042500", "190610.532500", "190612.022500", "190613.512500", "190615.002500", "190616.492500", "190617.982500", "190619.472500", "190620.962500", "190622.452500", "190623.942500", "190625.432500", "190626.922500", "190628.412500", "190629.902500", "190631.392500", "190632.882500", "190634.372500", "190635.862500", "190637.352500", "190638.842500", "190640.332500", "190641.822500", "190643.312500", "190644.802500", "190646.292500", "190647.782500", "190649.272500", "190650.762500", "190652.252500", "190653.742500", "190655.232500", "190656.722500", "190658.212500", "190659.702500", "190701.192500", "190702.682500", "190704.172500", "190705.662500", "190707.152500", "190708.642500", "190710.132500", "190711.622500", "190713.112500", "190714.602500", "190716.092500", "190717.582500", "190719.072500", "190720.562500", "190722.052500", "190723.542500", "190725.032500", "190726.522500", "190728.012500", "190729.502500", "190730.992500", "190732.482500", "190733.972500", "190735.462500", "190736.952500", "190738.442500", "190739.932500", "190741.422500", "190742.912500", "190744.402500", "190745.892500", "190747.382500", "190748.872500", "190750.362500", "190751.852500", "190753.342500", "190754.832500", "190756.322500", "190757.812500", "190759.302500", "190800.792500", "190802.282500", "190803.772500", "190805.262500", "190806.752500", "190808.242500", "190809.732500", "190811.222500", "190812.712500", "190814.202500", "190815.692500", "190817.182500", "190818.672500", "190820.162500", "190821.652500", "190823.142500", "190824.632500", "190826.122500", "190827.612500", "190829.102500", "190830.592500", "190832.082500", "190833.572500", "190835.062500", "190836.552500", "190838.042500", "190839.532500", "190841.022500", "190842.512500", "190844.002500", "190845.492500", "190846.982500", "190848.472500", "190849.962500", "190851.452500", "190852.942500", "190854.432500", "190855.922500", "190857.412500", "190858.902500", "190900.392500", "190901.882500", "190903.372500", "190904.862500", "190906.352500", "190907.842500", "190909.332500", "190910.822500", "190912.312500", "190913.802500", "190915.292500", "190916.782500", "190918.272500", "190919.762500", "190921.252500", "190922.742500", "190924.232500", "190925.722500", "190927.212500", "190928.702500", "190930.192500", "190931.682500", "190933.172500", "190934.662500", "190936.152500", "190937.642500", "190939.132500", "190940.622500", "190942.112500", "190943.602500", "190945.092500", "190946.582500", "190948.072500", "190949.562500", "190951.052500", "190952.542500", "190954.032500", "190955.522500", "190957.012500", "190958.502500", "190959.992500", "191001.482500", "191002.972500", "191004.462500", "191005.952500", "191007.442500", "191008.932500", "191010.422500", "191011.912500", "191013.402500", "191014.892500", "191016.382500", "191017.872500", "191019.362500", "191020.852500", "191022.342500", "191023.832500", "191025.322500", "191026.812500", "191028.302500", "191029.792500", "191031.282500", "191032.772500", "191034.262500", "191035.752500", "191037.242500", "191038.732500", "191040.222500", "191041.712500", "191043.202500", "191044.692500", "191046.182500", "191047.672500", "191049.162500", "191050.652500", "191052.142500", "191053.632500", "191055.122500", "191056.612500", "191058.102500", "191059.592500", "191101.082500", "191102.572500", "191104.062500", "191105.552500", "191107.042500", "191108.532500", "191110.022500", "191111.512500", "191113.002500", "191114.492500", "191115.982500", "191117.472500", "191118.962500", "191120.452500", "191121.942500", "191123.432500", "191124.922500", "191126.412500", "191127.902500", "191129.392500", "191130.882500", "191132.372500", "191133.862500", "191135.352500", "191136.842500", "191138.332500", "191139.822500", "191141.312500", "191142.802500", "191144.292500", "191145.782500", "191147.272500", "191148.762500", "191150.252500", "191151.742500", "191153.232500", "191154.722500", "191156.212500", "191157.702500", "191159.192500", "191200.682500", "191202.172500", "191203.662500", "191205.152500", "191206.642500", "191208.132500", "191209.622500", "191211.112500", "191212.602500", "191214.092500", "191215.582500", "191217.072500", "191218.562500", "191220.052500", "191221.542500", "191223.032500", "191224.522500", "191226.012500", "191227.502500", "191228.992500", "191230.482500", "191231.972500", "191233.462500", "191234.952500", "191236.442500", "191237.932500", "191239.422500", "191240.912500", "191242.402500", "191243.892500", "191245.382500", "191246.872500", "191248.362500", "191249.852500", "191251.342500", "191252.832500", "191254.322500", "191255.812500", "191257.302500", "191258.792500", "191300.282500", "191301.772500", "191303.262500", "191304.752500", "191306.242500", "191307.732500", "191309.222500", "191310.712500", "191312.202500", "191313.692500", "191315.182500", "191316.672500", "191318.162500", "191319.652500", "191321.142500", "191322.632500", "191324.122500", "191325.612500", "191327.102500", "191328.592500", "191330.082500", "191331.572500", "191333.062500", "191334.552500", "191336.042500", "191337.532500", "191339.022500", "191340.512500", "191342.002500", "191343.492500", "191344.982500", "191346.472500", "191347.962500", "191349.452500", "191350.942500", "191352.432500", "191353.922500", "191355.412500", "191356.902500", "191358.392500", "191359.882500", "191401.372500", "191402.862500", "191404.352500", "191405.842500", "191407.332500", "191408.822500", "191410.312500", "191411.802500", "191413.292500", "191414.782500", "191416.272500", "191417.762500", "191419.252500", "191420.742500", "191422.232500", "191423.722500", "191425.212500", "191426.702500", "191428.192500", "191429.682500", "191431.172500", "191432.662500", "191434.152500", "191435.642500", "191437.132500", "191438.622500", "191440.112500", "191441.602500", "191443.092500", "191444.582500", "191446.072500", "191447.562500", "191449.052500", "191450.542500", "191452.032500", "191453.522500", "191455.012500", "191456.502500", "191457.992500", "191459.482500", "191500.972500", "191502.462500", "191503.952500", "191505.442500", "191506.932500", "191508.422500", "191509.912500", "191511.402500", "191512.892500", "191514.382500", "191515.872500", "191517.362500", "191518.852500", "191520.342500", "191521.832500", "191523.322500", "191524.812500", "191526.302500", "191527.792500", "191529.282500", "191530.772500", "191532.262500", "191533.752500", "191535.242500", "191536.732500", "191538.222500", "191539.712500", "191541.202500", "191542.692500", "191544.182500", "191545.672500", "191547.162500", "191548.652500", "191550.142500", "191551.632500", "191553.122500", "191554.612500", "191556.102500", "191557.592500", "191559.082500", "191600.572500", "191602.062500", "191603.552500", "191605.042500", "191606.532500", "191608.022500", "191609.512500", "191611.002500", "191612.492500", "191613.982500", "191615.472500", "191616.962500", "191618.452500", "191619.942500", "191621.432500", "191622.922500", "191624.412500", "191625.902500", "191627.392500", "191628.882500", "191630.372500", "191631.862500"],
      "ContentTime": ["190531.347000", "190531.350000", "190531.353000", "190531.356000", "190531.359000", "190531.362000", "190531.365000", "190531.367000", "190531.370000", "190531.373000", "190531.376000", "190531.379000", "190531.382000", "190531.385000", "190531.388000", "190531.391000", "190531.394000", "190531.396000", "190531.399000", "190531.402000", "190531.412000", "190531.415000", "190531.418000", "190531.421000", "190531.424000", "190531.426000", "190531.429000", "190531.432000", "190531.435000", "190531.438000", "190531.442000", "190531.446000", "190531.449000", "190531.465000", "190551.315000", "190551.318000", "190551.321000", "190551.323000", "190551.326000", "190551.329000", "190551.332000", "190551.335000", "190551.338000", "190551.340000", "190551.343000", "190551.346000", "190551.349000", "190551.352000", "190551.355000", "190551.357000", "190551.360000", "190551.363000", "190551.366000", "190551.369000", "190551.372000", "190611.315000", "190611.318000", "190611.321000", "190611.324000", "190611.326000", "190611.329000", "190611.332000", "190611.335000", "190611.338000", "190611.340000", "190611.343000", "190611.346000", "190611.349000", "190611.352000", "190611.355000", "190611.357000", "190611.360000", "190611.363000", "190611.366000", "190611.369000", "190631.315000", "190631.318000", "190631.321000", "190631.324000", "190631.327000", "190631.330000", "190631.332000", "190631.335000", "190631.338000", "190631.341000", "190631.344000", "190631.347000", "190631.350000", "190631.352000", "190631.355000", "190631.358000", "190631.361000", "190631.364000", "190631.367000", "190631.370000", "190711.315000", "190711.318000", "190711.321000", "190711.324000", "190711.326000", "190711.329000", "190711.332000", "190711.335000", "190711.338000", "190711.340000", "190711.343000", "190711.346000", "190711.349000", "190711.352000", "190711.355000", "190711.357000", "190711.360000", "190711.363000", "190711.366000", "190711.369000", "190711.371000", "190711.374000", "190711.377000", "190711.380000", "190711.383000", "190711.386000", "190711.389000", "190711.392000", "190711.395000", "190711.398000", "190711.400000", "190751.316000", "190751.319000", "190751.322000", "190751.324000", "190751.327000", "190751.330000", "190751.333000", "190751.336000", "190751.339000", "190751.342000", "190751.344000", "190751.347000", "190751.350000", "190751.353000", "190751.356000", "190751.358000", "190751.361000", "190751.364000", "190751.367000", "190751.370000", "190751.392000", "190751.395000", "190751.398000", "190751.401000", "190751.404000", "190751.407000", "190751.409000", "190831.315000", "190831.318000", "190831.321000", "190831.323000", "190831.326000", "190831.329000", "190831.332000", "190831.335000", "190831.338000", "190831.341000", "190831.343000", "190831.346000", "190831.349000", "190831.352000", "190831.355000", "190831.358000", "190831.367000", "190831.370000", "190831.373000", "190831.375000", "190831.378000", "190831.381000", "190831.384000", "190831.387000", "190831.390000", "190831.392000", "190831.395000", "190911.315000", "190911.318000", "190911.322000", "190911.325000", "190911.328000", "190911.331000", "190911.334000", "190911.338000", "190911.340000", "190911.344000", "190911.346000", "190911.349000", "190911.352000", "190911.355000", "190911.358000", "190911.361000", "190911.364000", "190911.366000", "190911.369000", "190911.372000", "190911.375000", "190911.378000", "190911.381000", "190911.384000", "190911.388000", "190911.392000", "190931.315000", "190931.318000", "190931.321000", "190931.324000", "190931.326000", "190931.329000", "190931.332000", "190931.335000", "190931.338000", "190931.341000", "190931.344000", "190931.347000", "190931.349000", "190931.352000", "191011.315000", "191011.318000", "191011.321000", "191011.323000", "191011.326000", "191011.329000", "191011.332000", "191011.335000", "191011.338000", "191011.341000", "191011.344000", "191011.347000", "191011.349000", "191011.352000", "191011.355000", "191011.358000", "191011.361000", "191011.363000", "191011.366000", "191011.369000", "191011.372000", "191011.375000", "191011.378000", "191011.381000", "191011.383000", "191011.386000", "191011.389000", "191051.315000", "191051.318000", "191051.321000", "191051.324000", "191051.327000", "191051.330000", "191051.332000", "191051.335000", "191051.338000", "191051.341000", "191051.344000", "191051.347000", "191051.350000", "191051.353000", "191051.355000", "191051.358000", "191051.361000", "191051.364000", "191051.367000", "191051.370000", "191051.373000", "191051.376000", "191051.379000", "191051.383000", "191051.385000", "191051.388000", "191051.391000", "191131.315000", "191131.318000", "191131.321000", "191131.324000", "191131.327000", "191131.330000", "191131.333000", "191131.336000", "191131.339000", "191131.342000", "191131.344000", "191131.347000", "191131.350000", "191131.353000", "191131.356000", "191131.359000", "191131.362000", "191131.365000", "191131.368000", "191131.371000", "191131.373000", "191131.377000", "191131.379000", "191131.382000", "191131.385000", "191131.388000", "191211.316000", "191211.319000", "191211.322000", "191211.325000", "191211.328000", "191211.331000", "191211.333000", "191211.336000", "191211.469000", "191211.472000", "191211.475000", "191211.478000", "191211.481000", "191211.484000", "191211.487000", "191211.490000", "191211.493000", "191211.496000", "191211.499000", "191211.502000", "191211.505000", "191211.508000", "191211.510000", "191211.513000", "191211.516000", "191211.519000", "191211.522000", "191251.315000", "191251.318000", "191251.321000", "191251.324000", "191251.326000", "191251.329000", "191251.332000", "191251.335000", "191251.338000", "191251.341000", "191251.344000", "191251.346000", "191251.350000", "191251.352000", "191251.355000", "191251.358000", "191251.361000", "191251.364000", "191251.367000", "191251.370000", "191251.372000", "191251.375000", "191251.378000", "191251.381000", "191251.384000", "191251.387000", "191251.389000", "191331.315000", "191331.318000", "191331.321000", "191331.324000", "191331.326000", "191331.329000", "191331.332000", "191331.335000", "191331.338000", "191331.341000", "191331.344000", "191331.347000", "191331.349000", "191331.352000", "191331.355000", "191331.358000", "191331.361000", "191331.364000", "191331.367000", "191331.369000", "191331.372000", "191331.375000", "191331.378000", "191331.381000", "191331.384000", "191331.386000", "191331.389000", "191411.315000", "191411.318000", "191411.321000", "191411.324000", "191411.327000", "191411.329000", "191411.332000", "191411.335000", "191411.338000", "191411.341000", "191411.344000", "191411.347000", "191411.349000", "191411.357000", "191411.359000", "191411.362000", "191411.365000", "191411.368000", "191411.371000", "191411.374000", "191411.376000", "191411.379000", "191411.382000", "191411.385000", "191411.388000", "191411.391000", "191411.394000", "191451.315000", "191451.318000", "191451.321000", "191451.324000", "191451.327000", "191451.329000", "191451.332000", "191451.335000", "191451.338000", "191451.341000", "191451.344000", "191451.346000", "191451.349000", "191451.352000", "191451.355000", "191451.358000", "191451.360000", "191451.363000", "191451.366000", "191451.369000", "191451.372000", "191451.375000", "191451.378000", "191451.381000", "191451.383000", "191451.386000", "191451.389000", "191531.315000", "191531.318000", "191531.321000", "191531.324000", "191531.327000", "191531.330000", "191531.333000", "191531.336000", "191531.339000", "191531.342000", "191531.345000", "191531.348000", "191531.351000", "191531.353000", "191531.356000", "191531.359000", "191531.362000", "191531.365000", "191531.368000", "191531.371000", "191531.373000", "191531.376000", "191531.379000", "191531.382000", "191531.385000", "191531.388000", "191611.315000", "191611.318000", "191611.321000", "191611.324000", "191611.327000", "191611.330000", "191611.332000", "191611.335000", "191611.338000", "191611.341000", "191611.344000", "191611.347000", "191611.350000", "191611.352000", "191611.355000", "191611.358000", "191611.361000", "191611.364000", "191611.367000", "191611.369000", "191611.372000", "191611.375000", "191611.378000", "191611.381000", "191611.384000", "191611.387000", "191611.390000", "191633.960000", "191633.964000", "191633.967000", "191633.970000", "191633.973000", "191633.976000", "191633.979000", "191633.982000", "191633.985000", "191633.988000", "191633.990000", "191633.993000", "191633.996000", "191633.999000", "191634.002000", "191634.005000"],
