{
  "AcquisitionMatrixPE": 104,
  "AcquisitionNumber": 1,
  "AcquisitionTime": "18:51:0.552500",
  "BandwidthPerPixelPhaseEncode": 17.17,
  "BaseResolution": 104,
  "BodyPartExamined": "BRAIN",
  "CoilString": "HC1-7;NC1_2",
  "ConsistencyInfo": "N4_VE11C_LATEST_20160120",
  "ConversionSoftware": "dcm2niix",
  "ConversionSoftwareVersion": "v1.0.20190902",
  "DerivedVendorReportedEchoSpacing": 0.000560011,
  "DeviceSerialNumber": "167006",
  "DwellTime": 2.1e-06,
  "EchoTime": 0.037,
  "EchoTrainLength": 104,
  "EffectiveEchoSpacing": 0.000560011,
  "FlipAngle": 52,
  "HeudiconvVersion": "0.10.0",
  "ImageComments": "Unaliased_MB4_PE3_LB",
  "ImageOrientationPatientDICOM": [0.997671, -0.0658716, -0.0177335, 0.0542066, 0.923336, -0.380147],
  "ImageType": [
    "ORIGINAL",
    "PRIMARY",
    "M",
    "MB",
    "ND",
    "MOSAIC"
],
  "ImagingFrequency": 123.259,
  "InPlanePhaseEncodingDirectionDICOM": "COL",
  "InstitutionAddress": "Chemin_Queen-Mary_4565_Montreal_District_CA_H3W_1W5",
  "InstitutionName": "IUGM",
  "InstitutionalDepartmentName": "Department",
  "MRAcquisitionType": "2D",
  "MagneticFieldStrength": 3,
  "Manufacturer": "Siemens",
  "ManufacturersModelName": "Prisma_fit",
  "Modality": "MR",
  "MultibandAccelerationFactor": 4,
  "PartialFourier": 1,
  "PatientPosition": "HFS",
  "PercentPhaseFOV": 100,
  "PhaseEncodingDirection": "j",
  "PhaseEncodingSteps": 104,
  "PhaseResolution": 1,
  "PixelBandwidth": 2290,
  "ProcedureStepDescription": "video_friends",
  "ProtocolName": "func_task-friends-s04e23b",
  "PulseSequenceDetails": "%CustomerSeq%_cmrr_mbep2d_bold",
  "ReceiveCoilActiveElements": "HC1-7;NC1,2",
  "ReceiveCoilName": "HeadNeck_64",
  "ReconMatrixPE": 104,
  "RepetitionTime": 1.49,
  "SAR": 0.0366543,
  "ScanOptions": "FS",
  "ScanningSequence": "EP",
  "SequenceName": "epfid2d1_104",
  "SequenceVariant": "SK_SS",
  "SeriesDescription": "func_task-friends-s04e23b",
  "SeriesNumber": 29,
  "ShimSetting": [612, -7294, -8813, 460, 6, -447, 61, 33],
  "SliceThickness": 2,
  "SliceTiming": [0, 0.785, 0.1, 0.8825, 0.1975, 0.98, 0.295, 1.08, 0.3925, 1.1775, 0.49, 1.275, 0.59, 1.3725, 0.6875, 0, 0.785, 0.1, 0.8825, 0.1975, 0.98, 0.295, 1.08, 0.3925, 1.1775, 0.49, 1.275, 0.59, 1.3725, 0.6875, 0, 0.785, 0.1, 0.8825, 0.1975, 0.98, 0.295, 1.08, 0.3925, 1.1775, 0.49, 1.275, 0.59, 1.3725, 0.6875, 0, 0.785, 0.1, 0.8825, 0.1975, 0.98, 0.295, 1.08, 0.3925, 1.1775, 0.49, 1.275, 0.59, 1.3725, 0.6875],
  "SoftwareVersions": "syngo_MR_E11",
  "SpacingBetweenSlices": 2,
  "StationName": "MRC35049",
  "TaskName": "s04e23b",
  "TotalReadoutTime": 0.0576811,
  "TxRefAmp": 238.882,
  "WipMemBlock": "eac67192-7fda-4f12-a231-249dc9bb1386||Sequence: R016 ve11c/master r/e634e98; Dec 19 2017 11:00:25 by eja",
  "dcmmeta_affine": [
    [-1.9953410625457764, 0.10841315239667892, -0.08282966911792755, 96.25070190429688],
    [0.1317431479692459, 1.8466728925704956, -0.756599485874176, -76.35437774658203],
    [-0.035466987639665604, 0.7602931261062622, 1.8495124578475952, -58.09218215942383],
    [0.0, 0.0, 0.0, 1.0]
],
  "dcmmeta_reorient_transform": [
    [0.0, -1.0, 0.0, 103.0],
    [1.0, 0.0, 0.0, 0.0],
    [0.0, 0.0, 1.0, 0.0],
    [0.0, 0.0, 0.0, 1.0]
],
  "dcmmeta_shape": [104, 104, 60, 504],
  "dcmmeta_slice_dim": 2,
  "dcmmeta_version": 0.6,
  "global": {
    "const": {
      "AcquisitionMatrix": [104, 0, 0, 104],
      "AngioFlag": "N",
      "BitsAllocated": 16,
      "BitsStored": 16,
      "BodyPartExamined": "BRAIN",
      "Columns": 832,
      "EchoNumbers": 1,
      "EchoTime": 37.0,
      "EchoTrainLength": 104,
      "FlipAngle": 52.0,
      "HighBit": 15,
      "ImageOrientationPatient": [0.99767051596209, -0.0658715777037, -0.0177334946014, 0.05420657667712, 0.92333647306913, -0.3801465566663],
      "ImagePositionPatient": [-873.18377834351, -738.08738290989, 309.87468455778],
      "ImageType": [
        "ORIGINAL",
        "PRIMARY",
        "M",
        "MB",
        "ND",
        "MOSAIC"
],
      "ImagedNucleus": "1H",
      "ImagingFrequency": 123.258922,
      "InPlanePhaseEncodingDirection": "COL",
      "MRAcquisitionType": "2D",
      "MagneticFieldStrength": 3.0,
      "Manufacturer": "SIEMENS",
      "ManufacturerModelName": "Prisma_fit",
      "Modality": "MR",
      "NumberOfAverages": 1.0,
      "NumberOfPhaseEncodingSteps": 104,
      "PercentPhaseFieldOfView": 100.0,
      "PercentSampling": 100.0,
      "PerformedProcedureStepStartTime": "162807.111000",
      "PhotometricInterpretation": "MONOCHROME2",
      "PixelBandwidth": 2290.0,
      "PixelRepresentation": 0,
      "PixelSpacing": [2.0, 2.0],
      "ProtocolName": "func_task-friends-s04e23b",
      "RepetitionTime": 1490.0,
      "Rows": 832,
      "SAR": 0.03665431278346,
      "SamplesPerPixel": 1,
      "ScanOptions": "FS",
      "ScanningSequence": "EP",
      "SequenceName": "epfid2d1_104",
      "SequenceVariant": [
        "SK",
        "SS"
],
      "SeriesDescription": "func_task-friends-s04e23b",
      "SeriesNumber": 29,
      "SeriesTime": "185231.402000",
      "SliceLocation": -28.822476630958,
      "SliceThickness": 2.0,
      "SmallestImagePixelValue": 0,
      "SoftwareVersions": "syngo MR E11",
      "SpacingBetweenSlices": 1.9999999787416,
      "SpecificCharacterSet": "ISO_IR 100",
      "StudyID": "1",
      "StudyTime": "162807.060000",
      "TransmitCoilName": "Body",
      "VariableFlipAngleFlag": "N",
      "WindowCenterWidthExplanation": "Algo1",
      "dBdt": 0.0},
    "slices": {}
  },
  "time": {
    "samples": {
      "AcquisitionNumber": [1, 2, 3, 4, 5, 6, 7, 8, 9, 10, 11, 12, 13, 14, 15, 16, 17, 18, 19, 20, 21, 22, 23, 24, 25, 26, 27, 28, 29, 30, 31, 32, 33, 34, 35, 36, 37, 38, 39, 40, 41, 42, 43, 44, 45, 46, 47, 48, 49, 50, 51, 52, 53, 54, 55, 56, 57, 58, 59, 60, 61, 62, 63, 64, 65, 66, 67, 68, 69, 70, 71, 72, 73, 74, 75, 76, 77, 78, 79, 80, 81, 82, 83, 84, 85, 86, 87, 88, 89, 90, 91, 92, 93, 94, 95, 96, 97, 98, 99, 100, 101, 102, 103, 104, 105, 106, 107, 108, 109, 110, 111, 112, 113, 114, 115, 116, 117, 118, 119, 120, 121, 122, 123, 124, 125, 126, 127, 128, 129, 130, 131, 132, 133, 134, 135, 136, 137, 138, 139, 140, 141, 142, 143, 144, 145, 146, 147, 148, 149, 150, 151, 152, 153, 154, 155, 156, 157, 158, 159, 160, 161, 162, 163, 164, 165, 166, 167, 168, 169, 170, 171, 172, 173, 174, 175, 176, 177, 178, 179, 180, 181, 182, 183, 184, 185, 186, 187, 188, 189, 190, 191, 192, 193, 194, 195, 196, 197, 198, 199, 200, 201, 202, 203, 204, 205, 206, 207, 208, 209, 210, 211, 212, 213, 214, 215, 216, 217, 218, 219, 220, 221, 222, 223, 224, 225, 226, 227, 228, 229, 230, 231, 232, 233, 234, 235, 236, 237, 238, 239, 240, 241, 242, 243, 244, 245, 246, 247, 248, 249, 250, 251, 252, 253, 254, 255, 256, 257, 258, 259, 260, 261, 262, 263, 264, 265, 266, 267, 268, 269, 270, 271, 272, 273, 274, 275, 276, 277, 278, 279, 280, 281, 282, 283, 284, 285, 286, 287, 288, 289, 290, 291, 292, 293, 294, 295, 296, 297, 298, 299, 300, 301, 302, 303, 304, 305, 306, 307, 308, 309, 310, 311, 312, 313, 314, 315, 316, 317, 318, 319, 320, 321, 322, 323, 324, 325, 326, 327, 328, 329, 330, 331, 332, 333, 334, 335, 336, 337, 338, 339, 340, 341, 342, 343, 344, 345, 346, 347, 348, 349, 350, 351, 352, 353, 354, 355, 356, 357, 358, 359, 360, 361, 362, 363, 364, 365, 366, 367, 368, 369, 370, 371, 372, 373, 374, 375, 376, 377, 378, 379, 380, 381, 382, 383, 384, 385, 386, 387, 388, 389, 390, 391, 392, 393, 394, 395, 396, 397, 398, 399, 400, 401, 402, 403, 404, 405, 406, 407, 408, 409, 410, 411, 412, 413, 414, 415, 416, 417, 418, 419, 420, 421, 422, 423, 424, 425, 426, 427, 428, 429, 430, 431, 432, 433, 434, 435, 436, 437, 438, 439, 440, 441, 442, 443, 444, 445, 446, 447, 448, 449, 450, 451, 452, 453, 454, 455, 456, 457, 458, 459, 460, 461, 462, 463, 464, 465, 466, 467, 468, 469, 470, 471, 472, 473, 474, 475, 476, 477, 478, 479, 480, 481, 482, 483, 484, 485, 486, 487, 488, 489, 490, 491, 492, 493, 494, 495, 496, 497, 498, 499, 500, 501, 502, 503, 504],
      "AcquisitionTime": ["185100.552500", "185102.042500", "185103.532500", "185105.022500", "185106.512500", "185108.002500", "185109.492500", "185110.982500", "185112.472500", "185113.962500", "185115.452500", "185116.942500", "185118.432500", "185119.922500", "185121.412500", "185122.902500", "185124.392500", "185125.882500", "185127.372500", "185128.862500", "185130.352500", "185131.842500", "185133.332500", "185134.822500", "185136.312500", "185137.802500", "185139.292500", "185140.782500", "185142.272500", "185143.762500", "185145.252500", "185146.742500", "185148.232500", "185149.722500", "185151.212500", "185152.702500", "185154.192500", "185155.682500", "185157.172500", "185158.662500", "185200.152500", "185201.642500", "185203.132500", "185204.622500", "185206.112500", "185207.602500", "185209.092500", "185210.582500", "185212.072500", "185213.562500", "185215.052500", "185216.542500", "185218.032500", "185219.522500", "185221.012500", "185222.502500", "185223.992500", "185225.482500", "185226.972500", "185228.462500", "185229.952500", "185231.442500", "185232.932500", "185234.422500", "185235.912500", "185237.402500", "185238.892500", "185240.382500", "185241.872500", "185243.362500", "185244.852500", "185246.342500", "185247.832500", "185249.322500", "185250.812500", "185252.302500", "185253.792500", "185255.282500", "185256.772500", "185258.262500", "185259.752500", "185301.242500", "185302.732500", "185304.222500", "185305.712500", "185307.202500", "185308.692500", "185310.182500", "185311.672500", "185313.162500", "185314.652500", "185316.142500", "185317.632500", "185319.122500", "185320.612500", "185322.102500", "185323.592500", "185325.082500", "185326.572500", "185328.062500", "185329.552500", "185331.042500", "185332.532500", "185334.022500", "185335.512500", "185337.002500", "185338.492500", "185339.982500", "185341.472500", "185342.962500", "185344.452500", "185345.942500", "185347.432500", "185348.922500", "185350.412500", "185351.902500", "185353.392500", "185354.882500", "185356.372500", "185357.862500", "185359.352500", "185400.842500", "185402.332500", "185403.822500", "185405.312500", "185406.802500", "185408.292500", "185409.782500", "185411.272500", "185412.762500", "185414.252500", "185415.742500", "185417.232500", "185418.722500", "185420.212500", "185421.702500", "185423.192500", "185424.682500", "185426.172500", "185427.662500", "185429.152500", "185430.642500", "185432.132500", "185433.622500", "185435.112500", "185436.602500", "185438.092500", "185439.582500", "185441.072500", "185442.562500", "185444.052500", "185445.542500", "185447.032500", "185448.522500", "185450.012500", "185451.502500", "185452.992500", "185454.482500", "185455.972500", "185457.462500", "185458.952500", "185500.442500", "185501.932500", "185503.422500", "185504.912500", "185506.402500", "185507.892500", "185509.382500", "185510.872500", "185512.362500", "185513.852500", "185515.342500", "185516.832500", "185518.322500", "185519.812500", "185521.302500", "185522.792500", "185524.282500", "185525.772500", "185527.262500", "185528.752500", "185530.242500", "185531.732500", "185533.222500", "185534.712500", "185536.202500", "185537.692500", "185539.182500", "185540.672500", "185542.162500", "185543.652500", "185545.142500", "185546.632500", "185548.122500", "185549.612500", "185551.102500", "185552.592500", "185554.082500", "185555.572500", "185557.062500", "185558.552500", "185600.042500", "185601.532500", "185603.022500", "185604.512500", "185606.002500", "185607.492500", "185608.982500", "185610.472500", "185611.962500", "185613.452500", "185614.942500", "185616.432500", "185617.922500", "185619.412500", "185620.902500", "185622.392500", "185623.882500", "185625.372500", "185626.862500", "185628.352500", "185629.842500", "185631.332500", "185632.822500", "185634.312500", "185635.802500", "185637.292500", "185638.782500", "185640.272500", "185641.762500", "185643.252500", "185644.742500", "185646.232500", "185647.722500", "185649.212500", "185650.702500", "185652.192500", "185653.682500", "185655.172500", "185656.662500", "185658.152500", "185659.642500", "185701.132500", "185702.622500", "185704.112500", "185705.602500", "185707.092500", "185708.582500", "185710.072500", "185711.562500", "185713.052500", "185714.542500", "185716.032500", "185717.522500", "185719.012500", "185720.502500", "185721.992500", "185723.482500", "185724.972500", "185726.462500", "185727.952500", "185729.442500", "185730.932500", "185732.422500", "185733.912500", "185735.402500", "185736.892500", "185738.382500", "185739.872500", "185741.362500", "185742.852500", "185744.342500", "185745.832500", "185747.322500", "185748.812500", "185750.302500", "185751.792500", "185753.282500", "185754.772500", "185756.262500", "185757.752500", "185759.242500", "185800.732500", "185802.222500", "185803.712500", "185805.202500", "185806.692500", "185808.182500", "185809.672500", "185811.162500", "185812.652500", "185814.142500", "185815.632500", "185817.122500", "185818.612500", "185820.102500", "185821.592500", "185823.082500", "185824.572500", "185826.062500", "185827.552500", "185829.042500", "185830.532500", "185832.022500", "185833.512500", "185835.002500", "185836.492500", "185837.982500", "185839.472500", "185840.962500", "185842.452500", "185843.942500", "185845.432500", "185846.922500", "185848.412500", "185849.902500", "185851.392500", "185852.882500", "185854.372500", "185855.862500", "185857.352500", "185858.842500", "185900.332500", "185901.822500", "185903.312500", "185904.802500", "185906.292500", "185907.782500", "185909.272500", "185910.762500", "185912.252500", "185913.742500", "185915.232500", "185916.722500", "185918.212500", "185919.702500", "185921.192500", "185922.682500", "185924.172500", "185925.662500", "185927.152500", "185928.642500", "185930.132500", "185931.622500", "185933.112500", "185934.602500", "185936.092500", "185937.582500", "185939.072500", "185940.562500", "185942.052500", "185943.542500", "185945.032500", "185946.522500", "185948.012500", "185949.502500", "185950.992500", "185952.482500", "185953.972500", "185955.462500", "185956.952500", "185958.442500", "185959.932500", "190001.422500", "190002.912500", "190004.402500", "190005.892500", "190007.382500", "190008.872500", "190010.362500", "190011.852500", "190013.342500", "190014.832500", "190016.322500", "190017.812500", "190019.302500", "190020.792500", "190022.282500", "190023.772500", "190025.262500", "190026.752500", "190028.242500", "190029.732500", "190031.222500", "190032.712500", "190034.202500", "190035.692500", "190037.182500", "190038.672500", "190040.162500", "190041.652500", "190043.142500", "190044.632500", "190046.122500", "190047.612500", "190049.102500", "190050.592500", "190052.082500", "190053.572500", "190055.062500", "190056.552500", "190058.042500", "190059.532500", "190101.022500", "190102.512500", "190104.002500", "190105.492500", "190106.982500", "190108.472500", "190109.962500", "190111.452500", "190112.942500", "190114.432500", "190115.922500", "190117.412500", "190118.902500", "190120.392500", "190121.882500", "190123.372500", "190124.862500", "190126.352500", "190127.842500", "190129.332500", "190130.822500", "190132.312500", "190133.802500", "190135.292500", "190136.782500", "190138.272500", "190139.762500", "190141.252500", "190142.742500", "190144.232500", "190145.722500", "190147.212500", "190148.702500", "190150.192500", "190151.682500", "190153.172500", "190154.662500", "190156.152500", "190157.642500", "190159.132500", "190200.622500", "190202.112500", "190203.602500", "190205.092500", "190206.582500", "190208.072500", "190209.562500", "190211.052500", "190212.542500", "190214.032500", "190215.522500", "190217.012500", "190218.502500", "190219.992500", "190221.482500", "190222.972500", "190224.462500", "190225.952500", "190227.442500", "190228.932500", "190230.422500", "190231.912500", "190233.402500", "190234.892500", "190236.382500", "190237.872500", "190239.362500", "190240.852500", "190242.342500", "190243.832500", "190245.322500", "190246.812500", "190248.302500", "190249.792500", "190251.282500", "190252.772500", "190254.262500", "190255.752500", "190257.242500", "190258.732500", "190300.222500", "190301.712500", "190303.202500", "190304.692500", "190306.182500", "190307.672500", "190309.162500", "190310.652500", "190312.142500", "190313.632500", "190315.122500", "190316.612500", "190318.102500", "190319.592500", "190321.082500", "190322.572500", "190324.062500", "190325.552500", "190327.042500", "190328.532500", "190330.022500"],
      "ContentTime": ["185231.405000", "185231.408000", "185231.411000", "185231.414000", "185231.417000", "185231.420000", "185231.428000", "185231.431000", "185231.434000", "185231.436000", "185231.439000", "185231.442000", "185231.445000", "185231.448000", "185231.450000", "185231.453000", "185231.456000", "185231.459000", "185231.462000", "185231.464000", "185231.467000", "185231.470000", "185231.473000", "185231.476000", "185231.478000", "185231.496000", "185231.498000", "185231.501000", "185231.504000", "185231.507000", "185231.510000", "185231.516000", "185231.519000", "185231.521000", "185231.524000", "185251.374000", "185251.377000", "185251.380000", "185251.382000", "185251.385000", "185251.388000", "185251.391000", "185251.401000", "185251.404000", "185251.407000", "185251.410000", "185251.412000", "185251.415000", "185251.418000", "185251.421000", "185251.424000", "185251.427000", "185251.429000", "185251.432000", "185251.436000", "185311.374000", "185311.383000", "185311.386000", "185311.389000", "185311.392000", "185311.395000", "185311.398000", "185311.400000", "185311.403000", "185311.406000", "185311.409000", "185311.412000", "185311.414000", "185311.417000", "185311.420000", "185311.423000", "185311.426000", "185311.428000", "185311.431000", "185311.434000", "185331.374000", "185331.377000", "185331.380000", "185331.382000", "185331.385000", "185331.388000", "185331.391000", "185331.394000", "185331.397000", "185331.399000", "185331.402000", "185331.405000", "185331.408000", "185331.411000", "185331.413000", "185331.416000", "185331.419000", "185331.422000", "185331.425000", "185331.427000", "185411.374000", "185411.377000", "185411.380000", "185411.383000", "185411.385000", "185411.388000", "185411.391000", "185411.394000", "185411.397000", "185411.399000", "185411.402000", "185411.405000", "185411.408000", "185411.411000", "185411.414000", "185411.417000", "185411.419000", "185411.422000", "185411.425000", "185411.428000", "185411.430000", "185411.433000", "185411.436000", "185411.439000", "185411.442000", "185411.444000", "185411.447000", "185411.450000", "185411.453000", "185411.456000", "185411.459000", "185411.462000", "185451.374000", "185451.377000", "185451.380000", "185451.382000", "185451.385000", "185451.388000", "185451.391000", "185451.394000", "185451.397000", "185451.400000", "185451.402000", "185451.405000", "185451.408000", "185451.411000", "185451.414000", "185451.416000", "185451.419000", "185451.422000", "185451.425000", "185451.428000", "185451.431000", "185451.433000", "185451.436000", "185451.439000", "185451.442000", "185451.445000", "185451.447000", "185531.374000", "185531.377000", "185531.380000", "185531.383000", "185531.385000", "185531.388000", "185531.391000", "185531.394000", "185531.397000", "185531.400000", "185531.403000", "185531.405000", "185531.408000", "185531.411000", "185531.414000", "185531.417000", "185531.420000", "185531.423000", "185531.425000", "185531.428000", "185531.431000", "185531.434000", "185531.437000", "185531.440000", "185531.442000", "185531.445000", "185531.448000", "185611.375000", "185611.378000", "185611.381000", "185611.384000", "185611.386000", "185611.389000", "185611.392000", "185611.395000", "185611.398000", "185611.401000", "185611.404000", "185611.406000", "185611.409000", "185611.412000", "185611.415000", "185611.418000", "185611.420000", "185611.423000", "185611.426000", "185611.429000", "185611.432000", "185611.435000", "185611.437000", "185611.440000", "185611.443000", "185611.446000", "185611.448000", "185651.374000", "185651.377000", "185651.380000", "185651.383000", "185651.386000", "185651.389000", "185651.392000", "185651.394000", "185651.397000", "185651.400000", "185651.403000", "185651.406000", "185651.409000", "185651.411000", "185651.414000", "185651.417000", "185651.420000", "185651.423000", "185651.425000", "185651.449000", "185651.452000", "185651.455000", "185651.457000", "185651.460000", "185651.463000", "185651.466000", "185731.374000", "185731.377000", "185731.380000", "185731.383000", "185731.385000", "185731.388000", "185731.391000", "185731.394000", "185731.397000", "185731.400000", "185731.402000", "185731.405000", "185731.408000", "185731.411000", "185731.414000", "185731.416000", "185731.419000", "185731.422000", "185731.425000", "185731.428000", "185731.431000", "185731.434000", "185731.437000", "185731.439000", "185731.442000", "185731.445000", "185731.448000", "185811.374000", "185811.377000", "185811.380000", "185811.383000", "185811.386000", "185811.388000", "185811.391000", "185811.394000", "185811.397000", "185811.400000", "185811.403000", "185811.405000", "185811.408000", "185811.411000", "185811.414000", "185811.417000", "185811.419000", "185811.422000", "185811.425000", "185811.428000", "185811.431000", "185811.434000", "185811.436000", "185811.439000", "185811.442000", "185811.445000", "185811.448000", "185851.374000", "185851.377000", "185851.380000", "185851.383000", "185851.386000", "185851.388000", "185851.391000", "185851.394000", "185851.397000", "185851.400000", "185851.403000", "185851.405000", "185851.408000", "185851.411000", "185851.414000", "185851.417000", "185851.420000", "185851.422000", "185851.425000", "185851.428000", "185851.431000", "185851.434000", "185851.437000", "185851.439000", "185851.442000", "185851.445000", "185851.448000", "185931.374000", "185931.377000", "185931.380000", "185931.383000", "185931.386000", "185931.388000", "185931.391000", "185931.394000", "185931.397000", "185931.400000", "185931.403000", "185931.406000", "185931.408000", "185931.411000", "185931.414000", "185931.417000", "185931.420000", "185931.422000", "185931.425000", "185931.428000", "185931.431000", "185931.434000", "185931.437000", "185931.439000", "185931.442000", "185931.469000", "185931.472000", "190011.374000", "190011.377000", "190011.380000", "190011.383000", "190011.385000", "190011.388000", "190011.391000", "190011.394000", "190011.397000", "190011.399000", "190011.402000", "190011.405000", "190011.408000", "190011.411000", "190011.414000", "190011.417000", "190011.419000", "190011.422000", "190011.425000", "190011.428000", "190011.431000", "190011.434000", "190011.436000", "190011.439000", "190011.442000", "190011.445000", "190011.448000", "190051.375000", "190051.378000", "190051.381000", "190051.383000", "190051.386000", "190051.389000", "190051.392000", "190051.395000", "190051.398000", "190051.401000", "190051.403000", "190051.406000", "190051.409000", "190051.412000", "190051.415000", "190051.418000", "190051.421000", "190051.423000", "190051.426000", "190051.429000", "190051.432000", "190051.435000", "190051.438000", "190051.440000", "190051.443000", "190051.446000", "190051.449000", "190131.374000", "190131.377000", "190131.380000", "190131.383000", "190131.386000", "190131.388000", "190131.409000", "190131.412000", "190131.415000", "190131.418000", "190131.421000", "190131.423000", "190131.426000", "190131.429000", "190131.432000", "190131.435000", "190131.439000", "190131.442000", "190131.445000", "190131.448000", "190131.450000", "190131.453000", "190131.456000", "190131.459000", "190131.462000", "190131.464000", "190211.374000", "190211.377000", "190211.380000", "190211.383000", "190211.385000", "190211.388000", "190211.391000", "190211.394000", "190211.397000", "190211.400000", "190211.403000", "190211.406000", "190211.408000", "190211.411000", "190211.414000", "190211.417000", "190211.420000", "190211.422000", "190211.425000", "190211.428000", "190211.431000", "190211.434000", "190211.437000", "190211.439000", "190211.442000", "190211.445000", "190211.448000", "190251.374000", "190251.377000", "190251.380000", "190251.383000", "190251.385000", "190251.388000", "190251.392000", "190251.395000", "190251.398000", "190251.401000", "190251.404000", "190251.406000", "190251.409000", "190251.412000", "190251.415000", "190251.418000", "190251.421000", "190251.424000", "190251.426000", "190251.429000", "190251.432000", "190251.435000", "190251.438000", "190251.441000", "190251.443000", "190251.446000", "190251.449000", "190331.374000", "190331.377000", "190331.380000", "190331.383000", "190331.386000", "190331.388000", "190331.391000", "190331.394000", "190331.397000", "190331.400000", "190331.403000", "190331.405000", "190331.408000", "190331.411000", "190331.414000", "190331.417000", "190331.420000", "190331.422000", "190331.425000", "190331.428000", "190331.431000", "190331.434000", "190331.437000", "190331.440000", "190331.443000", "190331.445000", "190331.448000", "190332.305000"],
