{
  "AcquisitionMatrixPE": 104,
  "AcquisitionNumber": 1,
  "AcquisitionTime": "19:16:54.980000",
  "BandwidthPerPixelPhaseEncode": 17.17,
  "BaseResolution": 104,
  "BodyPartExamined": "BRAIN",
  "CoilString": "HC1-7;NC1_2",
  "ConsistencyInfo": "N4_VE11C_LATEST_20160120",
  "ConversionSoftware": "dcm2niix",
  "ConversionSoftwareVersion": "v1.0.20190902",
  "DerivedVendorReportedEchoSpacing": 0.000560011,
  "DeviceSerialNumber": "167006",
  "DwellTime": 2.1e-06,
  "EchoTime": 0.037,
  "EchoTrainLength": 104,
  "EffectiveEchoSpacing": 0.000560011,
  "FlipAngle": 52,
  "HeudiconvVersion": "0.10.0",
  "ImageComments": "Unaliased_MB4_PE3_LB",
  "ImageOrientationPatientDICOM": [0.997671, -0.0658716, -0.0177335, 0.0542066, 0.923336, -0.380147],
  "ImageType": [
    "ORIGINAL",
    "PRIMARY",
    "M",
    "MB",
    "ND",
    "MOSAIC"
],
  "ImagingFrequency": 123.259,
  "InPlanePhaseEncodingDirectionDICOM": "COL",
  "InstitutionAddress": "Chemin_Queen-Mary_4565_Montreal_District_CA_H3W_1W5",
  "InstitutionName": "IUGM",
  "InstitutionalDepartmentName": "Department",
  "MRAcquisitionType": "2D",
  "MagneticFieldStrength": 3,
  "Manufacturer": "Siemens",
  "ManufacturersModelName": "Prisma_fit",
  "Modality": "MR",
  "MultibandAccelerationFactor": 4,
  "PartialFourier": 1,
  "PatientPosition": "HFS",
  "PercentPhaseFOV": 100,
  "PhaseEncodingDirection": "j",
  "PhaseEncodingSteps": 104,
  "PhaseResolution": 1,
  "PixelBandwidth": 2290,
  "ProcedureStepDescription": "video_friends",
  "ProtocolName": "func_task-friends-s04e23d",
  "PulseSequenceDetails": "%CustomerSeq%_cmrr_mbep2d_bold",
  "ReceiveCoilActiveElements": "HC1-7;NC1,2",
  "ReceiveCoilName": "HeadNeck_64",
  "ReconMatrixPE": 104,
  "RepetitionTime": 1.49,
  "SAR": 0.0366543,
  "ScanOptions": "FS",
  "ScanningSequence": "EP",
  "SequenceName": "epfid2d1_104",
  "SequenceVariant": "SK_SS",
  "SeriesDescription": "func_task-friends-s04e23d",
  "SeriesNumber": 33,
  "ShimSetting": [612, -7294, -8813, 460, 6, -447, 61, 33],
  "SliceThickness": 2,
  "SliceTiming": [0, 0.7825, 0.0975, 0.88, 0.195, 0.98, 0.2925, 1.0775, 0.39, 1.175, 0.49, 1.2725, 0.5875, 1.37, 0.685, 0, 0.7825, 0.0975, 0.88, 0.195, 0.98, 0.2925, 1.0775, 0.39, 1.175, 0.49, 1.2725, 0.5875, 1.37, 0.685, 0, 0.7825, 0.0975, 0.88, 0.195, 0.98, 0.2925, 1.0775, 0.39, 1.175, 0.49, 1.2725, 0.5875, 1.37, 0.685, 0, 0.7825, 0.0975, 0.88, 0.195, 0.98, 0.2925, 1.0775, 0.39, 1.175, 0.49, 1.2725, 0.5875, 1.37, 0.685],
  "SoftwareVersions": "syngo_MR_E11",
  "SpacingBetweenSlices": 2,
  "StationName": "MRC35049",
  "TaskName": "s04e23d",
  "TotalReadoutTime": 0.0576811,
  "TxRefAmp": 238.882,
  "WipMemBlock": "1ac51e75-afb4-491f-a6e2-f6127bdd804d||Sequence: R016 ve11c/master r/e634e98; Dec 19 2017 11:00:25 by eja",
  "dcmmeta_affine": [
    [-1.9953410625457764, 0.10841315239667892, -0.08282966911792755, 96.25070190429688],
    [0.1317431479692459, 1.8466728925704956, -0.756599485874176, -76.35437774658203],
    [-0.035466987639665604, 0.7602931261062622, 1.8495124578475952, -58.09218215942383],
    [0.0, 0.0, 0.0, 1.0]
],
  "dcmmeta_reorient_transform": [
    [0.0, -1.0, 0.0, 103.0],
    [1.0, 0.0, 0.0, 0.0],
    [0.0, 0.0, 1.0, 0.0],
    [0.0, 0.0, 0.0, 1.0]
],
  "dcmmeta_shape": [104, 104, 60, 504],
  "dcmmeta_slice_dim": 2,
  "dcmmeta_version": 0.6,
  "global": {
    "const": {
      "AcquisitionMatrix": [104, 0, 0, 104],
      "AngioFlag": "N",
      "BitsAllocated": 16,
      "BitsStored": 16,
      "BodyPartExamined": "BRAIN",
      "Columns": 832,
      "EchoNumbers": 1,
      "EchoTime": 37.0,
      "EchoTrainLength": 104,
      "FlipAngle": 52.0,
      "HighBit": 15,
      "ImageOrientationPatient": [0.99767051596209, -0.0658715777037, -0.0177334946014, 0.05420657667712, 0.92333647306913, -0.3801465566663],
      "ImagePositionPatient": [-873.18377834351, -738.08738290989, 309.87468455778],
      "ImageType": [
        "ORIGINAL",
        "PRIMARY",
        "M",
        "MB",
        "ND",
        "MOSAIC"
],
      "ImagedNucleus": "1H",
      "ImagingFrequency": 123.258927,
      "InPlanePhaseEncodingDirection": "COL",
      "MRAcquisitionType": "2D",
      "MagneticFieldStrength": 3.0,
      "Manufacturer": "SIEMENS",
      "ManufacturerModelName": "Prisma_fit",
      "Modality": "MR",
      "NumberOfAverages": 1.0,
      "NumberOfPhaseEncodingSteps": 104,
      "PercentPhaseFieldOfView": 100.0,
      "PercentSampling": 100.0,
      "PerformedProcedureStepStartTime": "162807.111000",
      "PhotometricInterpretation": "MONOCHROME2",
      "PixelBandwidth": 2290.0,
      "PixelRepresentation": 0,
      "PixelSpacing": [2.0, 2.0],
      "ProtocolName": "func_task-friends-s04e23d",
      "RepetitionTime": 1490.0,
      "Rows": 832,
      "SAR": 0.03665431278346,
      "SamplesPerPixel": 1,
      "ScanOptions": "FS",
      "ScanningSequence": "EP",
      "SequenceName": "epfid2d1_104",
      "SequenceVariant": [
        "SK",
        "SS"
],
      "SeriesDescription": "func_task-friends-s04e23d",
      "SeriesNumber": 33,
      "SeriesTime": "191818.438000",
      "SliceLocation": -28.822476630958,
      "SliceThickness": 2.0,
      "SmallestImagePixelValue": 0,
      "SoftwareVersions": "syngo MR E11",
      "SpacingBetweenSlices": 1.9999999787416,
      "SpecificCharacterSet": "ISO_IR 100",
      "StudyID": "1",
      "StudyTime": "162807.060000",
      "TransmitCoilName": "Body",
      "VariableFlipAngleFlag": "N",
      "WindowCenterWidthExplanation": "Algo1",
      "dBdt": 0.0},
    "slices": {}
  },
  "time": {
    "samples": {
      "AcquisitionNumber": [1, 2, 3, 4, 5, 6, 7, 8, 9, 10, 11, 12, 13, 14, 15, 16, 17, 18, 19, 20, 21, 22, 23, 24, 25, 26, 27, 28, 29, 30, 31, 32, 33, 34, 35, 36, 37, 38, 39, 40, 41, 42, 43, 44, 45, 46, 47, 48, 49, 50, 51, 52, 53, 54, 55, 56, 57, 58, 59, 60, 61, 62, 63, 64, 65, 66, 67, 68, 69, 70, 71, 72, 73, 74, 75, 76, 77, 78, 79, 80, 81, 82, 83, 84, 85, 86, 87, 88, 89, 90, 91, 92, 93, 94, 95, 96, 97, 98, 99, 100, 101, 102, 103, 104, 105, 106, 107, 108, 109, 110, 111, 112, 113, 114, 115, 116, 117, 118, 119, 120, 121, 122, 123, 124, 125, 126, 127, 128, 129, 130, 131, 132, 133, 134, 135, 136, 137, 138, 139, 140, 141, 142, 143, 144, 145, 146, 147, 148, 149, 150, 151, 152, 153, 154, 155, 156, 157, 158, 159, 160, 161, 162, 163, 164, 165, 166, 167, 168, 169, 170, 171, 172, 173, 174, 175, 176, 177, 178, 179, 180, 181, 182, 183, 184, 185, 186, 187, 188, 189, 190, 191, 192, 193, 194, 195, 196, 197, 198, 199, 200, 201, 202, 203, 204, 205, 206, 207, 208, 209, 210, 211, 212, 213, 214, 215, 216, 217, 218, 219, 220, 221, 222, 223, 224, 225, 226, 227, 228, 229, 230, 231, 232, 233, 234, 235, 236, 237, 238, 239, 240, 241, 242, 243, 244, 245, 246, 247, 248, 249, 250, 251, 252, 253, 254, 255, 256, 257, 258, 259, 260, 261, 262, 263, 264, 265, 266, 267, 268, 269, 270, 271, 272, 273, 274, 275, 276, 277, 278, 279, 280, 281, 282, 283, 284, 285, 286, 287, 288, 289, 290, 291, 292, 293, 294, 295, 296, 297, 298, 299, 300, 301, 302, 303, 304, 305, 306, 307, 308, 309, 310, 311, 312, 313, 314, 315, 316, 317, 318, 319, 320, 321, 322, 323, 324, 325, 326, 327, 328, 329, 330, 331, 332, 333, 334, 335, 336, 337, 338, 339, 340, 341, 342, 343, 344, 345, 346, 347, 348, 349, 350, 351, 352, 353, 354, 355, 356, 357, 358, 359, 360, 361, 362, 363, 364, 365, 366, 367, 368, 369, 370, 371, 372, 373, 374, 375, 376, 377, 378, 379, 380, 381, 382, 383, 384, 385, 386, 387, 388, 389, 390, 391, 392, 393, 394, 395, 396, 397, 398, 399, 400, 401, 402, 403, 404, 405, 406, 407, 408, 409, 410, 411, 412, 413, 414, 415, 416, 417, 418, 419, 420, 421, 422, 423, 424, 425, 426, 427, 428, 429, 430, 431, 432, 433, 434, 435, 436, 437, 438, 439, 440, 441, 442, 443, 444, 445, 446, 447, 448, 449, 450, 451, 452, 453, 454, 455, 456, 457, 458, 459, 460, 461, 462, 463, 464, 465, 466, 467, 468, 469, 470, 471, 472, 473, 474, 475, 476, 477, 478, 479, 480, 481, 482, 483, 484, 485, 486, 487, 488, 489, 490, 491, 492, 493, 494, 495, 496, 497, 498, 499, 500, 501, 502, 503, 504],
      "AcquisitionTime": ["191654.980000", "191656.470000", "191657.960000", "191659.450000", "191700.940000", "191702.430000", "191703.920000", "191705.410000", "191706.900000", "191708.390000", "191709.880000", "191711.370000", "191712.860000", "191714.350000", "191715.840000", "191717.330000", "191718.820000", "191720.310000", "191721.800000", "191723.290000", "191724.780000", "191726.270000", "191727.760000", "191729.250000", "191730.740000", "191732.230000", "191733.720000", "191735.210000", "191736.700000", "191738.190000", "191739.680000", "191741.170000", "191742.660000", "191744.150000", "191745.640000", "191747.130000", "191748.620000", "191750.110000", "191751.600000", "191753.090000", "191754.580000", "191756.070000", "191757.560000", "191759.050000", "191800.540000", "191802.030000", "191803.520000", "191805.010000", "191806.500000", "191807.990000", "191809.480000", "191810.970000", "191812.460000", "191813.950000", "191815.440000", "191816.930000", "191818.420000", "191819.910000", "191821.400000", "191822.890000", "191824.380000", "191825.870000", "191827.360000", "191828.850000", "191830.340000", "191831.830000", "191833.320000", "191834.810000", "191836.300000", "191837.790000", "191839.280000", "191840.770000", "191842.260000", "191843.750000", "191845.240000", "191846.730000", "191848.220000", "191849.710000", "191851.200000", "191852.690000", "191854.180000", "191855.670000", "191857.160000", "191858.650000", "191900.140000", "191901.630000", "191903.120000", "191904.610000", "191906.100000", "191907.590000", "191909.080000", "191910.570000", "191912.060000", "191913.550000", "191915.040000", "191916.530000", "191918.020000", "191919.510000", "191921.000000", "191922.490000", "191923.980000", "191925.470000", "191926.960000", "191928.450000", "191929.940000", "191931.430000", "191932.920000", "191934.410000", "191935.900000", "191937.390000", "191938.880000", "191940.370000", "191941.860000", "191943.350000", "191944.840000", "191946.330000", "191947.820000", "191949.310000", "191950.800000", "191952.290000", "191953.780000", "191955.270000", "191956.760000", "191958.250000", "191959.740000", "192001.230000", "192002.720000", "192004.210000", "192005.700000", "192007.190000", "192008.680000", "192010.170000", "192011.660000", "192013.150000", "192014.640000", "192016.130000", "192017.620000", "192019.110000", "192020.600000", "192022.090000", "192023.580000", "192025.070000", "192026.560000", "192028.050000", "192029.540000", "192031.030000", "192032.520000", "192034.010000", "192035.500000", "192036.990000", "192038.480000", "192039.970000", "192041.460000", "192042.950000", "192044.440000", "192045.930000", "192047.420000", "192048.910000", "192050.400000", "192051.890000", "192053.380000", "192054.870000", "192056.360000", "192057.850000", "192059.340000", "192100.830000", "192102.320000", "192103.810000", "192105.300000", "192106.790000", "192108.280000", "192109.770000", "192111.260000", "192112.750000", "192114.240000", "192115.730000", "192117.220000", "192118.710000", "192120.200000", "192121.690000", "192123.180000", "192124.670000", "192126.160000", "192127.650000", "192129.140000", "192130.630000", "192132.120000", "192133.610000", "192135.100000", "192136.590000", "192138.080000", "192139.570000", "192141.060000", "192142.550000", "192144.040000", "192145.530000", "192147.020000", "192148.510000", "192150.000000", "192151.490000", "192152.980000", "192154.470000", "192155.960000", "192157.450000", "192158.940000", "192200.430000", "192201.920000", "192203.410000", "192204.900000", "192206.390000", "192207.880000", "192209.370000", "192210.860000", "192212.350000", "192213.840000", "192215.330000", "192216.820000", "192218.310000", "192219.800000", "192221.290000", "192222.780000", "192224.270000", "192225.760000", "192227.250000", "192228.740000", "192230.230000", "192231.720000", "192233.210000", "192234.700000", "192236.190000", "192237.680000", "192239.170000", "192240.660000", "192242.150000", "192243.640000", "192245.130000", "192246.620000", "192248.110000", "192249.600000", "192251.090000", "192252.580000", "192254.070000", "192255.560000", "192257.050000", "192258.540000", "192300.030000", "192301.520000", "192303.010000", "192304.500000", "192305.990000", "192307.480000", "192308.970000", "192310.460000", "192311.950000", "192313.440000", "192314.930000", "192316.420000", "192317.910000", "192319.400000", "192320.890000", "192322.380000", "192323.870000", "192325.360000", "192326.850000", "192328.340000", "192329.830000", "192331.320000", "192332.810000", "192334.300000", "192335.790000", "192337.280000", "192338.770000", "192340.260000", "192341.750000", "192343.240000", "192344.730000", "192346.220000", "192347.710000", "192349.200000", "192350.690000", "192352.180000", "192353.670000", "192355.160000", "192356.650000", "192358.140000", "192359.630000", "192401.120000", "192402.610000", "192404.100000", "192405.590000", "192407.080000", "192408.570000", "192410.060000", "192411.550000", "192413.040000", "192414.530000", "192416.020000", "192417.510000", "192419.000000", "192420.490000", "192421.980000", "192423.470000", "192424.960000", "192426.450000", "192427.940000", "192429.430000", "192430.920000", "192432.410000", "192433.900000", "192435.390000", "192436.880000", "192438.370000", "192439.860000", "192441.350000", "192442.840000", "192444.330000", "192445.820000", "192447.310000", "192448.800000", "192450.290000", "192451.780000", "192453.270000", "192454.760000", "192456.250000", "192457.740000", "192459.230000", "192500.720000", "192502.210000", "192503.700000", "192505.190000", "192506.680000", "192508.170000", "192509.660000", "192511.150000", "192512.640000", "192514.130000", "192515.620000", "192517.110000", "192518.600000", "192520.090000", "192521.580000", "192523.070000", "192524.560000", "192526.050000", "192527.540000", "192529.030000", "192530.520000", "192532.010000", "192533.500000", "192534.990000", "192536.480000", "192537.970000", "192539.460000", "192540.950000", "192542.440000", "192543.930000", "192545.420000", "192546.910000", "192548.400000", "192549.890000", "192551.380000", "192552.870000", "192554.360000", "192555.850000", "192557.340000", "192558.830000", "192600.320000", "192601.810000", "192603.300000", "192604.790000", "192606.280000", "192607.770000", "192609.260000", "192610.750000", "192612.240000", "192613.730000", "192615.220000", "192616.710000", "192618.200000", "192619.690000", "192621.180000", "192622.670000", "192624.160000", "192625.650000", "192627.140000", "192628.630000", "192630.120000", "192631.610000", "192633.100000", "192634.590000", "192636.080000", "192637.570000", "192639.060000", "192640.550000", "192642.040000", "192643.530000", "192645.020000", "192646.510000", "192648.000000", "192649.490000", "192650.980000", "192652.470000", "192653.960000", "192655.450000", "192656.940000", "192658.430000", "192659.920000", "192701.410000", "192702.900000", "192704.390000", "192705.880000", "192707.370000", "192708.860000", "192710.350000", "192711.840000", "192713.330000", "192714.820000", "192716.310000", "192717.800000", "192719.290000", "192720.780000", "192722.270000", "192723.760000", "192725.250000", "192726.740000", "192728.230000", "192729.720000", "192731.210000", "192732.700000", "192734.190000", "192735.680000", "192737.170000", "192738.660000", "192740.150000", "192741.640000", "192743.130000", "192744.620000", "192746.110000", "192747.600000", "192749.090000", "192750.580000", "192752.070000", "192753.560000", "192755.050000", "192756.540000", "192758.030000", "192759.520000", "192801.010000", "192802.500000", "192803.990000", "192805.480000", "192806.970000", "192808.460000", "192809.950000", "192811.440000", "192812.930000", "192814.420000", "192815.910000", "192817.400000", "192818.890000", "192820.380000", "192821.870000", "192823.360000", "192824.850000", "192826.340000", "192827.830000", "192829.320000", "192830.810000", "192832.300000", "192833.790000", "192835.280000", "192836.770000", "192838.260000", "192839.750000", "192841.240000", "192842.730000", "192844.220000", "192845.710000", "192847.200000", "192848.690000", "192850.180000", "192851.670000", "192853.160000", "192854.650000", "192856.140000", "192857.630000", "192859.120000", "192900.610000", "192902.100000", "192903.590000", "192905.080000", "192906.570000", "192908.060000", "192909.550000", "192911.040000", "192912.530000", "192914.020000", "192915.510000", "192917.000000", "192918.490000", "192919.980000", "192921.470000", "192922.960000", "192924.450000"],
      "ContentTime": ["191818.445000", "191818.449000", "191818.453000", "191818.456000", "191818.459000", "191818.463000", "191818.466000", "191818.469000", "191818.472000", "191818.476000", "191818.479000", "191818.482000", "191818.486000", "191818.489000", "191818.492000", "191818.496000", "191818.505000", "191818.509000", "191818.512000", "191818.524000", "191818.527000", "191818.531000", "191818.534000", "191818.537000", "191818.540000", "191818.544000", "191818.547000", "191818.550000", "191818.554000", "191818.557000", "191838.398000", "191838.401000", "191838.404000", "191838.407000", "191838.409000", "191838.412000", "191838.415000", "191838.418000", "191838.421000", "191838.424000", "191838.426000", "191838.429000", "191838.432000", "191838.435000", "191838.438000", "191838.440000", "191838.443000", "191838.446000", "191838.449000", "191838.452000", "191858.398000", "191858.401000", "191858.404000", "191858.407000", "191858.409000", "191858.413000", "191858.415000", "191858.418000", "191858.421000", "191858.424000", "191858.427000", "191858.430000", "191858.433000", "191858.435000", "191858.438000", "191858.441000", "191858.444000", "191858.447000", "191858.450000", "191858.452000", "191858.455000", "191918.398000", "191918.401000", "191918.404000", "191918.406000", "191918.409000", "191918.412000", "191918.415000", "191918.418000", "191918.421000", "191918.423000", "191918.490000", "191918.493000", "191918.496000", "191918.499000", "191918.502000", "191918.504000", "191918.507000", "191918.510000", "191918.513000", "191918.516000", "191938.397000", "191938.413000", "191938.416000", "191938.419000", "191938.421000", "191938.424000", "191938.427000", "191938.430000", "191938.433000", "191938.436000", "191938.439000", "191938.442000", "191938.445000", "191938.448000", "191938.451000", "191938.453000", "191938.456000", "191938.459000", "192018.397000", "192018.400000", "192018.409000", "192018.412000", "192018.414000", "192018.417000", "192018.420000", "192018.423000", "192018.426000", "192018.429000", "192018.431000", "192018.434000", "192018.437000", "192018.440000", "192018.443000", "192018.446000", "192018.448000", "192018.451000", "192018.454000", "192018.457000", "192018.459000", "192018.462000", "192018.465000", "192018.468000", "192018.471000", "192018.474000", "192018.477000", "192058.398000", "192058.401000", "192058.404000", "192058.407000", "192058.410000", "192058.413000", "192058.416000", "192058.419000", "192058.422000", "192058.425000", "192058.428000", "192058.430000", "192058.433000", "192058.436000", "192058.439000", "192058.442000", "192058.445000", "192058.447000", "192058.450000", "192058.453000", "192058.456000", "192058.459000", "192058.461000", "192058.464000", "192058.467000", "192058.470000", "192058.473000", "192138.398000", "192138.401000", "192138.404000", "192138.407000", "192138.409000", "192138.412000", "192138.415000", "192138.418000", "192138.421000", "192138.424000", "192138.426000", "192138.429000", "192138.432000", "192138.435000", "192138.438000", "192138.441000", "192138.444000", "192138.446000", "192138.449000", "192138.452000", "192138.455000", "192138.458000", "192138.461000", "192138.464000", "192138.467000", "192138.470000", "192138.472000", "192218.397000", "192218.400000", "192218.403000", "192218.406000", "192218.408000", "192218.411000", "192218.414000", "192218.417000", "192218.420000", "192218.423000", "192218.426000", "192218.428000", "192218.431000", "192218.434000", "192218.437000", "192218.440000", "192218.443000", "192218.445000", "192218.448000", "192218.451000", "192218.454000", "192218.457000", "192218.461000", "192218.464000", "192218.467000", "192218.469000", "192258.398000", "192258.401000", "192258.404000", "192258.407000", "192258.409000", "192258.412000", "192258.415000", "192258.418000", "192258.421000", "192258.424000", "192258.426000", "192258.429000", "192258.432000", "192258.435000", "192258.438000", "192258.441000", "192258.443000", "192258.446000", "192258.449000", "192258.452000", "192258.454000", "192258.457000", "192258.460000", "192258.463000", "192258.466000", "192258.469000", "192258.472000", "192338.398000", "192338.401000", "192338.404000", "192338.407000", "192338.409000", "192338.412000", "192338.415000", "192338.418000", "192338.421000", "192338.424000", "192338.426000", "192338.429000", "192338.432000", "192338.435000", "192338.438000", "192338.441000", "192338.443000", "192338.446000", "192338.449000", "192338.452000", "192338.455000", "192338.458000", "192338.461000", "192338.464000", "192338.481000", "192338.484000", "192338.487000", "192418.397000", "192418.400000", "192418.403000", "192418.406000", "192418.408000", "192418.411000", "192418.414000", "192418.417000", "192418.420000", "192418.423000", "192418.425000", "192418.428000", "192418.431000", "192418.434000", "192418.437000", "192418.440000", "192418.443000", "192418.446000", "192418.448000", "192418.451000", "192418.454000", "192418.457000", "192418.460000", "192418.462000", "192418.465000", "192418.468000", "192418.471000", "192458.397000", "192458.400000", "192458.403000", "192458.406000", "192458.409000", "192458.411000", "192458.414000", "192458.417000", "192458.420000", "192458.423000", "192458.426000", "192458.428000", "192458.431000", "192458.434000", "192458.437000", "192458.440000", "192458.443000", "192458.445000", "192458.448000", "192458.451000", "192458.454000", "192458.457000", "192458.460000", "192458.462000", "192458.465000", "192458.468000", "192458.471000", "192538.398000", "192538.401000", "192538.404000", "192538.407000", "192538.409000", "192538.412000", "192538.415000", "192538.418000", "192538.421000", "192538.424000", "192538.426000", "192538.429000", "192538.432000", "192538.435000", "192538.438000", "192538.441000", "192538.444000", "192538.446000", "192538.449000", "192538.452000", "192538.455000", "192538.458000", "192538.460000", "192538.463000", "192538.466000", "192538.469000", "192538.472000", "192618.398000", "192618.401000", "192618.404000", "192618.407000", "192618.410000", "192618.413000", "192618.415000", "192618.418000", "192618.421000", "192618.424000", "192618.427000", "192618.430000", "192618.433000", "192618.435000", "192618.438000", "192618.441000", "192618.444000", "192618.447000", "192618.450000", "192618.452000", "192618.455000", "192618.458000", "192618.461000", "192618.464000", "192618.467000", "192618.470000", "192658.397000", "192658.400000", "192658.403000", "192658.406000", "192658.408000", "192658.411000", "192658.414000", "192658.417000", "192658.420000", "192658.422000", "192658.425000", "192658.428000", "192658.431000", "192658.434000", "192658.437000", "192658.440000", "192658.442000", "192658.445000", "192658.448000", "192658.451000", "192658.454000", "192658.457000", "192658.459000", "192658.462000", "192658.465000", "192658.468000", "192658.471000", "192738.398000", "192738.401000", "192738.404000", "192738.407000", "192738.410000", "192738.412000", "192738.415000", "192738.418000", "192738.421000", "192738.424000", "192738.426000", "192738.429000", "192738.432000", "192738.435000", "192738.438000", "192738.441000", "192738.444000", "192738.446000", "192738.449000", "192738.452000", "192738.455000", "192738.458000", "192738.461000", "192738.463000", "192738.466000", "192738.469000", "192738.472000", "192818.398000", "192818.401000", "192818.404000", "192818.407000", "192818.409000", "192818.412000", "192818.415000", "192818.418000", "192818.421000", "192818.424000", "192818.427000", "192818.430000", "192818.432000", "192818.435000", "192818.438000", "192818.441000", "192818.444000", "192818.447000", "192818.449000", "192818.452000", "192818.455000", "192818.458000", "192818.461000", "192818.463000", "192818.466000", "192818.486000", "192818.489000", "192858.397000", "192858.400000", "192858.403000", "192858.406000", "192858.408000", "192858.411000", "192858.414000", "192858.417000", "192858.420000", "192858.423000", "192858.426000", "192858.428000", "192858.431000", "192858.434000", "192858.437000", "192858.440000", "192858.443000", "192858.446000", "192858.448000", "192858.451000", "192858.454000", "192858.457000", "192858.460000", "192858.462000", "192858.465000", "192858.468000", "192858.471000", "192926.273000", "192926.276000", "192926.279000", "192926.282000", "192926.285000", "192926.287000", "192926.290000", "192926.293000", "192926.296000", "192926.299000", "192926.301000", "192926.304000", "192926.307000", "192926.310000", "192926.313000", "192926.316000", "192926.319000", "192926.322000", "192926.324000"],
