{
  "AcquisitionMatrixPE": 104,
  "AcquisitionNumber": 1,
  "AcquisitionTime": "17:24:59.147500",
  "BandwidthPerPixelPhaseEncode": 17.17,
  "BaseResolution": 104,
  "BodyPartExamined": "BRAIN",
  "CoilString": "HC1-7;NC1_2",
  "ConsistencyInfo": "N4_VE11C_LATEST_20160120",
  "ConversionSoftware": "dcm2niix",
  "ConversionSoftwareVersion": "v1.0.20190902",
  "DerivedVendorReportedEchoSpacing": 0.000560011,
  "DeviceSerialNumber": "167006",
  "DwellTime": 2.1e-06,
  "EchoTime": 0.037,
  "EchoTrainLength": 104,
  "EffectiveEchoSpacing": 0.000560011,
  "FlipAngle": 52,
  "HeudiconvVersion": "0.10.0",
  "ImageComments": "Unaliased_MB4_PE3_LB",
  "ImageOrientationPatientDICOM": [0.997671, -0.0658716, -0.0177335, 0.0542066, 0.923336, -0.380147],
  "ImageType": [
    "ORIGINAL",
    "PRIMARY",
    "M",
    "MB",
    "ND",
    "MOSAIC"
],
  "ImagingFrequency": 123.259,
  "InPlanePhaseEncodingDirectionDICOM": "COL",
  "InstitutionAddress": "Chemin_Queen-Mary_4565_Montreal_District_CA_H3W_1W5",
  "InstitutionName": "IUGM",
  "InstitutionalDepartmentName": "Department",
  "MRAcquisitionType": "2D",
  "MagneticFieldStrength": 3,
  "Manufacturer": "Siemens",
  "ManufacturersModelName": "Prisma_fit",
  "Modality": "MR",
  "MultibandAccelerationFactor": 4,
  "PartialFourier": 1,
  "PatientPosition": "HFS",
  "PercentPhaseFOV": 100,
  "PhaseEncodingDirection": "j",
  "PhaseEncodingSteps": 104,
  "PhaseResolution": 1,
  "PixelBandwidth": 2290,
  "ProcedureStepDescription": "video_friends",
  "ProtocolName": "func_task-friends-s04e20a",
  "PulseSequenceDetails": "%CustomerSeq%_cmrr_mbep2d_bold",
  "ReceiveCoilActiveElements": "HC1-7;NC1,2",
  "ReceiveCoilName": "HeadNeck_64",
  "ReconMatrixPE": 104,
  "RepetitionTime": 1.49,
  "SAR": 0.036636,
  "ScanOptions": "FS",
  "ScanningSequence": "EP",
  "SequenceName": "epfid2d1_104",
  "SequenceVariant": "SK_SS",
  "SeriesDescription": "func_task-friends-s04e20a",
  "SeriesNumber": 13,
  "ShimSetting": [612, -7294, -8813, 460, 6, -447, 61, 33],
  "SliceThickness": 2,
  "SliceTiming": [0, 0.7825, 0.0975, 0.88, 0.195, 0.98, 0.2925, 1.0775, 0.39, 1.175, 0.49, 1.2725, 0.5875, 1.37, 0.685, 0, 0.7825, 0.0975, 0.88, 0.195, 0.98, 0.2925, 1.0775, 0.39, 1.175, 0.49, 1.2725, 0.5875, 1.37, 0.685, 0, 0.7825, 0.0975, 0.88, 0.195, 0.98, 0.2925, 1.0775, 0.39, 1.175, 0.49, 1.2725, 0.5875, 1.37, 0.685, 0, 0.7825, 0.0975, 0.88, 0.195, 0.98, 0.2925, 1.0775, 0.39, 1.175, 0.49, 1.2725, 0.5875, 1.37, 0.685],
  "SoftwareVersions": "syngo_MR_E11",
  "SpacingBetweenSlices": 2,
  "StationName": "MRC35049",
  "TaskName": "s04e20a",
  "TotalReadoutTime": 0.0576811,
  "TxRefAmp": 238.882,
  "WipMemBlock": "82cd5817-64b4-4808-860f-4b97c6bdb66f||Sequence: R016 ve11c/master r/e634e98; Dec 19 2017 11:00:25 by eja",
  "dcmmeta_affine": [
    [-1.9953410625457764, 0.10841315239667892, -0.08282966911792755, 96.25070190429688],
    [0.1317431479692459, 1.8466728925704956, -0.756599485874176, -76.35437774658203],
    [-0.035466987639665604, 0.7602931261062622, 1.8495124578475952, -58.09218215942383],
    [0.0, 0.0, 0.0, 1.0]
],
  "dcmmeta_reorient_transform": [
    [0.0, -1.0, 0.0, 103.0],
    [1.0, 0.0, 0.0, 0.0],
    [0.0, 0.0, 1.0, 0.0],
    [0.0, 0.0, 0.0, 1.0]
],
  "dcmmeta_shape": [104, 104, 60, 447],
  "dcmmeta_slice_dim": 2,
  "dcmmeta_version": 0.6,
  "global": {
    "const": {
      "AcquisitionMatrix": [104, 0, 0, 104],
      "AngioFlag": "N",
      "BitsAllocated": 16,
      "BitsStored": 16,
      "BodyPartExamined": "BRAIN",
      "Columns": 832,
      "EchoNumbers": 1,
      "EchoTime": 37.0,
      "EchoTrainLength": 104,
      "FlipAngle": 52.0,
      "HighBit": 15,
      "ImageOrientationPatient": [0.99767051596209, -0.0658715777037, -0.0177334946014, 0.05420657667712, 0.92333647306913, -0.3801465566663],
      "ImagePositionPatient": [-873.18377834351, -738.08738290989, 309.87468455778],
      "ImageType": [
        "ORIGINAL",
        "PRIMARY",
        "M",
        "MB",
        "ND",
        "MOSAIC"
],
      "ImagedNucleus": "1H",
      "ImagingFrequency": 123.258906,
      "InPlanePhaseEncodingDirection": "COL",
      "MRAcquisitionType": "2D",
      "MagneticFieldStrength": 3.0,
      "Manufacturer": "SIEMENS",
      "ManufacturerModelName": "Prisma_fit",
      "Modality": "MR",
      "NumberOfAverages": 1.0,
      "NumberOfPhaseEncodingSteps": 104,
      "PercentPhaseFieldOfView": 100.0,
      "PercentSampling": 100.0,
      "PerformedProcedureStepStartTime": "162807.111000",
      "PhotometricInterpretation": "MONOCHROME2",
      "PixelBandwidth": 2290.0,
      "PixelRepresentation": 0,
      "PixelSpacing": [2.0, 2.0],
      "ProtocolName": "func_task-friends-s04e20a",
      "RepetitionTime": 1490.0,
      "Rows": 832,
      "SAR": 0.03663599062747,
      "SamplesPerPixel": 1,
      "ScanOptions": "FS",
      "ScanningSequence": "EP",
      "SequenceName": "epfid2d1_104",
      "SequenceVariant": [
        "SK",
        "SS"
],
      "SeriesDescription": "func_task-friends-s04e20a",
      "SeriesNumber": 13,
      "SeriesTime": "172631.348000",
      "SliceLocation": -28.822476630958,
      "SliceThickness": 2.0,
      "SmallestImagePixelValue": 0,
      "SoftwareVersions": "syngo MR E11",
      "SpacingBetweenSlices": 1.9999999787416,
      "SpecificCharacterSet": "ISO_IR 100",
      "StudyID": "1",
      "StudyTime": "162807.060000",
      "TransmitCoilName": "Body",
      "VariableFlipAngleFlag": "N",
      "WindowCenterWidthExplanation": "Algo1",
      "dBdt": 0.0},
    "slices": {}
  },
  "time": {
    "samples": {
      "AcquisitionNumber": [1, 2, 3, 4, 5, 6, 7, 8, 9, 10, 11, 12, 13, 14, 15, 16, 17, 18, 19, 20, 21, 22, 23, 24, 25, 26, 27, 28, 29, 30, 31, 32, 33, 34, 35, 36, 37, 38, 39, 40, 41, 42, 43, 44, 45, 46, 47, 48, 49, 50, 51, 52, 53, 54, 55, 56, 57, 58, 59, 60, 61, 62, 63, 64, 65, 66, 67, 68, 69, 70, 71, 72, 73, 74, 75, 76, 77, 78, 79, 80, 81, 82, 83, 84, 85, 86, 87, 88, 89, 90, 91, 92, 93, 94, 95, 96, 97, 98, 99, 100, 101, 102, 103, 104, 105, 106, 107, 108, 109, 110, 111, 112, 113, 114, 115, 116, 117, 118, 119, 120, 121, 122, 123, 124, 125, 126, 127, 128, 129, 130, 131, 132, 133, 134, 135, 136, 137, 138, 139, 140, 141, 142, 143, 144, 145, 146, 147, 148, 149, 150, 151, 152, 153, 154, 155, 156, 157, 158, 159, 160, 161, 162, 163, 164, 165, 166, 167, 168, 169, 170, 171, 172, 173, 174, 175, 176, 177, 178, 179, 180, 181, 182, 183, 184, 185, 186, 187, 188, 189, 190, 191, 192, 193, 194, 195, 196, 197, 198, 199, 200, 201, 202, 203, 204, 205, 206, 207, 208, 209, 210, 211, 212, 213, 214, 215, 216, 217, 218, 219, 220, 221, 222, 223, 224, 225, 226, 227, 228, 229, 230, 231, 232, 233, 234, 235, 236, 237, 238, 239, 240, 241, 242, 243, 244, 245, 246, 247, 248, 249, 250, 251, 252, 253, 254, 255, 256, 257, 258, 259, 260, 261, 262, 263, 264, 265, 266, 267, 268, 269, 270, 271, 272, 273, 274, 275, 276, 277, 278, 279, 280, 281, 282, 283, 284, 285, 286, 287, 288, 289, 290, 291, 292, 293, 294, 295, 296, 297, 298, 299, 300, 301, 302, 303, 304, 305, 306, 307, 308, 309, 310, 311, 312, 313, 314, 315, 316, 317, 318, 319, 320, 321, 322, 323, 324, 325, 326, 327, 328, 329, 330, 331, 332, 333, 334, 335, 336, 337, 338, 339, 340, 341, 342, 343, 344, 345, 346, 347, 348, 349, 350, 351, 352, 353, 354, 355, 356, 357, 358, 359, 360, 361, 362, 363, 364, 365, 366, 367, 368, 369, 370, 371, 372, 373, 374, 375, 376, 377, 378, 379, 380, 381, 382, 383, 384, 385, 386, 387, 388, 389, 390, 391, 392, 393, 394, 395, 396, 397, 398, 399, 400, 401, 402, 403, 404, 405, 406, 407, 408, 409, 410, 411, 412, 413, 414, 415, 416, 417, 418, 419, 420, 421, 422, 423, 424, 425, 426, 427, 428, 429, 430, 431, 432, 433, 434, 435, 436, 437, 438, 439, 440, 441, 442, 443, 444, 445, 446, 447],
      "AcquisitionTime": ["172459.147500", "172500.637500", "172502.127500", "172503.617500", "172505.107500", "172506.597500", "172508.087500", "172509.577500", "172511.067500", "172512.557500", "172514.047500", "172515.537500", "172517.027500", "172518.517500", "172520.007500", "172521.497500", "172522.987500", "172524.477500", "172525.967500", "172527.457500", "172528.947500", "172530.437500", "172531.927500", "172533.417500", "172534.907500", "172536.397500", "172537.887500", "172539.377500", "172540.867500", "172542.357500", "172543.847500", "172545.337500", "172546.827500", "172548.317500", "172549.807500", "172551.297500", "172552.787500", "172554.277500", "172555.767500", "172557.257500", "172558.747500", "172600.237500", "172601.727500", "172603.217500", "172604.707500", "172606.197500", "172607.687500", "172609.177500", "172610.667500", "172612.157500", "172613.647500", "172615.137500", "172616.627500", "172618.117500", "172619.607500", "172621.097500", "172622.587500", "172624.077500", "172625.567500", "172627.057500", "172628.547500", "172630.037500", "172631.527500", "172633.017500", "172634.507500", "172635.997500", "172637.487500", "172638.977500", "172640.467500", "172641.957500", "172643.447500", "172644.937500", "172646.427500", "172647.917500", "172649.407500", "172650.897500", "172652.387500", "172653.877500", "172655.367500", "172656.857500", "172658.347500", "172659.837500", "172701.327500", "172702.817500", "172704.307500", "172705.797500", "172707.287500", "172708.777500", "172710.267500", "172711.757500", "172713.247500", "172714.737500", "172716.227500", "172717.717500", "172719.207500", "172720.697500", "172722.187500", "172723.677500", "172725.167500", "172726.657500", "172728.147500", "172729.637500", "172731.127500", "172732.617500", "172734.107500", "172735.597500", "172737.087500", "172738.577500", "172740.067500", "172741.557500", "172743.047500", "172744.537500", "172746.027500", "172747.517500", "172749.007500", "172750.497500", "172751.987500", "172753.477500", "172754.967500", "172756.457500", "172757.947500", "172759.437500", "172800.927500", "172802.417500", "172803.907500", "172805.397500", "172806.887500", "172808.377500", "172809.867500", "172811.357500", "172812.847500", "172814.337500", "172815.827500", "172817.317500", "172818.807500", "172820.297500", "172821.787500", "172823.277500", "172824.767500", "172826.257500", "172827.747500", "172829.237500", "172830.727500", "172832.217500", "172833.707500", "172835.197500", "172836.687500", "172838.177500", "172839.667500", "172841.157500", "172842.647500", "172844.137500", "172845.627500", "172847.117500", "172848.607500", "172850.097500", "172851.587500", "172853.077500", "172854.567500", "172856.057500", "172857.547500", "172859.037500", "172900.527500", "172902.017500", "172903.507500", "172904.997500", "172906.487500", "172907.977500", "172909.467500", "172910.957500", "172912.447500", "172913.937500", "172915.427500", "172916.917500", "172918.407500", "172919.897500", "172921.387500", "172922.877500", "172924.367500", "172925.857500", "172927.347500", "172928.837500", "172930.327500", "172931.817500", "172933.307500", "172934.797500", "172936.287500", "172937.777500", "172939.267500", "172940.757500", "172942.247500", "172943.737500", "172945.227500", "172946.717500", "172948.207500", "172949.697500", "172951.187500", "172952.677500", "172954.167500", "172955.657500", "172957.147500", "172958.637500", "173000.127500", "173001.617500", "173003.107500", "173004.597500", "173006.087500", "173007.577500", "173009.067500", "173010.557500", "173012.047500", "173013.537500", "173015.027500", "173016.517500", "173018.007500", "173019.497500", "173020.987500", "173022.477500", "173023.967500", "173025.457500", "173026.947500", "173028.437500", "173029.927500", "173031.417500", "173032.907500", "173034.397500", "173035.887500", "173037.377500", "173038.867500", "173040.357500", "173041.847500", "173043.337500", "173044.827500", "173046.317500", "173047.807500", "173049.297500", "173050.787500", "173052.277500", "173053.767500", "173055.257500", "173056.747500", "173058.237500", "173059.727500", "173101.217500", "173102.707500", "173104.197500", "173105.687500", "173107.177500", "173108.667500", "173110.157500", "173111.647500", "173113.137500", "173114.627500", "173116.117500", "173117.607500", "173119.097500", "173120.587500", "173122.077500", "173123.567500", "173125.057500", "173126.547500", "173128.037500", "173129.527500", "173131.017500", "173132.507500", "173133.997500", "173135.487500", "173136.977500", "173138.467500", "173139.957500", "173141.447500", "173142.937500", "173144.427500", "173145.917500", "173147.407500", "173148.897500", "173150.387500", "173151.877500", "173153.367500", "173154.857500", "173156.347500", "173157.837500", "173159.327500", "173200.817500", "173202.307500", "173203.797500", "173205.287500", "173206.777500", "173208.267500", "173209.757500", "173211.247500", "173212.737500", "173214.227500", "173215.717500", "173217.207500", "173218.697500", "173220.187500", "173221.677500", "173223.167500", "173224.657500", "173226.147500", "173227.637500", "173229.127500", "173230.617500", "173232.107500", "173233.597500", "173235.087500", "173236.577500", "173238.067500", "173239.557500", "173241.047500", "173242.537500", "173244.027500", "173245.517500", "173247.007500", "173248.497500", "173249.987500", "173251.477500", "173252.967500", "173254.457500", "173255.947500", "173257.437500", "173258.927500", "173300.417500", "173301.907500", "173303.397500", "173304.887500", "173306.377500", "173307.867500", "173309.357500", "173310.847500", "173312.337500", "173313.827500", "173315.317500", "173316.807500", "173318.297500", "173319.787500", "173321.277500", "173322.767500", "173324.257500", "173325.747500", "173327.237500", "173328.727500", "173330.217500", "173331.707500", "173333.197500", "173334.687500", "173336.177500", "173337.667500", "173339.157500", "173340.647500", "173342.137500", "173343.627500", "173345.117500", "173346.607500", "173348.097500", "173349.587500", "173351.077500", "173352.567500", "173354.057500", "173355.547500", "173357.037500", "173358.527500", "173400.017500", "173401.507500", "173402.997500", "173404.487500", "173405.977500", "173407.467500", "173408.957500", "173410.447500", "173411.937500", "173413.427500", "173414.917500", "173416.407500", "173417.897500", "173419.387500", "173420.877500", "173422.367500", "173423.857500", "173425.347500", "173426.837500", "173428.327500", "173429.817500", "173431.307500", "173432.797500", "173434.287500", "173435.777500", "173437.267500", "173438.757500", "173440.247500", "173441.737500", "173443.227500", "173444.717500", "173446.207500", "173447.697500", "173449.187500", "173450.677500", "173452.167500", "173453.657500", "173455.147500", "173456.637500", "173458.127500", "173459.617500", "173501.107500", "173502.597500", "173504.087500", "173505.577500", "173507.067500", "173508.557500", "173510.047500", "173511.537500", "173513.027500", "173514.517500", "173516.007500", "173517.497500", "173518.987500", "173520.477500", "173521.967500", "173523.457500", "173524.947500", "173526.437500", "173527.927500", "173529.417500", "173530.907500", "173532.397500", "173533.887500", "173535.377500", "173536.867500", "173538.357500", "173539.847500", "173541.337500", "173542.827500", "173544.317500", "173545.807500", "173547.297500", "173548.787500", "173550.277500", "173551.767500", "173553.257500", "173554.747500", "173556.237500", "173557.727500", "173559.217500", "173600.707500", "173602.197500", "173603.687500"],
      "ContentTime": ["172631.350000", "172631.354000", "172631.357000", "172631.364000", "172631.367000", "172631.370000", "172631.373000", "172631.376000", "172631.378000", "172631.381000", "172631.384000", "172631.387000", "172631.390000", "172631.392000", "172631.395000", "172631.398000", "172631.401000", "172631.404000", "172631.407000", "172631.409000", "172631.412000", "172631.415000", "172631.418000", "172631.421000", "172631.424000", "172631.433000", "172631.435000", "172631.438000", "172631.441000", "172631.444000", "172631.447000", "172631.450000", "172631.452000", "172631.455000", "172631.458000", "172631.461000", "172631.464000", "172631.467000", "172651.315000", "172651.318000", "172651.321000", "172651.324000", "172651.326000", "172651.329000", "172651.332000", "172651.335000", "172651.338000", "172651.340000", "172651.343000", "172651.346000", "172651.349000", "172651.364000", "172651.366000", "172651.369000", "172651.372000", "172651.375000", "172651.378000", "172651.381000", "172711.315000", "172711.318000", "172711.321000", "172711.323000", "172711.326000", "172711.329000", "172711.332000", "172711.335000", "172711.338000", "172711.341000", "172711.344000", "172711.346000", "172711.349000", "172711.352000", "172711.355000", "172711.358000", "172711.360000", "172711.363000", "172711.366000", "172711.369000", "172731.315000", "172731.318000", "172731.321000", "172731.323000", "172731.326000", "172731.329000", "172731.332000", "172731.335000", "172731.338000", "172731.341000", "172731.343000", "172731.346000", "172731.349000", "172731.352000", "172731.355000", "172731.357000", "172731.360000", "172731.363000", "172731.366000", "172731.369000", "172811.316000", "172811.319000", "172811.322000", "172811.325000", "172811.328000", "172811.330000", "172811.333000", "172811.336000", "172811.339000", "172811.342000", "172811.345000", "172811.347000", "172811.359000", "172811.362000", "172811.365000", "172811.368000", "172811.370000", "172811.373000", "172811.376000", "172811.379000", "172811.382000", "172811.385000", "172811.387000", "172811.390000", "172811.393000", "172811.396000", "172811.399000", "172811.402000", "172811.404000", "172811.407000", "172851.315000", "172851.318000", "172851.321000", "172851.324000", "172851.326000", "172851.329000", "172851.332000", "172851.335000", "172851.338000", "172851.341000", "172851.344000", "172851.346000", "172851.349000", "172851.352000", "172851.355000", "172851.358000", "172851.361000", "172851.364000", "172851.366000", "172851.369000", "172851.372000", "172851.375000", "172851.378000", "172851.380000", "172851.383000", "172851.386000", "172851.389000", "172931.315000", "172931.318000", "172931.321000", "172931.324000", "172931.327000", "172931.329000", "172931.332000", "172931.335000", "172931.338000", "172931.341000", "172931.344000", "172931.346000", "172931.349000", "172931.352000", "172931.355000", "172931.358000", "172931.361000", "172931.363000", "172931.366000", "172931.369000", "172931.372000", "172931.375000", "172931.378000", "172931.381000", "172931.383000", "172931.386000", "172931.389000", "173011.321000", "173011.324000", "173011.327000", "173011.329000", "173011.332000", "173011.335000", "173011.338000", "173011.341000", "173011.344000", "173011.347000", "173011.350000", "173011.352000", "173011.355000", "173011.358000", "173011.361000", "173011.364000", "173011.367000", "173011.370000", "173011.372000", "173011.375000", "173011.379000", "173011.382000", "173011.385000", "173011.387000", "173011.390000", "173011.393000", "173051.315000", "173051.318000", "173051.321000", "173051.324000", "173051.327000", "173051.329000", "173051.332000", "173051.335000", "173051.338000", "173051.341000", "173051.344000", "173051.346000", "173051.349000", "173051.352000", "173051.355000", "173051.358000", "173051.361000", "173051.364000", "173051.367000", "173051.369000", "173051.372000", "173051.375000", "173051.378000", "173051.381000", "173051.384000", "173051.386000", "173051.389000", "173131.315000", "173131.318000", "173131.321000", "173131.324000", "173131.327000", "173131.329000", "173131.332000", "173131.335000", "173131.338000", "173131.341000", "173131.344000", "173131.346000", "173131.349000", "173131.352000", "173131.355000", "173131.358000", "173131.361000", "173131.364000", "173131.366000", "173131.369000", "173131.372000", "173131.375000", "173131.378000", "173131.381000", "173131.384000", "173131.387000", "173131.389000", "173211.315000", "173211.318000", "173211.321000", "173211.324000", "173211.327000", "173211.329000", "173211.332000", "173211.335000", "173211.338000", "173211.341000", "173211.344000", "173211.346000", "173211.349000", "173211.352000", "173211.355000", "173211.358000", "173211.361000", "173211.364000", "173211.366000", "173211.369000", "173211.372000", "173211.375000", "173211.378000", "173211.381000", "173211.383000", "173211.386000", "173211.389000", "173251.316000", "173251.319000", "173251.322000", "173251.325000", "173251.328000", "173251.330000", "173251.333000", "173251.336000", "173251.339000", "173251.342000", "173251.345000", "173251.348000", "173251.350000", "173251.353000", "173251.356000", "173251.359000", "173251.362000", "173251.364000", "173251.367000", "173251.370000", "173251.373000", "173251.376000", "173251.379000", "173251.381000", "173251.384000", "173251.387000", "173251.390000", "173331.315000", "173331.318000", "173331.321000", "173331.324000", "173331.326000", "173331.329000", "173331.332000", "173331.335000", "173331.338000", "173331.341000", "173331.344000", "173331.347000", "173331.349000", "173331.352000", "173331.355000", "173331.358000", "173331.361000", "173331.364000", "173331.366000", "173331.369000", "173331.372000", "173331.375000", "173331.378000", "173331.381000", "173331.384000", "173331.386000", "173331.389000", "173411.315000", "173411.318000", "173411.321000", "173411.324000", "173411.327000", "173411.330000", "173411.333000", "173411.335000", "173411.338000", "173411.341000", "173411.344000", "173411.347000", "173411.350000", "173411.352000", "173411.355000", "173411.358000", "173411.361000", "173411.364000", "173411.367000", "173411.370000", "173411.372000", "173411.375000", "173411.378000", "173411.381000", "173411.384000", "173411.387000", "173451.315000", "173451.318000", "173451.321000", "173451.324000", "173451.327000", "173451.330000", "173451.332000", "173451.335000", "173451.338000", "173451.341000", "173451.344000", "173451.347000", "173451.349000", "173451.352000", "173451.355000", "173451.358000", "173451.361000", "173451.364000", "173451.367000", "173451.370000", "173451.373000", "173451.376000", "173451.379000", "173451.382000", "173451.385000", "173451.388000", "173451.390000", "173531.315000", "173531.318000", "173531.321000", "173531.324000", "173531.327000", "173531.330000", "173531.332000", "173531.335000", "173531.338000", "173531.341000", "173531.344000", "173531.347000", "173531.349000", "173531.352000", "173531.355000", "173531.358000", "173531.361000", "173531.364000", "173531.367000", "173531.370000", "173531.372000", "173531.375000", "173531.378000", "173531.381000", "173531.384000", "173531.387000", "173531.389000", "173606.169000", "173606.172000", "173606.175000", "173606.178000", "173606.181000", "173606.184000", "173606.187000", "173606.190000", "173606.193000", "173606.196000", "173606.199000", "173606.201000", "173606.204000", "173606.208000", "173606.211000", "173606.214000", "173606.216000", "173606.219000", "173606.222000", "173606.225000", "173606.228000", "173606.231000", "173606.234000", "173606.237000"],
