{
  "AcquisitionMatrixPE": 104,
  "AcquisitionNumber": 1,
  "AcquisitionTime": "18:38:0.622500",
  "BandwidthPerPixelPhaseEncode": 17.17,
  "BaseResolution": 104,
  "BodyPartExamined": "BRAIN",
  "CoilString": "HC1-7;NC1_2",
  "ConsistencyInfo": "N4_VE11C_LATEST_20160120",
  "ConversionSoftware": "dcm2niix",
  "ConversionSoftwareVersion": "v1.0.20190902",
  "DerivedVendorReportedEchoSpacing": 0.000560011,
  "DeviceSerialNumber": "167006",
  "DwellTime": 2.1e-06,
  "EchoTime": 0.037,
  "EchoTrainLength": 104,
  "EffectiveEchoSpacing": 0.000560011,
  "FlipAngle": 52,
  "HeudiconvVersion": "0.10.0",
  "ImageComments": "Unaliased_MB4_PE3_LB",
  "ImageOrientationPatientDICOM": [0.997671, -0.0658716, -0.0177335, 0.0542066, 0.923336, -0.380147],
  "ImageType": [
    "ORIGINAL",
    "PRIMARY",
    "M",
    "MB",
    "ND",
    "MOSAIC"
],
  "ImagingFrequency": 123.259,
  "InPlanePhaseEncodingDirectionDICOM": "COL",
  "InstitutionAddress": "Chemin_Queen-Mary_4565_Montreal_District_CA_H3W_1W5",
  "InstitutionName": "IUGM",
  "InstitutionalDepartmentName": "Department",
  "MRAcquisitionType": "2D",
  "MagneticFieldStrength": 3,
  "Manufacturer": "Siemens",
  "ManufacturersModelName": "Prisma_fit",
  "Modality": "MR",
  "MultibandAccelerationFactor": 4,
  "PartialFourier": 1,
  "PatientPosition": "HFS",
  "PercentPhaseFOV": 100,
  "PhaseEncodingDirection": "j",
  "PhaseEncodingSteps": 104,
  "PhaseResolution": 1,
  "PixelBandwidth": 2290,
  "ProcedureStepDescription": "video_friends",
  "ProtocolName": "func_task-friends-s04e23a",
  "PulseSequenceDetails": "%CustomerSeq%_cmrr_mbep2d_bold",
  "ReceiveCoilActiveElements": "HC1-7;NC1,2",
  "ReceiveCoilName": "HeadNeck_64",
  "ReconMatrixPE": 104,
  "RepetitionTime": 1.49,
  "SAR": 0.0366546,
  "ScanOptions": "FS",
  "ScanningSequence": "EP",
  "SequenceName": "epfid2d1_104",
  "SequenceVariant": "SK_SS",
  "SeriesDescription": "func_task-friends-s04e23a",
  "SeriesNumber": 27,
  "ShimSetting": [612, -7294, -8813, 460, 6, -447, 61, 33],
  "SliceThickness": 2,
  "SliceTiming": [0, 0.785, 0.1, 0.8825, 0.1975, 0.98, 0.295, 1.0775, 0.3925, 1.1775, 0.49, 1.275, 0.59, 1.3725, 0.6875, 0, 0.785, 0.1, 0.8825, 0.1975, 0.98, 0.295, 1.0775, 0.3925, 1.1775, 0.49, 1.275, 0.59, 1.3725, 0.6875, 0, 0.785, 0.1, 0.8825, 0.1975, 0.98, 0.295, 1.0775, 0.3925, 1.1775, 0.49, 1.275, 0.59, 1.3725, 0.6875, 0, 0.785, 0.1, 0.8825, 0.1975, 0.98, 0.295, 1.0775, 0.3925, 1.1775, 0.49, 1.275, 0.59, 1.3725, 0.6875],
  "SoftwareVersions": "syngo_MR_E11",
  "SpacingBetweenSlices": 2,
  "StationName": "MRC35049",
  "TaskName": "s04e23a",
  "TotalReadoutTime": 0.0576811,
  "TxRefAmp": 238.882,
  "WipMemBlock": "8a033da4-b8ba-4f6c-b208-be04b80fc18e||Sequence: R016 ve11c/master r/e634e98; Dec 19 2017 11:00:25 by eja",
  "dcmmeta_affine": [
    [-1.9953410625457764, 0.10841315239667892, -0.08282966911792755, 96.25070190429688],
    [0.1317431479692459, 1.8466728925704956, -0.756599485874176, -76.35437774658203],
    [-0.035466987639665604, 0.7602931261062622, 1.8495124578475952, -58.09218215942383],
    [0.0, 0.0, 0.0, 1.0]
],
  "dcmmeta_reorient_transform": [
    [0.0, -1.0, 0.0, 103.0],
    [1.0, 0.0, 0.0, 0.0],
    [0.0, 0.0, 1.0, 0.0],
    [0.0, 0.0, 0.0, 1.0]
],
  "dcmmeta_shape": [104, 104, 60, 505],
  "dcmmeta_slice_dim": 2,
  "dcmmeta_version": 0.6,
  "global": {
    "const": {
      "AcquisitionMatrix": [104, 0, 0, 104],
      "AngioFlag": "N",
      "BitsAllocated": 16,
      "BitsStored": 16,
      "BodyPartExamined": "BRAIN",
      "Columns": 832,
      "EchoNumbers": 1,
      "EchoTime": 37.0,
      "EchoTrainLength": 104,
      "FlipAngle": 52.0,
      "HighBit": 15,
      "ImageOrientationPatient": [0.99767051596209, -0.0658715777037, -0.0177334946014, 0.05420657667712, 0.92333647306913, -0.3801465566663],
      "ImagePositionPatient": [-873.18377834351, -738.08738290989, 309.87468455778],
      "ImageType": [
        "ORIGINAL",
        "PRIMARY",
        "M",
        "MB",
        "ND",
        "MOSAIC"
],
      "ImagedNucleus": "1H",
      "ImagingFrequency": 123.25892,
      "InPlanePhaseEncodingDirection": "COL",
      "MRAcquisitionType": "2D",
      "MagneticFieldStrength": 3.0,
      "Manufacturer": "SIEMENS",
      "ManufacturerModelName": "Prisma_fit",
      "Modality": "MR",
      "NumberOfAverages": 1.0,
      "NumberOfPhaseEncodingSteps": 104,
      "PercentPhaseFieldOfView": 100.0,
      "PercentSampling": 100.0,
      "PerformedProcedureStepStartTime": "162807.111000",
      "PhotometricInterpretation": "MONOCHROME2",
      "PixelBandwidth": 2290.0,
      "PixelRepresentation": 0,
      "PixelSpacing": [2.0, 2.0],
      "ProtocolName": "func_task-friends-s04e23a",
      "RepetitionTime": 1490.0,
      "Rows": 832,
      "SAR": 0.03665459825984,
      "SamplesPerPixel": 1,
      "ScanOptions": "FS",
      "ScanningSequence": "EP",
      "SequenceName": "epfid2d1_104",
      "SequenceVariant": [
        "SK",
        "SS"
],
      "SeriesDescription": "func_task-friends-s04e23a",
      "SeriesNumber": 27,
      "SeriesTime": "183918.428000",
      "SliceLocation": -28.822476630958,
      "SliceThickness": 2.0,
      "SmallestImagePixelValue": 0,
      "SoftwareVersions": "syngo MR E11",
      "SpacingBetweenSlices": 1.9999999787416,
      "SpecificCharacterSet": "ISO_IR 100",
      "StudyID": "1",
      "StudyTime": "162807.060000",
      "TransmitCoilName": "Body",
      "VariableFlipAngleFlag": "N",
      "WindowCenterWidthExplanation": "Algo1",
      "dBdt": 0.0},
    "slices": {}
  },
  "time": {
    "samples": {
      "AcquisitionNumber": [1, 2, 3, 4, 5, 6, 7, 8, 9, 10, 11, 12, 13, 14, 15, 16, 17, 18, 19, 20, 21, 22, 23, 24, 25, 26, 27, 28, 29, 30, 31, 32, 33, 34, 35, 36, 37, 38, 39, 40, 41, 42, 43, 44, 45, 46, 47, 48, 49, 50, 51, 52, 53, 54, 55, 56, 57, 58, 59, 60, 61, 62, 63, 64, 65, 66, 67, 68, 69, 70, 71, 72, 73, 74, 75, 76, 77, 78, 79, 80, 81, 82, 83, 84, 85, 86, 87, 88, 89, 90, 91, 92, 93, 94, 95, 96, 97, 98, 99, 100, 101, 102, 103, 104, 105, 106, 107, 108, 109, 110, 111, 112, 113, 114, 115, 116, 117, 118, 119, 120, 121, 122, 123, 124, 125, 126, 127, 128, 129, 130, 131, 132, 133, 134, 135, 136, 137, 138, 139, 140, 141, 142, 143, 144, 145, 146, 147, 148, 149, 150, 151, 152, 153, 154, 155, 156, 157, 158, 159, 160, 161, 162, 163, 164, 165, 166, 167, 168, 169, 170, 171, 172, 173, 174, 175, 176, 177, 178, 179, 180, 181, 182, 183, 184, 185, 186, 187, 188, 189, 190, 191, 192, 193, 194, 195, 196, 197, 198, 199, 200, 201, 202, 203, 204, 205, 206, 207, 208, 209, 210, 211, 212, 213, 214, 215, 216, 217, 218, 219, 220, 221, 222, 223, 224, 225, 226, 227, 228, 229, 230, 231, 232, 233, 234, 235, 236, 237, 238, 239, 240, 241, 242, 243, 244, 245, 246, 247, 248, 249, 250, 251, 252, 253, 254, 255, 256, 257, 258, 259, 260, 261, 262, 263, 264, 265, 266, 267, 268, 269, 270, 271, 272, 273, 274, 275, 276, 277, 278, 279, 280, 281, 282, 283, 284, 285, 286, 287, 288, 289, 290, 291, 292, 293, 294, 295, 296, 297, 298, 299, 300, 301, 302, 303, 304, 305, 306, 307, 308, 309, 310, 311, 312, 313, 314, 315, 316, 317, 318, 319, 320, 321, 322, 323, 324, 325, 326, 327, 328, 329, 330, 331, 332, 333, 334, 335, 336, 337, 338, 339, 340, 341, 342, 343, 344, 345, 346, 347, 348, 349, 350, 351, 352, 353, 354, 355, 356, 357, 358, 359, 360, 361, 362, 363, 364, 365, 366, 367, 368, 369, 370, 371, 372, 373, 374, 375, 376, 377, 378, 379, 380, 381, 382, 383, 384, 385, 386, 387, 388, 389, 390, 391, 392, 393, 394, 395, 396, 397, 398, 399, 400, 401, 402, 403, 404, 405, 406, 407, 408, 409, 410, 411, 412, 413, 414, 415, 416, 417, 418, 419, 420, 421, 422, 423, 424, 425, 426, 427, 428, 429, 430, 431, 432, 433, 434, 435, 436, 437, 438, 439, 440, 441, 442, 443, 444, 445, 446, 447, 448, 449, 450, 451, 452, 453, 454, 455, 456, 457, 458, 459, 460, 461, 462, 463, 464, 465, 466, 467, 468, 469, 470, 471, 472, 473, 474, 475, 476, 477, 478, 479, 480, 481, 482, 483, 484, 485, 486, 487, 488, 489, 490, 491, 492, 493, 494, 495, 496, 497, 498, 499, 500, 501, 502, 503, 504, 505],
      "AcquisitionTime": ["183800.622500", "183802.112500", "183803.602500", "183805.092500", "183806.582500", "183808.072500", "183809.562500", "183811.052500", "183812.542500", "183814.032500", "183815.522500", "183817.012500", "183818.502500", "183819.992500", "183821.482500", "183822.972500", "183824.462500", "183825.952500", "183827.442500", "183828.932500", "183830.422500", "183831.912500", "183833.402500", "183834.892500", "183836.382500", "183837.872500", "183839.362500", "183840.852500", "183842.342500", "183843.832500", "183845.322500", "183846.812500", "183848.302500", "183849.792500", "183851.282500", "183852.772500", "183854.262500", "183855.752500", "183857.242500", "183858.732500", "183900.222500", "183901.712500", "183903.202500", "183904.692500", "183906.182500", "183907.672500", "183909.162500", "183910.652500", "183912.142500", "183913.632500", "183915.122500", "183916.612500", "183918.102500", "183919.592500", "183921.082500", "183922.572500", "183924.062500", "183925.552500", "183927.042500", "183928.532500", "183930.022500", "183931.512500", "183933.002500", "183934.492500", "183935.982500", "183937.472500", "183938.962500", "183940.452500", "183941.942500", "183943.432500", "183944.922500", "183946.412500", "183947.902500", "183949.392500", "183950.882500", "183952.372500", "183953.862500", "183955.352500", "183956.842500", "183958.332500", "183959.822500", "184001.312500", "184002.802500", "184004.292500", "184005.782500", "184007.272500", "184008.762500", "184010.252500", "184011.742500", "184013.232500", "184014.722500", "184016.212500", "184017.702500", "184019.192500", "184020.682500", "184022.172500", "184023.662500", "184025.152500", "184026.642500", "184028.132500", "184029.622500", "184031.112500", "184032.602500", "184034.092500", "184035.582500", "184037.072500", "184038.562500", "184040.052500", "184041.542500", "184043.032500", "184044.522500", "184046.012500", "184047.502500", "184048.992500", "184050.482500", "184051.972500", "184053.462500", "184054.952500", "184056.442500", "184057.932500", "184059.422500", "184100.912500", "184102.402500", "184103.892500", "184105.382500", "184106.872500", "184108.362500", "184109.852500", "184111.342500", "184112.832500", "184114.322500", "184115.812500", "184117.302500", "184118.792500", "184120.282500", "184121.772500", "184123.262500", "184124.752500", "184126.242500", "184127.732500", "184129.222500", "184130.712500", "184132.202500", "184133.692500", "184135.182500", "184136.672500", "184138.162500", "184139.652500", "184141.142500", "184142.632500", "184144.122500", "184145.612500", "184147.102500", "184148.592500", "184150.082500", "184151.572500", "184153.062500", "184154.552500", "184156.042500", "184157.532500", "184159.022500", "184200.512500", "184202.002500", "184203.492500", "184204.982500", "184206.472500", "184207.962500", "184209.452500", "184210.942500", "184212.432500", "184213.922500", "184215.412500", "184216.902500", "184218.392500", "184219.882500", "184221.372500", "184222.862500", "184224.352500", "184225.842500", "184227.332500", "184228.822500", "184230.312500", "184231.802500", "184233.292500", "184234.782500", "184236.272500", "184237.762500", "184239.252500", "184240.742500", "184242.232500", "184243.722500", "184245.212500", "184246.702500", "184248.192500", "184249.682500", "184251.172500", "184252.662500", "184254.152500", "184255.642500", "184257.132500", "184258.622500", "184300.112500", "184301.602500", "184303.092500", "184304.582500", "184306.072500", "184307.562500", "184309.052500", "184310.542500", "184312.032500", "184313.522500", "184315.012500", "184316.502500", "184317.992500", "184319.482500", "184320.972500", "184322.462500", "184323.952500", "184325.442500", "184326.932500", "184328.422500", "184329.912500", "184331.402500", "184332.892500", "184334.382500", "184335.872500", "184337.362500", "184338.852500", "184340.342500", "184341.832500", "184343.322500", "184344.812500", "184346.302500", "184347.792500", "184349.282500", "184350.772500", "184352.262500", "184353.752500", "184355.242500", "184356.732500", "184358.222500", "184359.712500", "184401.202500", "184402.692500", "184404.182500", "184405.672500", "184407.162500", "184408.652500", "184410.142500", "184411.632500", "184413.122500", "184414.612500", "184416.102500", "184417.592500", "184419.082500", "184420.572500", "184422.062500", "184423.552500", "184425.042500", "184426.532500", "184428.022500", "184429.512500", "184431.002500", "184432.492500", "184433.982500", "184435.472500", "184436.962500", "184438.452500", "184439.942500", "184441.432500", "184442.922500", "184444.412500", "184445.902500", "184447.392500", "184448.882500", "184450.372500", "184451.862500", "184453.352500", "184454.842500", "184456.332500", "184457.822500", "184459.312500", "184500.802500", "184502.292500", "184503.782500", "184505.272500", "184506.762500", "184508.252500", "184509.742500", "184511.232500", "184512.722500", "184514.212500", "184515.702500", "184517.192500", "184518.682500", "184520.172500", "184521.662500", "184523.152500", "184524.642500", "184526.132500", "184527.622500", "184529.112500", "184530.602500", "184532.092500", "184533.582500", "184535.072500", "184536.562500", "184538.052500", "184539.542500", "184541.032500", "184542.522500", "184544.012500", "184545.502500", "184546.992500", "184548.482500", "184549.972500", "184551.462500", "184552.952500", "184554.442500", "184555.932500", "184557.422500", "184558.912500", "184600.402500", "184601.892500", "184603.382500", "184604.872500", "184606.362500", "184607.852500", "184609.342500", "184610.832500", "184612.322500", "184613.812500", "184615.302500", "184616.792500", "184618.282500", "184619.772500", "184621.262500", "184622.752500", "184624.242500", "184625.732500", "184627.222500", "184628.712500", "184630.202500", "184631.692500", "184633.182500", "184634.672500", "184636.162500", "184637.652500", "184639.142500", "184640.632500", "184642.122500", "184643.612500", "184645.102500", "184646.592500", "184648.082500", "184649.572500", "184651.062500", "184652.552500", "184654.042500", "184655.532500", "184657.022500", "184658.512500", "184700.002500", "184701.492500", "184702.982500", "184704.472500", "184705.962500", "184707.452500", "184708.942500", "184710.432500", "184711.922500", "184713.412500", "184714.902500", "184716.392500", "184717.882500", "184719.372500", "184720.862500", "184722.352500", "184723.842500", "184725.332500", "184726.822500", "184728.312500", "184729.802500", "184731.292500", "184732.782500", "184734.272500", "184735.762500", "184737.252500", "184738.742500", "184740.232500", "184741.722500", "184743.212500", "184744.702500", "184746.192500", "184747.682500", "184749.172500", "184750.662500", "184752.152500", "184753.642500", "184755.132500", "184756.622500", "184758.112500", "184759.602500", "184801.092500", "184802.582500", "184804.072500", "184805.562500", "184807.052500", "184808.542500", "184810.032500", "184811.522500", "184813.012500", "184814.502500", "184815.992500", "184817.482500", "184818.972500", "184820.462500", "184821.952500", "184823.442500", "184824.932500", "184826.422500", "184827.912500", "184829.402500", "184830.892500", "184832.382500", "184833.872500", "184835.362500", "184836.852500", "184838.342500", "184839.832500", "184841.322500", "184842.812500", "184844.302500", "184845.792500", "184847.282500", "184848.772500", "184850.262500", "184851.752500", "184853.242500", "184854.732500", "184856.222500", "184857.712500", "184859.202500", "184900.692500", "184902.182500", "184903.672500", "184905.162500", "184906.652500", "184908.142500", "184909.632500", "184911.122500", "184912.612500", "184914.102500", "184915.592500", "184917.082500", "184918.572500", "184920.062500", "184921.552500", "184923.042500", "184924.532500", "184926.022500", "184927.512500", "184929.002500", "184930.492500", "184931.982500", "184933.472500", "184934.962500", "184936.452500", "184937.942500", "184939.432500", "184940.922500", "184942.412500", "184943.902500", "184945.392500", "184946.882500", "184948.372500", "184949.862500", "184951.352500", "184952.842500", "184954.332500", "184955.822500", "184957.312500", "184958.802500", "185000.292500", "185001.782500", "185003.272500", "185004.762500", "185006.252500", "185007.742500", "185009.232500", "185010.722500", "185012.212500", "185013.702500", "185015.192500", "185016.682500", "185018.172500", "185019.662500", "185021.152500", "185022.642500", "185024.132500", "185025.622500", "185027.112500", "185028.602500", "185030.092500", "185031.582500"],
      "ContentTime": ["183918.431000", "183918.439000", "183918.447000", "183918.450000", "183918.453000", "183918.456000", "183918.458000", "183918.461000", "183918.464000", "183918.467000", "183918.470000", "183918.473000", "183918.483000", "183918.486000", "183918.489000", "183918.492000", "183918.494000", "183918.497000", "183918.500000", "183918.503000", "183918.506000", "183918.509000", "183918.511000", "183938.398000", "183938.401000", "183938.404000", "183938.407000", "183938.409000", "183938.412000", "183938.415000", "183938.418000", "183938.421000", "183938.424000", "183938.426000", "183938.429000", "183938.432000", "183938.435000", "183938.438000", "183938.440000", "183938.443000", "183938.446000", "183938.449000", "183938.452000", "183958.398000", "183958.401000", "183958.404000", "183958.407000", "183958.409000", "183958.412000", "183958.415000", "183958.418000", "183958.421000", "183958.424000", "183958.426000", "183958.436000", "183958.439000", "183958.442000", "183958.444000", "183958.447000", "183958.450000", "183958.453000", "183958.455000", "183958.458000", "184018.397000", "184018.400000", "184018.403000", "184018.405000", "184018.408000", "184018.411000", "184018.414000", "184018.417000", "184018.419000", "184018.422000", "184018.425000", "184018.428000", "184018.431000", "184018.434000", "184018.436000", "184018.439000", "184018.442000", "184018.445000", "184018.448000", "184018.450000", "184018.461000", "184038.397000", "184038.400000", "184038.403000", "184038.406000", "184038.408000", "184038.411000", "184038.414000", "184038.417000", "184038.420000", "184038.423000", "184038.425000", "184038.428000", "184038.431000", "184038.434000", "184038.437000", "184038.439000", "184038.442000", "184038.445000", "184038.448000", "184038.451000", "184118.398000", "184118.401000", "184118.404000", "184118.415000", "184118.418000", "184118.421000", "184118.424000", "184118.426000", "184118.429000", "184118.432000", "184118.435000", "184118.438000", "184118.441000", "184118.443000", "184118.446000", "184118.449000", "184118.452000", "184118.455000", "184118.458000", "184118.460000", "184118.463000", "184118.466000", "184118.469000", "184118.471000", "184118.474000", "184118.477000", "184118.480000", "184118.483000", "184158.398000", "184158.401000", "184158.404000", "184158.407000", "184158.410000", "184158.412000", "184158.415000", "184158.418000", "184158.421000", "184158.424000", "184158.426000", "184158.429000", "184158.432000", "184158.435000", "184158.438000", "184158.441000", "184158.444000", "184158.446000", "184158.449000", "184158.452000", "184158.455000", "184158.458000", "184158.460000", "184158.463000", "184158.466000", "184158.469000", "184158.472000", "184238.397000", "184238.400000", "184238.403000", "184238.406000", "184238.408000", "184238.411000", "184238.414000", "184238.417000", "184238.420000", "184238.423000", "184238.425000", "184238.428000", "184238.431000", "184238.434000", "184238.437000", "184238.440000", "184238.443000", "184238.446000", "184238.448000", "184238.451000", "184238.454000", "184238.457000", "184238.460000", "184238.463000", "184238.465000", "184238.468000", "184238.471000", "184318.397000", "184318.400000", "184318.403000", "184318.405000", "184318.408000", "184318.411000", "184318.414000", "184318.417000", "184318.420000", "184318.423000", "184318.425000", "184318.428000", "184318.431000", "184318.434000", "184318.437000", "184318.440000", "184318.443000", "184318.445000", "184318.448000", "184318.451000", "184318.454000", "184318.457000", "184318.459000", "184318.462000", "184318.465000", "184318.468000", "184318.471000", "184358.398000", "184358.401000", "184358.404000", "184358.407000", "184358.410000", "184358.412000", "184358.415000", "184358.418000", "184358.421000", "184358.424000", "184358.427000", "184358.429000", "184358.432000", "184358.435000", "184358.438000", "184358.441000", "184358.444000", "184358.446000", "184358.449000", "184358.452000", "184358.455000", "184358.459000", "184358.462000", "184358.465000", "184358.468000", "184358.470000", "184438.398000", "184438.401000", "184438.404000", "184438.407000", "184438.410000", "184438.413000", "184438.415000", "184438.418000", "184438.421000", "184438.424000", "184438.427000", "184438.429000", "184438.432000", "184438.435000", "184438.438000", "184438.441000", "184438.444000", "184438.446000", "184438.449000", "184438.452000", "184438.455000", "184438.458000", "184438.461000", "184438.464000", "184438.466000", "184438.469000", "184438.472000", "184518.397000", "184518.400000", "184518.403000", "184518.406000", "184518.408000", "184518.411000", "184518.414000", "184518.417000", "184518.420000", "184518.423000", "184518.425000", "184518.428000", "184518.431000", "184518.434000", "184518.437000", "184518.440000", "184518.442000", "184518.445000", "184518.448000", "184518.451000", "184518.454000", "184518.457000", "184518.460000", "184518.462000", "184518.465000", "184518.468000", "184518.471000", "184558.398000", "184558.401000", "184558.404000", "184558.407000", "184558.410000", "184558.412000", "184558.415000", "184558.418000", "184558.421000", "184558.424000", "184558.427000", "184558.429000", "184558.432000", "184558.435000", "184558.438000", "184558.442000", "184558.445000", "184558.447000", "184558.450000", "184558.453000", "184558.456000", "184558.459000", "184558.462000", "184558.465000", "184558.467000", "184558.470000", "184558.473000", "184638.398000", "184638.401000", "184638.404000", "184638.407000", "184638.410000", "184638.412000", "184638.415000", "184638.418000", "184638.421000", "184638.424000", "184638.426000", "184638.429000", "184638.432000", "184638.435000", "184638.438000", "184638.441000", "184638.444000", "184638.446000", "184638.449000", "184638.452000", "184638.455000", "184638.458000", "184638.461000", "184638.463000", "184638.466000", "184638.469000", "184638.472000", "184718.397000", "184718.400000", "184718.403000", "184718.406000", "184718.408000", "184718.411000", "184718.414000", "184718.417000", "184718.420000", "184718.422000", "184718.425000", "184718.428000", "184718.431000", "184718.434000", "184718.437000", "184718.439000", "184718.442000", "184718.445000", "184718.448000", "184718.451000", "184718.454000", "184718.456000", "184718.459000", "184718.462000", "184718.465000", "184718.468000", "184718.470000", "184758.397000", "184758.400000", "184758.403000", "184758.406000", "184758.409000", "184758.412000", "184758.415000", "184758.418000", "184758.420000", "184758.423000", "184758.426000", "184758.429000", "184758.432000", "184758.435000", "184758.437000", "184758.440000", "184758.443000", "184758.446000", "184758.449000", "184758.452000", "184758.454000", "184758.457000", "184758.461000", "184758.465000", "184758.469000", "184758.472000", "184838.398000", "184838.401000", "184838.404000", "184838.407000", "184838.410000", "184838.412000", "184838.415000", "184838.418000", "184838.421000", "184838.424000", "184838.427000", "184838.429000", "184838.432000", "184838.435000", "184838.438000", "184838.441000", "184838.444000", "184838.447000", "184838.449000", "184838.452000", "184838.455000", "184838.458000", "184838.461000", "184838.463000", "184838.466000", "184838.469000", "184838.472000", "184918.398000", "184918.401000", "184918.404000", "184918.407000", "184918.410000", "184918.413000", "184918.415000", "184918.418000", "184918.421000", "184918.424000", "184918.427000", "184918.430000", "184918.432000", "184918.435000", "184918.438000", "184918.441000", "184918.444000", "184918.447000", "184918.449000", "184918.452000", "184918.455000", "184918.458000", "184918.461000", "184918.463000", "184918.466000", "184918.469000", "184918.472000", "184938.397000", "184938.400000", "184938.403000", "184938.406000", "184938.409000", "184938.411000", "184938.414000", "184938.417000", "184938.420000", "184938.423000", "184938.426000", "184938.428000", "184938.431000", "184938.434000", "185018.397000", "185018.400000", "185018.404000", "185018.407000", "185018.410000", "185018.412000", "185018.415000", "185018.418000", "185018.421000", "185018.424000", "185018.427000", "185018.430000", "185018.433000", "185018.435000", "185018.438000", "185018.441000", "185018.444000", "185018.447000", "185018.450000", "185018.452000", "185018.455000", "185018.458000", "185018.461000", "185018.464000", "185018.467000", "185018.470000", "185033.495000", "185033.498000", "185033.501000", "185033.504000", "185033.507000", "185033.510000", "185033.513000", "185033.516000", "185033.518000", "185033.521000", "185033.524000"],
