{
  "AcquisitionMatrixPE": 104,
  "AcquisitionNumber": 1,
  "AcquisitionTime": "18:47:45.665000",
  "BandwidthPerPixelPhaseEncode": 17.17,
  "BaseResolution": 104,
  "BodyPartExamined": "BRAIN",
  "CoilString": "HC1-7;NC1_2",
  "ConsistencyInfo": "N4_VE11C_LATEST_20160120",
  "ConversionSoftware": "dcm2niix",
  "ConversionSoftwareVersion": "v1.0.20190720  (JP2:OpenJPEG) GCC7.3.0",
  "DerivedVendorReportedEchoSpacing": 0.000560011,
  "DeviceSerialNumber": "167006",
  "DwellTime": 2.1e-06,
  "EchoTime": 0.037,
  "EchoTrainLength": 104,
  "EffectiveEchoSpacing": 0.000560011,
  "FlipAngle": 52,
  "ImageComments": "Unaliased_MB4_PE3_LB",
  "ImageOrientationPatientDICOM": [0.997749, 0.0657315, 0.0133105, -0.0589276, 0.953999, -0.293963],
  "ImageType": [
    "ORIGINAL",
    "PRIMARY",
    "M",
    "MB",
    "ND",
    "MOSAIC"
],
  "ImagingFrequency": 123.259,
  "InPlanePhaseEncodingDirectionDICOM": "COL",
  "InstitutionAddress": "Chemin_Queen-Mary_4565_Montreal_District_CA_H3W_1W5",
  "InstitutionName": "IUGM",
  "InstitutionalDepartmentName": "Department",
  "MRAcquisitionType": "2D",
  "MagneticFieldStrength": 3,
  "Manufacturer": "Siemens",
  "ManufacturersModelName": "Prisma_fit",
  "Modality": "MR",
  "MultibandAccelerationFactor": 4,
  "PartialFourier": 1,
  "PatientPosition": "HFS",
  "PercentPhaseFOV": 100,
  "PhaseEncodingDirection": "j",
  "PhaseEncodingSteps": 104,
  "PhaseResolution": 1,
  "PixelBandwidth": 2290,
  "ProcedureStepDescription": "video_friends",
  "ProtocolName": "func_task-friends-s01e11b",
  "PulseSequenceDetails": "%CustomerSeq%_cmrr_mbep2d_bold",
  "ReceiveCoilActiveElements": "HC1-7;NC1,2",
  "ReceiveCoilName": "HeadNeck_64",
  "ReconMatrixPE": 104,
  "RepetitionTime": 1.49,
  "SAR": 0.0394556,
  "ScanOptions": "FS",
  "ScanningSequence": "EP",
  "SequenceName": "epfid2d1_104",
  "SequenceVariant": "SK_SS",
  "SeriesDescription": "func_task-friends-s01e11b",
  "SeriesNumber": 15,
  "ShimSetting": [629, -7213, -8838, 744, 65, -23, 36, -8],
  "SliceThickness": 2,
  "SliceTiming": [0, 0.785, 0.0975, 0.8825, 0.195, 0.98, 0.295, 1.0775, 0.3925, 1.175, 0.49, 1.275, 0.5875, 1.3725, 0.685, 0, 0.785, 0.0975, 0.8825, 0.195, 0.98, 0.295, 1.0775, 0.3925, 1.175, 0.49, 1.275, 0.5875, 1.3725, 0.685, 0, 0.785, 0.0975, 0.8825, 0.195, 0.98, 0.295, 1.0775, 0.3925, 1.175, 0.49, 1.275, 0.5875, 1.3725, 0.685, 0, 0.785, 0.0975, 0.8825, 0.195, 0.98, 0.295, 1.0775, 0.3925, 1.175, 0.49, 1.275, 0.5875, 1.3725, 0.685],
  "SoftwareVersions": "syngo_MR_E11",
  "SpacingBetweenSlices": 2,
  "StationName": "MRC35049",
  "TaskName": "friends",
  "TotalReadoutTime": 0.0576811,
  "TxRefAmp": 251.431,
  "WipMemBlock": "2b77a250-2637-4d2f-9416-6e6c0c21604b||Sequence: R016 ve11c/master r/e634e98; Dec 19 2017 11:00:25 by eja",
  "dcmmeta_affine": [
    [-1.9954971075057983, -0.11785529553890228, 0.06404159218072891, 106.03739929199219],
    [-0.13146300613880157, 1.9079972505569458, -0.5850332379341125, -66.01215362548828],
    [0.026620958000421524, 0.5879256725311279, 1.911448359489441, -62.643680572509766],
    [0.0, 0.0, 0.0, 1.0]
],
  "dcmmeta_reorient_transform": [
    [0.0, -1.0, 0.0, 103.0],
    [1.0, 0.0, 0.0, 0.0],
    [0.0, 0.0, 1.0, 0.0],
    [0.0, 0.0, 0.0, 1.0]
],
  "dcmmeta_shape": [104, 104, 60, 477],
  "dcmmeta_slice_dim": 2,
  "dcmmeta_version": 0.6,
  "global": {
    "const": {
      "AcquisitionMatrix": [104, 0, 0, 104],
      "AngioFlag": "N",
      "BitsAllocated": 16,
      "BitsStored": 16,
      "BodyPartExamined": "BRAIN",
      "Columns": 832,
      "EchoNumbers": 1,
      "EchoTime": 37.0,
      "EchoTrainLength": 104,
      "FlipAngle": 52.0,
      "HighBit": 15,
      "ImageOrientationPatient": [0.99774856609832, 0.06573149936714, 0.01331047856766, -0.0589276461923, 0.95399863110199, -0.2939628282109],
      "ImagePositionPatient": [-777.35993661522, -872.8750995165, 202.22757217919],
      "ImageType": [
        "ORIGINAL",
        "PRIMARY",
        "M",
        "MB",
        "ND",
        "MOSAIC"
],
      "ImagedNucleus": "1H",
      "ImagingFrequency": 123.259312,
      "InPlanePhaseEncodingDirection": "COL",
      "MRAcquisitionType": "2D",
      "MagneticFieldStrength": 3.0,
      "Manufacturer": "SIEMENS",
      "ManufacturerModelName": "Prisma_fit",
      "Modality": "MR",
      "NumberOfAverages": 1.0,
      "NumberOfPhaseEncodingSteps": 104,
      "PercentPhaseFieldOfView": 100.0,
      "PercentSampling": 100.0,
      "PerformedProcedureStepStartTime": "173552.563000",
      "PhotometricInterpretation": "MONOCHROME2",
      "PixelBandwidth": 2290.0,
      "PixelRepresentation": 0,
      "PixelSpacing": [2.0, 2.0],
      "ProtocolName": "func_task-friends-s01e11b",
      "RepetitionTime": 1490.0,
      "Rows": 832,
      "SAR": 0.03945562928005,
      "SamplesPerPixel": 1,
      "ScanOptions": "FS",
      "ScanningSequence": "EP",
      "SequenceName": "epfid2d1_104",
      "SequenceVariant": [
        "SK",
        "SS"
],
      "SeriesDescription": "func_task-friends-s01e11b",
      "SeriesNumber": 15,
      "SeriesTime": "184900.504000",
      "SliceLocation": -37.16502491665,
      "SliceThickness": 2.0,
      "SmallestImagePixelValue": 0,
      "SoftwareVersions": "syngo MR E11",
      "SpacingBetweenSlices": 1.9999999608157,
      "SpecificCharacterSet": "ISO_IR 100",
      "StudyID": "1",
      "StudyTime": "173552.501000",
      "TransmitCoilName": "Body",
      "VariableFlipAngleFlag": "N",
      "WindowCenterWidthExplanation": "Algo1",
      "dBdt": 0.0},
    "slices": {}
  },
  "time": {
    "samples": {
      "AcquisitionNumber": [1, 2, 3, 4, 5, 6, 7, 8, 9, 10, 11, 12, 13, 14, 15, 16, 17, 18, 19, 20, 21, 22, 23, 24, 25, 26, 27, 28, 29, 30, 31, 32, 33, 34, 35, 36, 37, 38, 39, 40, 41, 42, 43, 44, 45, 46, 47, 48, 49, 50, 51, 52, 53, 54, 55, 56, 57, 58, 59, 60, 61, 62, 63, 64, 65, 66, 67, 68, 69, 70, 71, 72, 73, 74, 75, 76, 77, 78, 79, 80, 81, 82, 83, 84, 85, 86, 87, 88, 89, 90, 91, 92, 93, 94, 95, 96, 97, 98, 99, 100, 101, 102, 103, 104, 105, 106, 107, 108, 109, 110, 111, 112, 113, 114, 115, 116, 117, 118, 119, 120, 121, 122, 123, 124, 125, 126, 127, 128, 129, 130, 131, 132, 133, 134, 135, 136, 137, 138, 139, 140, 141, 142, 143, 144, 145, 146, 147, 148, 149, 150, 151, 152, 153, 154, 155, 156, 157, 158, 159, 160, 161, 162, 163, 164, 165, 166, 167, 168, 169, 170, 171, 172, 173, 174, 175, 176, 177, 178, 179, 180, 181, 182, 183, 184, 185, 186, 187, 188, 189, 190, 191, 192, 193, 194, 195, 196, 197, 198, 199, 200, 201, 202, 203, 204, 205, 206, 207, 208, 209, 210, 211, 212, 213, 214, 215, 216, 217, 218, 219, 220, 221, 222, 223, 224, 225, 226, 227, 228, 229, 230, 231, 232, 233, 234, 235, 236, 237, 238, 239, 240, 241, 242, 243, 244, 245, 246, 247, 248, 249, 250, 251, 252, 253, 254, 255, 256, 257, 258, 259, 260, 261, 262, 263, 264, 265, 266, 267, 268, 269, 270, 271, 272, 273, 274, 275, 276, 277, 278, 279, 280, 281, 282, 283, 284, 285, 286, 287, 288, 289, 290, 291, 292, 293, 294, 295, 296, 297, 298, 299, 300, 301, 302, 303, 304, 305, 306, 307, 308, 309, 310, 311, 312, 313, 314, 315, 316, 317, 318, 319, 320, 321, 322, 323, 324, 325, 326, 327, 328, 329, 330, 331, 332, 333, 334, 335, 336, 337, 338, 339, 340, 341, 342, 343, 344, 345, 346, 347, 348, 349, 350, 351, 352, 353, 354, 355, 356, 357, 358, 359, 360, 361, 362, 363, 364, 365, 366, 367, 368, 369, 370, 371, 372, 373, 374, 375, 376, 377, 378, 379, 380, 381, 382, 383, 384, 385, 386, 387, 388, 389, 390, 391, 392, 393, 394, 395, 396, 397, 398, 399, 400, 401, 402, 403, 404, 405, 406, 407, 408, 409, 410, 411, 412, 413, 414, 415, 416, 417, 418, 419, 420, 421, 422, 423, 424, 425, 426, 427, 428, 429, 430, 431, 432, 433, 434, 435, 436, 437, 438, 439, 440, 441, 442, 443, 444, 445, 446, 447, 448, 449, 450, 451, 452, 453, 454, 455, 456, 457, 458, 459, 460, 461, 462, 463, 464, 465, 466, 467, 468, 469, 470, 471, 472, 473, 474, 475, 476, 477],
      "AcquisitionTime": ["184745.665000", "184747.155000", "184748.645000", "184750.135000", "184751.625000", "184753.115000", "184754.605000", "184756.095000", "184757.585000", "184759.075000", "184800.565000", "184802.055000", "184803.545000", "184805.035000", "184806.525000", "184808.015000", "184809.505000", "184810.995000", "184812.485000", "184813.975000", "184815.465000", "184816.955000", "184818.445000", "184819.935000", "184821.425000", "184822.915000", "184824.405000", "184825.895000", "184827.385000", "184828.875000", "184830.365000", "184831.855000", "184833.345000", "184834.835000", "184836.325000", "184837.815000", "184839.305000", "184840.795000", "184842.285000", "184843.775000", "184845.265000", "184846.755000", "184848.245000", "184849.735000", "184851.225000", "184852.715000", "184854.205000", "184855.695000", "184857.185000", "184858.675000", "184900.165000", "184901.655000", "184903.145000", "184904.635000", "184906.125000", "184907.615000", "184909.105000", "184910.595000", "184912.085000", "184913.575000", "184915.065000", "184916.555000", "184918.045000", "184919.535000", "184921.025000", "184922.515000", "184924.005000", "184925.495000", "184926.985000", "184928.475000", "184929.965000", "184931.455000", "184932.945000", "184934.435000", "184935.925000", "184937.415000", "184938.905000", "184940.395000", "184941.885000", "184943.375000", "184944.865000", "184946.355000", "184947.845000", "184949.335000", "184950.825000", "184952.315000", "184953.805000", "184955.295000", "184956.785000", "184958.275000", "184959.765000", "185001.255000", "185002.745000", "185004.235000", "185005.725000", "185007.215000", "185008.705000", "185010.195000", "185011.685000", "185013.175000", "185014.665000", "185016.155000", "185017.645000", "185019.135000", "185020.625000", "185022.115000", "185023.605000", "185025.095000", "185026.585000", "185028.075000", "185029.565000", "185031.055000", "185032.545000", "185034.035000", "185035.525000", "185037.015000", "185038.505000", "185039.995000", "185041.485000", "185042.975000", "185044.465000", "185045.955000", "185047.445000", "185048.935000", "185050.425000", "185051.915000", "185053.405000", "185054.895000", "185056.385000", "185057.875000", "185059.365000", "185100.855000", "185102.345000", "185103.835000", "185105.325000", "185106.815000", "185108.305000", "185109.795000", "185111.285000", "185112.775000", "185114.265000", "185115.755000", "185117.245000", "185118.735000", "185120.225000", "185121.715000", "185123.205000", "185124.695000", "185126.185000", "185127.675000", "185129.165000", "185130.655000", "185132.145000", "185133.635000", "185135.125000", "185136.615000", "185138.105000", "185139.595000", "185141.085000", "185142.575000", "185144.065000", "185145.555000", "185147.045000", "185148.535000", "185150.025000", "185151.515000", "185153.005000", "185154.495000", "185155.985000", "185157.475000", "185158.965000", "185200.455000", "185201.945000", "185203.435000", "185204.925000", "185206.415000", "185207.905000", "185209.395000", "185210.885000", "185212.375000", "185213.865000", "185215.355000", "185216.845000", "185218.335000", "185219.825000", "185221.315000", "185222.805000", "185224.295000", "185225.785000", "185227.275000", "185228.765000", "185230.255000", "185231.745000", "185233.235000", "185234.725000", "185236.215000", "185237.705000", "185239.195000", "185240.685000", "185242.175000", "185243.665000", "185245.155000", "185246.645000", "185248.135000", "185249.625000", "185251.115000", "185252.605000", "185254.095000", "185255.585000", "185257.075000", "185258.565000", "185300.055000", "185301.545000", "185303.035000", "185304.525000", "185306.015000", "185307.505000", "185308.995000", "185310.485000", "185311.975000", "185313.465000", "185314.955000", "185316.445000", "185317.935000", "185319.425000", "185320.915000", "185322.405000", "185323.895000", "185325.385000", "185326.875000", "185328.365000", "185329.855000", "185331.345000", "185332.835000", "185334.325000", "185335.815000", "185337.305000", "185338.795000", "185340.285000", "185341.775000", "185343.265000", "185344.755000", "185346.245000", "185347.735000", "185349.225000", "185350.715000", "185352.205000", "185353.695000", "185355.185000", "185356.675000", "185358.165000", "185359.655000", "185401.145000", "185402.635000", "185404.125000", "185405.615000", "185407.105000", "185408.595000", "185410.085000", "185411.575000", "185413.065000", "185414.555000", "185416.045000", "185417.535000", "185419.025000", "185420.515000", "185422.005000", "185423.495000", "185424.985000", "185426.475000", "185427.965000", "185429.455000", "185430.945000", "185432.435000", "185433.925000", "185435.415000", "185436.905000", "185438.395000", "185439.885000", "185441.375000", "185442.865000", "185444.355000", "185445.845000", "185447.335000", "185448.825000", "185450.315000", "185451.805000", "185453.295000", "185454.785000", "185456.275000", "185457.765000", "185459.255000", "185500.745000", "185502.235000", "185503.725000", "185505.215000", "185506.705000", "185508.195000", "185509.685000", "185511.175000", "185512.665000", "185514.155000", "185515.645000", "185517.135000", "185518.625000", "185520.115000", "185521.605000", "185523.095000", "185524.585000", "185526.075000", "185527.565000", "185529.055000", "185530.545000", "185532.035000", "185533.525000", "185535.015000", "185536.505000", "185537.995000", "185539.485000", "185540.975000", "185542.465000", "185543.955000", "185545.445000", "185546.935000", "185548.425000", "185549.915000", "185551.405000", "185552.895000", "185554.385000", "185555.875000", "185557.365000", "185558.855000", "185600.345000", "185601.835000", "185603.325000", "185604.815000", "185606.305000", "185607.795000", "185609.285000", "185610.775000", "185612.265000", "185613.755000", "185615.245000", "185616.735000", "185618.225000", "185619.715000", "185621.205000", "185622.695000", "185624.185000", "185625.675000", "185627.165000", "185628.655000", "185630.145000", "185631.635000", "185633.125000", "185634.615000", "185636.105000", "185637.595000", "185639.085000", "185640.575000", "185642.065000", "185643.555000", "185645.045000", "185646.535000", "185648.025000", "185649.515000", "185651.005000", "185652.495000", "185653.985000", "185655.475000", "185656.965000", "185658.455000", "185659.945000", "185701.435000", "185702.925000", "185704.415000", "185705.905000", "185707.395000", "185708.885000", "185710.375000", "185711.865000", "185713.355000", "185714.845000", "185716.335000", "185717.825000", "185719.315000", "185720.805000", "185722.295000", "185723.785000", "185725.275000", "185726.765000", "185728.255000", "185729.745000", "185731.235000", "185732.725000", "185734.215000", "185735.705000", "185737.195000", "185738.685000", "185740.175000", "185741.665000", "185743.155000", "185744.645000", "185746.135000", "185747.625000", "185749.115000", "185750.605000", "185752.095000", "185753.585000", "185755.075000", "185756.565000", "185758.055000", "185759.545000", "185801.035000", "185802.525000", "185804.015000", "185805.505000", "185806.995000", "185808.485000", "185809.975000", "185811.465000", "185812.955000", "185814.445000", "185815.935000", "185817.425000", "185818.915000", "185820.405000", "185821.895000", "185823.385000", "185824.875000", "185826.365000", "185827.855000", "185829.345000", "185830.835000", "185832.325000", "185833.815000", "185835.305000", "185836.795000", "185838.285000", "185839.775000", "185841.265000", "185842.755000", "185844.245000", "185845.735000", "185847.225000", "185848.715000", "185850.205000", "185851.695000", "185853.185000", "185854.675000", "185856.165000", "185857.655000", "185859.145000", "185900.635000", "185902.125000", "185903.615000", "185905.105000", "185906.595000", "185908.085000", "185909.575000", "185911.065000", "185912.555000", "185914.045000", "185915.535000", "185917.025000", "185918.515000", "185920.005000", "185921.495000", "185922.985000", "185924.475000", "185925.965000", "185927.455000", "185928.945000", "185930.435000", "185931.925000", "185933.415000", "185934.905000"],
      "ContentTime": ["184900.506000", "184900.510000", "184900.513000", "184900.515000", "184900.518000", "184900.521000", "184900.524000", "184900.527000", "184900.530000", "184900.532000", "184900.535000", "184900.538000", "184900.541000", "184900.551000", "184900.554000", "184900.563000", "184900.566000", "184900.568000", "184900.571000", "184900.574000", "184920.478000", "184920.481000", "184920.484000", "184920.487000", "184920.490000", "184920.492000", "184920.495000", "184920.498000", "184920.501000", "184920.504000", "184920.507000", "184920.509000", "184920.512000", "184920.515000", "184920.518000", "184920.521000", "184920.523000", "184920.526000", "184920.529000", "184920.532000", "184940.479000", "184940.482000", "184940.485000", "184940.487000", "184940.490000", "184940.493000", "184940.496000", "184940.499000", "184940.502000", "184940.504000", "184940.507000", "184940.510000", "184940.513000", "184940.516000", "184940.519000", "184940.521000", "184940.524000", "184940.527000", "184940.530000", "184940.533000", "185000.479000", "185000.482000", "185000.485000", "185000.487000", "185000.490000", "185000.493000", "185000.496000", "185000.499000", "185000.502000", "185000.505000", "185000.507000", "185000.510000", "185000.513000", "185000.516000", "185000.519000", "185000.522000", "185000.524000", "185000.527000", "185000.530000", "185000.533000", "185000.536000", "185020.479000", "185020.482000", "185020.485000", "185020.487000", "185020.490000", "185020.493000", "185020.496000", "185020.499000", "185020.502000", "185020.504000", "185020.507000", "185020.510000", "185020.513000", "185020.516000", "185020.519000", "185020.522000", "185020.524000", "185020.527000", "185020.530000", "185020.533000", "185100.478000", "185100.481000", "185100.484000", "185100.487000", "185100.489000", "185100.492000", "185100.495000", "185100.498000", "185100.501000", "185100.504000", "185100.507000", "185100.509000", "185100.512000", "185100.515000", "185100.518000", "185100.521000", "185100.524000", "185100.526000", "185100.529000", "185100.532000", "185100.535000", "185100.538000", "185100.541000", "185100.544000", "185100.547000", "185100.549000", "185100.552000", "185100.555000", "185100.558000", "185140.478000", "185140.481000", "185140.484000", "185140.487000", "185140.490000", "185140.492000", "185140.495000", "185140.498000", "185140.501000", "185140.504000", "185140.507000", "185140.509000", "185140.512000", "185140.515000", "185140.518000", "185140.521000", "185140.524000", "185140.527000", "185140.529000", "185140.532000", "185140.535000", "185140.538000", "185140.541000", "185140.544000", "185140.547000", "185140.550000", "185140.552000", "185220.479000", "185220.482000", "185220.485000", "185220.488000", "185220.491000", "185220.493000", "185220.496000", "185220.499000", "185220.502000", "185220.505000", "185220.508000", "185220.510000", "185220.513000", "185220.516000", "185220.519000", "185220.522000", "185220.541000", "185220.544000", "185220.547000", "185220.549000", "185220.552000", "185220.555000", "185220.558000", "185220.561000", "185220.564000", "185220.567000", "185220.569000", "185300.478000", "185300.481000", "185300.484000", "185300.487000", "185300.489000", "185300.492000", "185300.495000", "185300.498000", "185300.501000", "185300.504000", "185300.507000", "185300.509000", "185300.512000", "185300.515000", "185300.518000", "185300.521000", "185300.524000", "185300.527000", "185300.530000", "185300.532000", "185300.535000", "185300.538000", "185300.541000", "185300.544000", "185300.547000", "185300.549000", "185300.552000", "185340.478000", "185340.481000", "185340.484000", "185340.487000", "185340.490000", "185340.492000", "185340.495000", "185340.498000", "185340.501000", "185340.504000", "185340.507000", "185340.509000", "185340.512000", "185340.515000", "185340.518000", "185340.521000", "185340.524000", "185340.527000", "185340.531000", "185340.534000", "185340.536000", "185340.539000", "185340.542000", "185340.545000", "185340.548000", "185340.551000", "185420.479000", "185420.482000", "185420.485000", "185420.488000", "185420.491000", "185420.494000", "185420.497000", "185420.499000", "185420.502000", "185420.505000", "185420.508000", "185420.511000", "185420.514000", "185420.517000", "185420.520000", "185420.522000", "185420.525000", "185420.528000", "185420.531000", "185420.534000", "185420.537000", "185420.540000", "185420.542000", "185420.545000", "185420.548000", "185420.560000", "185420.563000", "185500.479000", "185500.482000", "185500.485000", "185500.488000", "185500.491000", "185500.493000", "185500.496000", "185500.499000", "185500.502000", "185500.505000", "185500.508000", "185500.510000", "185500.513000", "185500.516000", "185500.519000", "185500.522000", "185500.525000", "185500.528000", "185500.531000", "185500.533000", "185500.536000", "185500.539000", "185500.542000", "185500.545000", "185500.548000", "185500.550000", "185500.554000", "185540.478000", "185540.481000", "185540.484000", "185540.487000", "185540.490000", "185540.492000", "185540.495000", "185540.498000", "185540.501000", "185540.504000", "185540.507000", "185540.509000", "185540.512000", "185540.515000", "185540.518000", "185540.521000", "185540.524000", "185540.527000", "185540.530000", "185540.532000", "185540.535000", "185540.538000", "185540.541000", "185540.544000", "185540.547000", "185540.549000", "185540.552000", "185620.478000", "185620.481000", "185620.484000", "185620.487000", "185620.490000", "185620.493000", "185620.495000", "185620.498000", "185620.501000", "185620.504000", "185620.507000", "185620.510000", "185620.512000", "185620.515000", "185620.518000", "185620.521000", "185620.524000", "185620.527000", "185620.530000", "185620.532000", "185620.535000", "185620.538000", "185620.541000", "185620.544000", "185620.547000", "185620.549000", "185620.552000", "185700.479000", "185700.482000", "185700.485000", "185700.501000", "185700.503000", "185700.506000", "185700.509000", "185700.512000", "185700.515000", "185700.518000", "185700.521000", "185700.523000", "185700.526000", "185700.529000", "185700.532000", "185700.535000", "185700.538000", "185700.541000", "185700.543000", "185700.546000", "185700.549000", "185700.552000", "185700.555000", "185700.558000", "185700.561000", "185700.563000", "185700.566000", "185740.478000", "185740.481000", "185740.484000", "185740.487000", "185740.490000", "185740.493000", "185740.495000", "185740.498000", "185740.501000", "185740.504000", "185740.507000", "185740.510000", "185740.513000", "185740.515000", "185740.518000", "185740.521000", "185740.524000", "185740.527000", "185740.530000", "185740.533000", "185740.536000", "185740.539000", "185740.542000", "185740.544000", "185740.547000", "185740.550000", "185820.478000", "185820.481000", "185820.484000", "185820.487000", "185820.490000", "185820.493000", "185820.495000", "185820.498000", "185820.501000", "185820.504000", "185820.507000", "185820.510000", "185820.512000", "185820.515000", "185820.518000", "185820.521000", "185820.524000", "185820.527000", "185820.530000", "185820.532000", "185820.535000", "185820.538000", "185820.541000", "185820.544000", "185820.547000", "185820.550000", "185820.553000", "185900.479000", "185900.482000", "185900.485000", "185900.488000", "185900.491000", "185900.493000", "185900.496000", "185900.499000", "185900.502000", "185900.505000", "185900.508000", "185900.510000", "185900.513000", "185900.516000", "185900.519000", "185900.522000", "185900.525000", "185900.528000", "185900.531000", "185900.533000", "185900.536000", "185900.539000", "185900.542000", "185900.545000", "185900.548000", "185900.550000", "185900.553000", "185936.813000", "185936.816000", "185936.819000", "185936.822000", "185936.825000", "185936.828000", "185936.831000", "185936.834000", "185936.837000", "185936.839000", "185936.842000", "185936.845000", "185936.848000", "185936.858000", "185936.861000", "185936.863000", "185936.866000", "185936.869000", "185936.872000", "185936.875000", "185936.878000", "185936.881000", "185936.884000", "185936.887000", "185936.889000"],
