{
  "AcquisitionMatrixPE": 104,
  "AcquisitionNumber": 1,
  "AcquisitionTime": "18:35:24.785000",
  "BandwidthPerPixelPhaseEncode": 17.17,
  "BaseResolution": 104,
  "BodyPartExamined": "BRAIN",
  "CoilString": "HC1-7;NC1_2",
  "ConsistencyInfo": "N4_VE11C_LATEST_20160120",
  "ConversionSoftware": "dcm2niix",
  "ConversionSoftwareVersion": "v1.0.20190720  (JP2:OpenJPEG) GCC7.3.0",
  "DerivedVendorReportedEchoSpacing": 0.000560011,
  "DeviceSerialNumber": "167006",
  "DwellTime": 2.1e-06,
  "EchoTime": 0.037,
  "EchoTrainLength": 104,
  "EffectiveEchoSpacing": 0.000560011,
  "FlipAngle": 52,
  "ImageComments": "Unaliased_MB4_PE3_LB",
  "ImageOrientationPatientDICOM": [0.997749, 0.0657315, 0.0133105, -0.0589276, 0.953999, -0.293963],
  "ImageType": [
    "ORIGINAL",
    "PRIMARY",
    "M",
    "MB",
    "ND",
    "MOSAIC"
],
  "ImagingFrequency": 123.259,
  "InPlanePhaseEncodingDirectionDICOM": "COL",
  "InstitutionAddress": "Chemin_Queen-Mary_4565_Montreal_District_CA_H3W_1W5",
  "InstitutionName": "IUGM",
  "InstitutionalDepartmentName": "Department",
  "MRAcquisitionType": "2D",
  "MagneticFieldStrength": 3,
  "Manufacturer": "Siemens",
  "ManufacturersModelName": "Prisma_fit",
  "Modality": "MR",
  "MultibandAccelerationFactor": 4,
  "PartialFourier": 1,
  "PatientPosition": "HFS",
  "PercentPhaseFOV": 100,
  "PhaseEncodingDirection": "j",
  "PhaseEncodingSteps": 104,
  "PhaseResolution": 1,
  "PixelBandwidth": 2290,
  "ProcedureStepDescription": "video_friends",
  "ProtocolName": "func_task-friends-s01e11a",
  "PulseSequenceDetails": "%CustomerSeq%_cmrr_mbep2d_bold",
  "ReceiveCoilActiveElements": "HC1-7;NC1,2",
  "ReceiveCoilName": "HeadNeck_64",
  "ReconMatrixPE": 104,
  "RepetitionTime": 1.49,
  "SAR": 0.0394556,
  "ScanOptions": "FS",
  "ScanningSequence": "EP",
  "SequenceName": "epfid2d1_104",
  "SequenceVariant": "SK_SS",
  "SeriesDescription": "func_task-friends-s01e11a",
  "SeriesNumber": 13,
  "ShimSetting": [629, -7213, -8838, 744, 65, -23, 36, -8],
  "SliceThickness": 2,
  "SliceTiming": [0, 0.7825, 0.0975, 0.8825, 0.195, 0.98, 0.2925, 1.0775, 0.3925, 1.175, 0.49, 1.2725, 0.5875, 1.3725, 0.685, 0, 0.7825, 0.0975, 0.8825, 0.195, 0.98, 0.2925, 1.0775, 0.3925, 1.175, 0.49, 1.2725, 0.5875, 1.3725, 0.685, 0, 0.7825, 0.0975, 0.8825, 0.195, 0.98, 0.2925, 1.0775, 0.3925, 1.175, 0.49, 1.2725, 0.5875, 1.3725, 0.685, 0, 0.7825, 0.0975, 0.8825, 0.195, 0.98, 0.2925, 1.0775, 0.3925, 1.175, 0.49, 1.2725, 0.5875, 1.3725, 0.685],
  "SoftwareVersions": "syngo_MR_E11",
  "SpacingBetweenSlices": 2,
  "StationName": "MRC35049",
  "TaskName": "friends",
  "TotalReadoutTime": 0.0576811,
  "TxRefAmp": 251.431,
  "WipMemBlock": "adbb0d94-5405-424f-810d-29220852db04||Sequence: R016 ve11c/master r/e634e98; Dec 19 2017 11:00:25 by eja",
  "dcmmeta_affine": [
    [-1.9954971075057983, -0.11785529553890228, 0.06404159218072891, 106.03739929199219],
    [-0.13146300613880157, 1.9079972505569458, -0.5850332379341125, -66.01215362548828],
    [0.026620958000421524, 0.5879256725311279, 1.911448359489441, -62.643680572509766],
    [0.0, 0.0, 0.0, 1.0]
],
  "dcmmeta_reorient_transform": [
    [0.0, -1.0, 0.0, 103.0],
    [1.0, 0.0, 0.0, 0.0],
    [0.0, 0.0, 1.0, 0.0],
    [0.0, 0.0, 0.0, 1.0]
],
  "dcmmeta_shape": [104, 104, 60, 477],
  "dcmmeta_slice_dim": 2,
  "dcmmeta_version": 0.6,
  "global": {
    "const": {
      "AcquisitionMatrix": [104, 0, 0, 104],
      "AngioFlag": "N",
      "BitsAllocated": 16,
      "BitsStored": 16,
      "BodyPartExamined": "BRAIN",
      "Columns": 832,
      "EchoNumbers": 1,
      "EchoTime": 37.0,
      "EchoTrainLength": 104,
      "FlipAngle": 52.0,
      "HighBit": 15,
      "ImageOrientationPatient": [0.99774856609832, 0.06573149936714, 0.01331047856766, -0.0589276461923, 0.95399863110199, -0.2939628282109],
      "ImagePositionPatient": [-777.35993661522, -872.8750995165, 202.22757217919],
      "ImageType": [
        "ORIGINAL",
        "PRIMARY",
        "M",
        "MB",
        "ND",
        "MOSAIC"
],
      "ImagedNucleus": "1H",
      "ImagingFrequency": 123.259304,
      "InPlanePhaseEncodingDirection": "COL",
      "MRAcquisitionType": "2D",
      "MagneticFieldStrength": 3.0,
      "Manufacturer": "SIEMENS",
      "ManufacturerModelName": "Prisma_fit",
      "Modality": "MR",
      "NumberOfAverages": 1.0,
      "NumberOfPhaseEncodingSteps": 104,
      "PercentPhaseFieldOfView": 100.0,
      "PercentSampling": 100.0,
      "PerformedProcedureStepStartTime": "173552.563000",
      "PhotometricInterpretation": "MONOCHROME2",
      "PixelBandwidth": 2290.0,
      "PixelRepresentation": 0,
      "PixelSpacing": [2.0, 2.0],
      "ProtocolName": "func_task-friends-s01e11a",
      "RepetitionTime": 1490.0,
      "Rows": 832,
      "SAR": 0.03945562928005,
      "SamplesPerPixel": 1,
      "ScanOptions": "FS",
      "ScanningSequence": "EP",
      "SequenceName": "epfid2d1_104",
      "SequenceVariant": [
        "SK",
        "SS"
],
      "SeriesDescription": "func_task-friends-s01e11a",
      "SeriesNumber": 13,
      "SeriesTime": "183657.346000",
      "SliceLocation": -37.16502491665,
      "SliceThickness": 2.0,
      "SmallestImagePixelValue": 0,
      "SoftwareVersions": "syngo MR E11",
      "SpacingBetweenSlices": 1.9999999608157,
      "SpecificCharacterSet": "ISO_IR 100",
      "StudyID": "1",
      "StudyTime": "173552.501000",
      "TransmitCoilName": "Body",
      "VariableFlipAngleFlag": "N",
      "WindowCenterWidthExplanation": "Algo1",
      "dBdt": 0.0},
    "slices": {}
  },
  "time": {
    "samples": {
      "AcquisitionNumber": [1, 2, 3, 4, 5, 6, 7, 8, 9, 10, 11, 12, 13, 14, 15, 16, 17, 18, 19, 20, 21, 22, 23, 24, 25, 26, 27, 28, 29, 30, 31, 32, 33, 34, 35, 36, 37, 38, 39, 40, 41, 42, 43, 44, 45, 46, 47, 48, 49, 50, 51, 52, 53, 54, 55, 56, 57, 58, 59, 60, 61, 62, 63, 64, 65, 66, 67, 68, 69, 70, 71, 72, 73, 74, 75, 76, 77, 78, 79, 80, 81, 82, 83, 84, 85, 86, 87, 88, 89, 90, 91, 92, 93, 94, 95, 96, 97, 98, 99, 100, 101, 102, 103, 104, 105, 106, 107, 108, 109, 110, 111, 112, 113, 114, 115, 116, 117, 118, 119, 120, 121, 122, 123, 124, 125, 126, 127, 128, 129, 130, 131, 132, 133, 134, 135, 136, 137, 138, 139, 140, 141, 142, 143, 144, 145, 146, 147, 148, 149, 150, 151, 152, 153, 154, 155, 156, 157, 158, 159, 160, 161, 162, 163, 164, 165, 166, 167, 168, 169, 170, 171, 172, 173, 174, 175, 176, 177, 178, 179, 180, 181, 182, 183, 184, 185, 186, 187, 188, 189, 190, 191, 192, 193, 194, 195, 196, 197, 198, 199, 200, 201, 202, 203, 204, 205, 206, 207, 208, 209, 210, 211, 212, 213, 214, 215, 216, 217, 218, 219, 220, 221, 222, 223, 224, 225, 226, 227, 228, 229, 230, 231, 232, 233, 234, 235, 236, 237, 238, 239, 240, 241, 242, 243, 244, 245, 246, 247, 248, 249, 250, 251, 252, 253, 254, 255, 256, 257, 258, 259, 260, 261, 262, 263, 264, 265, 266, 267, 268, 269, 270, 271, 272, 273, 274, 275, 276, 277, 278, 279, 280, 281, 282, 283, 284, 285, 286, 287, 288, 289, 290, 291, 292, 293, 294, 295, 296, 297, 298, 299, 300, 301, 302, 303, 304, 305, 306, 307, 308, 309, 310, 311, 312, 313, 314, 315, 316, 317, 318, 319, 320, 321, 322, 323, 324, 325, 326, 327, 328, 329, 330, 331, 332, 333, 334, 335, 336, 337, 338, 339, 340, 341, 342, 343, 344, 345, 346, 347, 348, 349, 350, 351, 352, 353, 354, 355, 356, 357, 358, 359, 360, 361, 362, 363, 364, 365, 366, 367, 368, 369, 370, 371, 372, 373, 374, 375, 376, 377, 378, 379, 380, 381, 382, 383, 384, 385, 386, 387, 388, 389, 390, 391, 392, 393, 394, 395, 396, 397, 398, 399, 400, 401, 402, 403, 404, 405, 406, 407, 408, 409, 410, 411, 412, 413, 414, 415, 416, 417, 418, 419, 420, 421, 422, 423, 424, 425, 426, 427, 428, 429, 430, 431, 432, 433, 434, 435, 436, 437, 438, 439, 440, 441, 442, 443, 444, 445, 446, 447, 448, 449, 450, 451, 452, 453, 454, 455, 456, 457, 458, 459, 460, 461, 462, 463, 464, 465, 466, 467, 468, 469, 470, 471, 472, 473, 474, 475, 476, 477],
      "AcquisitionTime": ["183524.785000", "183526.275000", "183527.765000", "183529.255000", "183530.745000", "183532.235000", "183533.725000", "183535.215000", "183536.705000", "183538.195000", "183539.685000", "183541.175000", "183542.665000", "183544.155000", "183545.645000", "183547.135000", "183548.625000", "183550.115000", "183551.605000", "183553.095000", "183554.585000", "183556.075000", "183557.565000", "183559.055000", "183600.545000", "183602.035000", "183603.525000", "183605.015000", "183606.505000", "183607.995000", "183609.485000", "183610.975000", "183612.465000", "183613.955000", "183615.445000", "183616.935000", "183618.425000", "183619.915000", "183621.405000", "183622.895000", "183624.385000", "183625.875000", "183627.365000", "183628.855000", "183630.345000", "183631.835000", "183633.325000", "183634.815000", "183636.305000", "183637.795000", "183639.285000", "183640.775000", "183642.265000", "183643.755000", "183645.245000", "183646.735000", "183648.225000", "183649.715000", "183651.205000", "183652.695000", "183654.185000", "183655.675000", "183657.165000", "183658.655000", "183700.145000", "183701.635000", "183703.125000", "183704.615000", "183706.105000", "183707.595000", "183709.085000", "183710.575000", "183712.065000", "183713.555000", "183715.045000", "183716.535000", "183718.025000", "183719.515000", "183721.005000", "183722.495000", "183723.985000", "183725.475000", "183726.965000", "183728.455000", "183729.945000", "183731.435000", "183732.925000", "183734.415000", "183735.905000", "183737.395000", "183738.885000", "183740.375000", "183741.865000", "183743.355000", "183744.845000", "183746.335000", "183747.825000", "183749.315000", "183750.805000", "183752.295000", "183753.785000", "183755.275000", "183756.765000", "183758.255000", "183759.745000", "183801.235000", "183802.725000", "183804.215000", "183805.705000", "183807.195000", "183808.685000", "183810.175000", "183811.665000", "183813.155000", "183814.645000", "183816.135000", "183817.625000", "183819.115000", "183820.605000", "183822.095000", "183823.585000", "183825.075000", "183826.565000", "183828.055000", "183829.545000", "183831.035000", "183832.525000", "183834.015000", "183835.505000", "183836.995000", "183838.485000", "183839.975000", "183841.465000", "183842.955000", "183844.445000", "183845.935000", "183847.425000", "183848.915000", "183850.405000", "183851.895000", "183853.385000", "183854.875000", "183856.365000", "183857.855000", "183859.345000", "183900.835000", "183902.325000", "183903.815000", "183905.305000", "183906.795000", "183908.285000", "183909.775000", "183911.265000", "183912.755000", "183914.245000", "183915.735000", "183917.225000", "183918.715000", "183920.205000", "183921.695000", "183923.185000", "183924.675000", "183926.165000", "183927.655000", "183929.145000", "183930.635000", "183932.125000", "183933.615000", "183935.105000", "183936.595000", "183938.085000", "183939.575000", "183941.065000", "183942.555000", "183944.045000", "183945.535000", "183947.025000", "183948.515000", "183950.005000", "183951.495000", "183952.985000", "183954.475000", "183955.965000", "183957.455000", "183958.945000", "184000.435000", "184001.925000", "184003.415000", "184004.905000", "184006.395000", "184007.885000", "184009.375000", "184010.865000", "184012.355000", "184013.845000", "184015.335000", "184016.825000", "184018.315000", "184019.805000", "184021.295000", "184022.785000", "184024.275000", "184025.765000", "184027.255000", "184028.745000", "184030.235000", "184031.725000", "184033.215000", "184034.705000", "184036.195000", "184037.685000", "184039.175000", "184040.665000", "184042.155000", "184043.645000", "184045.135000", "184046.625000", "184048.115000", "184049.605000", "184051.095000", "184052.585000", "184054.075000", "184055.565000", "184057.055000", "184058.545000", "184100.035000", "184101.525000", "184103.015000", "184104.505000", "184105.995000", "184107.485000", "184108.975000", "184110.465000", "184111.955000", "184113.445000", "184114.935000", "184116.425000", "184117.915000", "184119.405000", "184120.895000", "184122.385000", "184123.875000", "184125.365000", "184126.855000", "184128.345000", "184129.835000", "184131.325000", "184132.815000", "184134.305000", "184135.795000", "184137.285000", "184138.775000", "184140.265000", "184141.755000", "184143.245000", "184144.735000", "184146.225000", "184147.715000", "184149.205000", "184150.695000", "184152.185000", "184153.675000", "184155.165000", "184156.655000", "184158.145000", "184159.635000", "184201.125000", "184202.615000", "184204.105000", "184205.595000", "184207.085000", "184208.575000", "184210.065000", "184211.555000", "184213.045000", "184214.535000", "184216.025000", "184217.515000", "184219.005000", "184220.495000", "184221.985000", "184223.475000", "184224.965000", "184226.455000", "184227.945000", "184229.435000", "184230.925000", "184232.415000", "184233.905000", "184235.395000", "184236.885000", "184238.375000", "184239.865000", "184241.355000", "184242.845000", "184244.335000", "184245.825000", "184247.315000", "184248.805000", "184250.295000", "184251.785000", "184253.275000", "184254.765000", "184256.255000", "184257.745000", "184259.235000", "184300.725000", "184302.215000", "184303.705000", "184305.195000", "184306.685000", "184308.175000", "184309.665000", "184311.155000", "184312.645000", "184314.135000", "184315.625000", "184317.115000", "184318.605000", "184320.095000", "184321.585000", "184323.075000", "184324.565000", "184326.055000", "184327.545000", "184329.035000", "184330.525000", "184332.015000", "184333.505000", "184334.995000", "184336.485000", "184337.975000", "184339.465000", "184340.955000", "184342.445000", "184343.935000", "184345.425000", "184346.915000", "184348.405000", "184349.895000", "184351.385000", "184352.875000", "184354.365000", "184355.855000", "184357.345000", "184358.835000", "184400.325000", "184401.815000", "184403.305000", "184404.795000", "184406.285000", "184407.775000", "184409.265000", "184410.755000", "184412.245000", "184413.735000", "184415.225000", "184416.715000", "184418.205000", "184419.695000", "184421.185000", "184422.675000", "184424.165000", "184425.655000", "184427.145000", "184428.635000", "184430.125000", "184431.615000", "184433.105000", "184434.595000", "184436.085000", "184437.575000", "184439.065000", "184440.555000", "184442.045000", "184443.535000", "184445.025000", "184446.515000", "184448.005000", "184449.495000", "184450.985000", "184452.475000", "184453.965000", "184455.455000", "184456.945000", "184458.435000", "184459.925000", "184501.415000", "184502.905000", "184504.395000", "184505.885000", "184507.375000", "184508.865000", "184510.355000", "184511.845000", "184513.335000", "184514.825000", "184516.315000", "184517.805000", "184519.295000", "184520.785000", "184522.275000", "184523.765000", "184525.255000", "184526.745000", "184528.235000", "184529.725000", "184531.215000", "184532.705000", "184534.195000", "184535.685000", "184537.175000", "184538.665000", "184540.155000", "184541.645000", "184543.135000", "184544.625000", "184546.115000", "184547.605000", "184549.095000", "184550.585000", "184552.075000", "184553.565000", "184555.055000", "184556.545000", "184558.035000", "184559.525000", "184601.015000", "184602.505000", "184603.995000", "184605.485000", "184606.975000", "184608.465000", "184609.955000", "184611.445000", "184612.935000", "184614.425000", "184615.915000", "184617.405000", "184618.895000", "184620.385000", "184621.875000", "184623.365000", "184624.855000", "184626.345000", "184627.835000", "184629.325000", "184630.815000", "184632.305000", "184633.795000", "184635.285000", "184636.775000", "184638.265000", "184639.755000", "184641.245000", "184642.735000", "184644.225000", "184645.715000", "184647.205000", "184648.695000", "184650.185000", "184651.675000", "184653.165000", "184654.655000", "184656.145000", "184657.635000", "184659.125000", "184700.615000", "184702.105000", "184703.595000", "184705.085000", "184706.575000", "184708.065000", "184709.555000", "184711.045000", "184712.535000", "184714.025000"],
      "ContentTime": ["183657.349000", "183657.352000", "183657.355000", "183657.358000", "183657.360000", "183657.363000", "183657.366000", "183657.369000", "183657.372000", "183657.375000", "183657.377000", "183657.381000", "183657.384000", "183657.396000", "183657.399000", "183657.402000", "183657.404000", "183657.407000", "183657.410000", "183657.413000", "183657.424000", "183657.427000", "183657.430000", "183657.433000", "183657.435000", "183657.438000", "183657.441000", "183657.444000", "183657.447000", "183657.450000", "183657.452000", "183657.455000", "183657.458000", "183657.461000", "183657.464000", "183657.467000", "183657.469000", "183657.472000", "183717.318000", "183717.321000", "183717.324000", "183717.326000", "183717.329000", "183717.332000", "183717.335000", "183717.338000", "183717.341000", "183717.343000", "183717.346000", "183717.349000", "183717.357000", "183717.359000", "183717.362000", "183717.365000", "183717.368000", "183717.371000", "183717.374000", "183717.376000", "183717.379000", "183737.318000", "183737.321000", "183737.324000", "183737.326000", "183737.329000", "183737.332000", "183737.335000", "183737.338000", "183737.341000", "183737.343000", "183737.346000", "183737.349000", "183737.352000", "183737.355000", "183737.357000", "183737.360000", "183737.363000", "183737.366000", "183737.369000", "183737.372000", "183757.318000", "183757.321000", "183757.324000", "183757.326000", "183757.329000", "183757.332000", "183757.335000", "183757.338000", "183757.340000", "183757.343000", "183757.346000", "183757.349000", "183757.352000", "183757.355000", "183757.358000", "183757.360000", "183757.363000", "183757.366000", "183757.369000", "183757.372000", "183837.319000", "183837.322000", "183837.325000", "183837.328000", "183837.330000", "183837.333000", "183837.336000", "183837.352000", "183837.355000", "183837.358000", "183837.361000", "183837.364000", "183837.367000", "183837.369000", "183837.372000", "183837.375000", "183837.378000", "183837.381000", "183837.383000", "183837.386000", "183837.389000", "183837.392000", "183837.395000", "183837.398000", "183837.400000", "183837.403000", "183837.407000", "183837.410000", "183837.413000", "183917.318000", "183917.321000", "183917.324000", "183917.327000", "183917.329000", "183917.332000", "183917.335000", "183917.338000", "183917.341000", "183917.343000", "183917.346000", "183917.349000", "183917.352000", "183917.355000", "183917.358000", "183917.361000", "183917.363000", "183917.366000", "183917.369000", "183917.372000", "183917.375000", "183917.378000", "183917.380000", "183917.383000", "183917.386000", "183917.389000", "183917.392000", "183957.318000", "183957.321000", "183957.324000", "183957.326000", "183957.329000", "183957.332000", "183957.335000", "183957.338000", "183957.341000", "183957.343000", "183957.346000", "183957.349000", "183957.352000", "183957.365000", "183957.368000", "183957.371000", "183957.374000", "183957.377000", "183957.380000", "183957.382000", "183957.385000", "183957.388000", "183957.391000", "183957.394000", "183957.397000", "183957.399000", "183957.402000", "184037.318000", "184037.321000", "184037.324000", "184037.327000", "184037.329000", "184037.332000", "184037.335000", "184037.338000", "184037.341000", "184037.344000", "184037.346000", "184037.349000", "184037.352000", "184037.355000", "184037.358000", "184037.360000", "184037.363000", "184037.366000", "184037.369000", "184037.372000", "184037.375000", "184037.378000", "184037.380000", "184037.383000", "184037.386000", "184037.389000", "184037.392000", "184057.319000", "184057.322000", "184057.325000", "184057.328000", "184057.330000", "184057.333000", "184057.336000", "184057.339000", "184057.342000", "184057.345000", "184057.347000", "184057.350000", "184057.353000", "184137.318000", "184137.321000", "184137.324000", "184137.327000", "184137.329000", "184137.332000", "184137.335000", "184137.338000", "184137.341000", "184137.344000", "184137.346000", "184137.349000", "184137.352000", "184137.355000", "184137.358000", "184137.361000", "184137.363000", "184137.366000", "184137.369000", "184137.372000", "184137.375000", "184137.378000", "184137.381000", "184137.383000", "184137.386000", "184137.389000", "184137.392000", "184217.318000", "184217.321000", "184217.324000", "184217.326000", "184217.329000", "184217.332000", "184217.335000", "184217.338000", "184217.341000", "184217.343000", "184217.346000", "184217.349000", "184217.352000", "184217.355000", "184217.358000", "184217.360000", "184217.363000", "184217.366000", "184217.369000", "184217.372000", "184217.375000", "184217.377000", "184217.380000", "184217.383000", "184217.386000", "184217.389000", "184217.391000", "184257.318000", "184257.321000", "184257.324000", "184257.327000", "184257.330000", "184257.332000", "184257.335000", "184257.338000", "184257.341000", "184257.344000", "184257.347000", "184257.349000", "184257.352000", "184257.355000", "184257.358000", "184257.362000", "184257.365000", "184257.367000", "184257.370000", "184257.373000", "184257.376000", "184257.379000", "184257.382000", "184257.385000", "184257.387000", "184257.390000", "184257.393000", "184337.318000", "184337.321000", "184337.324000", "184337.327000", "184337.330000", "184337.332000", "184337.335000", "184337.338000", "184337.341000", "184337.344000", "184337.347000", "184337.349000", "184337.352000", "184337.355000", "184337.358000", "184337.361000", "184337.363000", "184337.372000", "184337.375000", "184337.378000", "184337.381000", "184337.384000", "184337.387000", "184337.389000", "184337.392000", "184337.395000", "184337.398000", "184417.318000", "184417.321000", "184417.324000", "184417.327000", "184417.330000", "184417.333000", "184417.335000", "184417.338000", "184417.341000", "184417.344000", "184417.347000", "184417.350000", "184417.353000", "184417.356000", "184417.359000", "184417.362000", "184417.364000", "184417.367000", "184417.370000", "184417.373000", "184417.376000", "184417.379000", "184417.382000", "184417.385000", "184417.388000", "184417.391000", "184417.394000", "184457.319000", "184457.322000", "184457.325000", "184457.328000", "184457.331000", "184457.334000", "184457.337000", "184457.340000", "184457.343000", "184457.346000", "184457.349000", "184457.354000", "184457.357000", "184457.360000", "184457.363000", "184457.366000", "184457.370000", "184457.374000", "184457.377000", "184457.380000", "184457.383000", "184457.386000", "184457.389000", "184457.392000", "184457.395000", "184457.398000", "184537.319000", "184537.322000", "184537.325000", "184537.328000", "184537.331000", "184537.333000", "184537.336000", "184537.339000", "184537.342000", "184537.345000", "184537.348000", "184537.351000", "184537.354000", "184537.356000", "184537.359000", "184537.362000", "184537.365000", "184537.368000", "184537.371000", "184537.373000", "184537.376000", "184537.379000", "184537.382000", "184537.385000", "184537.388000", "184537.390000", "184537.393000", "184617.318000", "184617.321000", "184617.324000", "184617.327000", "184617.330000", "184617.333000", "184617.336000", "184617.338000", "184617.341000", "184617.344000", "184617.347000", "184617.350000", "184617.353000", "184617.355000", "184617.358000", "184617.361000", "184617.364000", "184617.367000", "184617.370000", "184617.373000", "184617.377000", "184617.379000", "184617.382000", "184617.385000", "184617.388000", "184617.391000", "184617.394000", "184657.318000", "184657.321000", "184657.324000", "184657.327000", "184657.329000", "184657.332000", "184657.335000", "184657.338000", "184657.341000", "184657.344000", "184657.347000", "184657.350000", "184657.352000", "184657.355000", "184657.358000", "184657.361000", "184657.364000", "184657.367000", "184657.369000", "184657.372000", "184657.375000", "184657.378000", "184657.381000", "184657.384000", "184657.387000", "184657.389000", "184657.392000", "184716.106000", "184716.110000", "184716.112000", "184716.115000", "184716.118000", "184716.132000", "184716.135000", "184716.138000", "184716.141000", "184716.144000", "184716.147000", "184716.150000", "184716.153000"],
