{
  "AcquisitionMatrixPE": 104,
  "AcquisitionNumber": 1,
  "AcquisitionTime": "17:06:6.462500",
  "BandwidthPerPixelPhaseEncode": 17.17,
  "BaseResolution": 104,
  "BodyPartExamined": "BRAIN",
  "CoilCombinationMethod": "Sum of Squares",
  "ConsistencyInfo": "N4_VE11C_LATEST_20160120",
  "ConversionSoftware": "dcm2niix",
  "ConversionSoftwareVersion": "v1.0.20230411",
  "DerivedVendorReportedEchoSpacing": 0.000560011,
  "DeviceSerialNumber": "167006",
  "DwellTime": 2.1e-06,
  "EchoTime": 0.037,
  "EchoTrainLength": 104,
  "EffectiveEchoSpacing": 0.000560011,
  "FlipAngle": 52,
  "HeudiconvVersion": "0.5.3.post861+ge7d3c7f",
  "ImageComments": "Unaliased MB4/PE3/LB",
  "ImageOrientationPatientDICOM": [0.99936, -0.0357318, 0.00160936, 0.0343745, 0.947014, -0.319347],
  "ImageOrientationText": "Tra>Cor(-18.6)>Sag(-0.6)",
  "ImageType": [
    "ORIGINAL",
    "PRIMARY",
    "M",
    "MB",
    "ND",
    "MOSAIC"
],
  "ImagingFrequency": 123.249758,
  "InPlanePhaseEncodingDirectionDICOM": "COL",
  "InstitutionAddress": "Chemin Queen-Mary 4565,Montreal,District,CA,H3W 1W5",
  "InstitutionName": "IUGM",
  "InstitutionalDepartmentName": "Department",
  "MRAcquisitionType": "2D",
  "MagneticFieldStrength": 3,
  "Manufacturer": "Siemens",
  "ManufacturersModelName": "Prisma_fit",
  "MatrixCoilMode": "SENSE",
  "Modality": "MR",
  "MultibandAccelerationFactor": 4,
  "NonlinearGradientCorrection": false,
  "PartialFourier": 1,
  "PatientPosition": "HFS",
  "PercentPhaseFOV": 100,
  "PercentSampling": 100,
  "PhaseEncodingDirection": "j",
  "PhaseEncodingSteps": 104,
  "PhaseResolution": 1,
  "PixelBandwidth": 2290,
  "ProcedureStepDescription": "video^friends",
  "ProtocolName": "func_task-friends-s07e13a",
  "PulseSequenceDetails": "%CustomerSeq%\\cmrr_mbep2d_bold",
  "ReceiveCoilActiveElements": "HC1-7;NC1,2",
  "ReceiveCoilName": "HeadNeck_64",
  "ReconMatrixPE": 104,
  "RepetitionTime": 1.49,
  "SAR": 0.0482944,
  "ScanOptions": "FS",
  "ScanningSequence": "EP",
  "SequenceName": "epfid2d1_104",
  "SequenceVariant": "SK\\SS",
  "SeriesDescription": "func_task-friends-s07e13a",
  "SeriesNumber": 12,
  "ShimSetting": [605, -7290, -8819, 490, 46, -208, -98, 30],
  "SliceThickness": 2,
  "SliceTiming": [0, 0.785, 0.1, 0.8825, 0.1975, 0.98, 0.295, 1.08, 0.3925, 1.1775, 0.49, 1.275, 0.59, 1.3725, 0.6875, 0, 0.785, 0.1, 0.8825, 0.1975, 0.98, 0.295, 1.08, 0.3925, 1.1775, 0.49, 1.275, 0.59, 1.3725, 0.6875, 0, 0.785, 0.1, 0.8825, 0.1975, 0.98, 0.295, 1.08, 0.3925, 1.1775, 0.49, 1.275, 0.59, 1.3725, 0.6875, 0, 0.785, 0.1, 0.8825, 0.1975, 0.98, 0.295, 1.08, 0.3925, 1.1775, 0.49, 1.275, 0.59, 1.3725, 0.6875],
  "SoftwareVersions": "syngo MR E11",
  "SpacingBetweenSlices": 2,
  "StationName": "MRC35049",
  "TaskName": "s07e13a",
  "TotalReadoutTime": 0.0576811,
  "TxRefAmp": 239.582,
  "WipMemBlock": "695093a1-cfc6-4248-b316-38b805c0a930||Sequence: R017 ve11c/master r/75a17815+; Jun 28 2022 16:32:11 by eja",
  "dcmmeta_affine": [
    [-1.9987202882766724, 0.06874899566173553, -0.019773514941334724, 99.77425384521484],
    [0.0714636743068695, 1.8940285444259644, -0.6383954882621765, -79.20675659179688],
    [0.003218724625185132, 0.6386935710906982, 1.8952730894088745, -66.6203842163086],
    [0.0, 0.0, 0.0, 1.0]
],
  "dcmmeta_reorient_transform": [
    [0.0, -1.0, 0.0, 103.0],
    [1.0, 0.0, 0.0, 0.0],
    [0.0, 0.0, 1.0, 0.0],
    [0.0, 0.0, 0.0, 1.0]
],
  "dcmmeta_shape": [104, 104, 60, 539],
  "dcmmeta_slice_dim": 2,
  "dcmmeta_version": 0.6,
  "global": {
    "const": {
      "AcquisitionMatrix": [104, 0, 0, 104],
      "AngioFlag": "N",
      "BitsAllocated": 16,
      "BitsStored": 16,
      "BodyPartExamined": "BRAIN",
      "Columns": 832,
      "EchoNumbers": 1,
      "EchoTime": 37.0,
      "EchoTrainLength": 104,
      "FlipAngle": 52.0,
      "HighBit": 15,
      "ImageOrientationPatient": [0.99936011817681, -0.035731836652, 0.00160936232805, 0.03437449953489, 0.94701427118389, -0.3193467769616],
      "ImagePositionPatient": [-859.41420497883, -779.29179433793, 230.47789030324],
      "ImageType": [
        "ORIGINAL",
        "PRIMARY",
        "M",
        "MB",
        "ND",
        "MOSAIC"
],
      "ImagedNucleus": "1H",
      "ImagingFrequency": 123.249758,
      "InPlanePhaseEncodingDirection": "COL",
      "MRAcquisitionType": "2D",
      "MagneticFieldStrength": 3.0,
      "Manufacturer": "SIEMENS",
      "ManufacturerModelName": "Prisma_fit",
      "Modality": "MR",
      "NumberOfAverages": 1.0,
      "NumberOfPhaseEncodingSteps": 104,
      "PercentPhaseFieldOfView": 100.0,
      "PercentSampling": 100.0,
      "PerformedProcedureStepStartTime": "164734.396000",
      "PhotometricInterpretation": "MONOCHROME2",
      "PixelBandwidth": 2290.0,
      "PixelRepresentation": 0,
      "PixelSpacing": [2.0, 2.0],
      "ProtocolName": "func_task-friends-s07e13a",
      "RepetitionTime": 1490.0,
      "Rows": 832,
      "SAR": 0.04829441388468,
      "SamplesPerPixel": 1,
      "ScanOptions": "FS",
      "ScanningSequence": "EP",
      "SequenceName": "epfid2d1_104",
      "SequenceVariant": [
        "SK",
        "SS"
],
      "SeriesDescription": "func_task-friends-s07e13a",
      "SeriesNumber": 12,
      "SeriesTime": "170730.515000",
      "SliceLocation": -38.835735718909,
      "SliceThickness": 2.0,
      "SmallestImagePixelValue": 0,
      "SoftwareVersions": "syngo MR E11",
      "SpacingBetweenSlices": 1.9999999843272,
      "SpecificCharacterSet": "ISO_IR 100",
      "StudyID": "1",
      "StudyTime": "164734.328000",
      "TransmitCoilName": "Body",
      "VariableFlipAngleFlag": "N",
      "WindowCenterWidthExplanation": "Algo1",
      "dBdt": 0.0},
    "slices": {}
  },
  "time": {
    "samples": {
      "AcquisitionNumber": [1, 2, 3, 4, 5, 6, 7, 8, 9, 10, 11, 12, 13, 14, 15, 16, 17, 18, 19, 20, 21, 22, 23, 24, 25, 26, 27, 28, 29, 30, 31, 32, 33, 34, 35, 36, 37, 38, 39, 40, 41, 42, 43, 44, 45, 46, 47, 48, 49, 50, 51, 52, 53, 54, 55, 56, 57, 58, 59, 60, 61, 62, 63, 64, 65, 66, 67, 68, 69, 70, 71, 72, 73, 74, 75, 76, 77, 78, 79, 80, 81, 82, 83, 84, 85, 86, 87, 88, 89, 90, 91, 92, 93, 94, 95, 96, 97, 98, 99, 100, 101, 102, 103, 104, 105, 106, 107, 108, 109, 110, 111, 112, 113, 114, 115, 116, 117, 118, 119, 120, 121, 122, 123, 124, 125, 126, 127, 128, 129, 130, 131, 132, 133, 134, 135, 136, 137, 138, 139, 140, 141, 142, 143, 144, 145, 146, 147, 148, 149, 150, 151, 152, 153, 154, 155, 156, 157, 158, 159, 160, 161, 162, 163, 164, 165, 166, 167, 168, 169, 170, 171, 172, 173, 174, 175, 176, 177, 178, 179, 180, 181, 182, 183, 184, 185, 186, 187, 188, 189, 190, 191, 192, 193, 194, 195, 196, 197, 198, 199, 200, 201, 202, 203, 204, 205, 206, 207, 208, 209, 210, 211, 212, 213, 214, 215, 216, 217, 218, 219, 220, 221, 222, 223, 224, 225, 226, 227, 228, 229, 230, 231, 232, 233, 234, 235, 236, 237, 238, 239, 240, 241, 242, 243, 244, 245, 246, 247, 248, 249, 250, 251, 252, 253, 254, 255, 256, 257, 258, 259, 260, 261, 262, 263, 264, 265, 266, 267, 268, 269, 270, 271, 272, 273, 274, 275, 276, 277, 278, 279, 280, 281, 282, 283, 284, 285, 286, 287, 288, 289, 290, 291, 292, 293, 294, 295, 296, 297, 298, 299, 300, 301, 302, 303, 304, 305, 306, 307, 308, 309, 310, 311, 312, 313, 314, 315, 316, 317, 318, 319, 320, 321, 322, 323, 324, 325, 326, 327, 328, 329, 330, 331, 332, 333, 334, 335, 336, 337, 338, 339, 340, 341, 342, 343, 344, 345, 346, 347, 348, 349, 350, 351, 352, 353, 354, 355, 356, 357, 358, 359, 360, 361, 362, 363, 364, 365, 366, 367, 368, 369, 370, 371, 372, 373, 374, 375, 376, 377, 378, 379, 380, 381, 382, 383, 384, 385, 386, 387, 388, 389, 390, 391, 392, 393, 394, 395, 396, 397, 398, 399, 400, 401, 402, 403, 404, 405, 406, 407, 408, 409, 410, 411, 412, 413, 414, 415, 416, 417, 418, 419, 420, 421, 422, 423, 424, 425, 426, 427, 428, 429, 430, 431, 432, 433, 434, 435, 436, 437, 438, 439, 440, 441, 442, 443, 444, 445, 446, 447, 448, 449, 450, 451, 452, 453, 454, 455, 456, 457, 458, 459, 460, 461, 462, 463, 464, 465, 466, 467, 468, 469, 470, 471, 472, 473, 474, 475, 476, 477, 478, 479, 480, 481, 482, 483, 484, 485, 486, 487, 488, 489, 490, 491, 492, 493, 494, 495, 496, 497, 498, 499, 500, 501, 502, 503, 504, 505, 506, 507, 508, 509, 510, 511, 512, 513, 514, 515, 516, 517, 518, 519, 520, 521, 522, 523, 524, 525, 526, 527, 528, 529, 530, 531, 532, 533, 534, 535, 536, 537, 538, 539],
      "AcquisitionTime": ["170606.462500", "170607.952500", "170609.442500", "170610.932500", "170612.422500", "170613.912500", "170615.402500", "170616.892500", "170618.382500", "170619.872500", "170621.362500", "170622.852500", "170624.342500", "170625.832500", "170627.322500", "170628.812500", "170630.302500", "170631.792500", "170633.282500", "170634.772500", "170636.262500", "170637.752500", "170639.242500", "170640.732500", "170642.222500", "170643.712500", "170645.202500", "170646.692500", "170648.182500", "170649.672500", "170651.162500", "170652.652500", "170654.142500", "170655.632500", "170657.122500", "170658.612500", "170700.102500", "170701.592500", "170703.082500", "170704.572500", "170706.062500", "170707.552500", "170709.042500", "170710.532500", "170712.022500", "170713.512500", "170715.002500", "170716.492500", "170717.982500", "170719.472500", "170720.962500", "170722.452500", "170723.942500", "170725.432500", "170726.922500", "170728.412500", "170729.902500", "170731.392500", "170732.882500", "170734.372500", "170735.862500", "170737.352500", "170738.842500", "170740.332500", "170741.822500", "170743.312500", "170744.802500", "170746.292500", "170747.782500", "170749.272500", "170750.762500", "170752.252500", "170753.742500", "170755.232500", "170756.722500", "170758.212500", "170759.702500", "170801.192500", "170802.682500", "170804.172500", "170805.662500", "170807.152500", "170808.642500", "170810.132500", "170811.622500", "170813.112500", "170814.602500", "170816.092500", "170817.582500", "170819.072500", "170820.562500", "170822.052500", "170823.542500", "170825.032500", "170826.522500", "170828.012500", "170829.502500", "170830.992500", "170832.482500", "170833.972500", "170835.462500", "170836.952500", "170838.442500", "170839.932500", "170841.422500", "170842.912500", "170844.402500", "170845.892500", "170847.382500", "170848.872500", "170850.362500", "170851.852500", "170853.342500", "170854.832500", "170856.322500", "170857.812500", "170859.302500", "170900.792500", "170902.282500", "170903.772500", "170905.262500", "170906.752500", "170908.242500", "170909.732500", "170911.222500", "170912.712500", "170914.202500", "170915.692500", "170917.182500", "170918.672500", "170920.162500", "170921.652500", "170923.142500", "170924.632500", "170926.122500", "170927.612500", "170929.102500", "170930.592500", "170932.082500", "170933.572500", "170935.062500", "170936.552500", "170938.042500", "170939.532500", "170941.022500", "170942.512500", "170944.002500", "170945.492500", "170946.982500", "170948.472500", "170949.962500", "170951.452500", "170952.942500", "170954.432500", "170955.922500", "170957.412500", "170958.902500", "171000.392500", "171001.882500", "171003.372500", "171004.862500", "171006.352500", "171007.842500", "171009.332500", "171010.822500", "171012.312500", "171013.802500", "171015.292500", "171016.782500", "171018.272500", "171019.762500", "171021.252500", "171022.742500", "171024.232500", "171025.722500", "171027.212500", "171028.702500", "171030.192500", "171031.682500", "171033.172500", "171034.662500", "171036.152500", "171037.642500", "171039.132500", "171040.622500", "171042.112500", "171043.602500", "171045.092500", "171046.582500", "171048.072500", "171049.562500", "171051.052500", "171052.542500", "171054.032500", "171055.522500", "171057.012500", "171058.502500", "171059.992500", "171101.482500", "171102.972500", "171104.462500", "171105.952500", "171107.442500", "171108.932500", "171110.422500", "171111.912500", "171113.402500", "171114.892500", "171116.382500", "171117.872500", "171119.362500", "171120.852500", "171122.342500", "171123.832500", "171125.322500", "171126.812500", "171128.302500", "171129.792500", "171131.282500", "171132.772500", "171134.262500", "171135.752500", "171137.242500", "171138.732500", "171140.222500", "171141.712500", "171143.202500", "171144.692500", "171146.182500", "171147.672500", "171149.162500", "171150.652500", "171152.142500", "171153.632500", "171155.122500", "171156.612500", "171158.102500", "171159.592500", "171201.082500", "171202.572500", "171204.062500", "171205.552500", "171207.042500", "171208.532500", "171210.022500", "171211.512500", "171213.002500", "171214.492500", "171215.982500", "171217.472500", "171218.962500", "171220.452500", "171221.942500", "171223.432500", "171224.922500", "171226.412500", "171227.902500", "171229.392500", "171230.882500", "171232.372500", "171233.862500", "171235.352500", "171236.842500", "171238.332500", "171239.822500", "171241.312500", "171242.802500", "171244.292500", "171245.782500", "171247.272500", "171248.762500", "171250.252500", "171251.742500", "171253.232500", "171254.722500", "171256.212500", "171257.702500", "171259.192500", "171300.682500", "171302.172500", "171303.662500", "171305.152500", "171306.642500", "171308.132500", "171309.622500", "171311.112500", "171312.602500", "171314.092500", "171315.582500", "171317.072500", "171318.562500", "171320.052500", "171321.542500", "171323.032500", "171324.522500", "171326.012500", "171327.502500", "171328.992500", "171330.482500", "171331.972500", "171333.462500", "171334.952500", "171336.442500", "171337.932500", "171339.422500", "171340.912500", "171342.402500", "171343.892500", "171345.382500", "171346.872500", "171348.362500", "171349.852500", "171351.342500", "171352.832500", "171354.322500", "171355.812500", "171357.302500", "171358.792500", "171400.282500", "171401.772500", "171403.262500", "171404.752500", "171406.242500", "171407.732500", "171409.222500", "171410.712500", "171412.202500", "171413.692500", "171415.182500", "171416.672500", "171418.162500", "171419.652500", "171421.142500", "171422.632500", "171424.122500", "171425.612500", "171427.102500", "171428.592500", "171430.082500", "171431.572500", "171433.062500", "171434.552500", "171436.042500", "171437.532500", "171439.022500", "171440.512500", "171442.002500", "171443.492500", "171444.982500", "171446.472500", "171447.962500", "171449.452500", "171450.942500", "171452.432500", "171453.922500", "171455.412500", "171456.902500", "171458.392500", "171459.882500", "171501.372500", "171502.862500", "171504.352500", "171505.842500", "171507.332500", "171508.822500", "171510.312500", "171511.802500", "171513.292500", "171514.782500", "171516.272500", "171517.762500", "171519.252500", "171520.742500", "171522.232500", "171523.722500", "171525.212500", "171526.702500", "171528.192500", "171529.682500", "171531.172500", "171532.662500", "171534.152500", "171535.642500", "171537.132500", "171538.622500", "171540.112500", "171541.602500", "171543.092500", "171544.582500", "171546.072500", "171547.562500", "171549.052500", "171550.542500", "171552.032500", "171553.522500", "171555.012500", "171556.502500", "171557.992500", "171559.482500", "171600.972500", "171602.462500", "171603.952500", "171605.442500", "171606.932500", "171608.422500", "171609.912500", "171611.402500", "171612.892500", "171614.382500", "171615.872500", "171617.362500", "171618.852500", "171620.342500", "171621.832500", "171623.322500", "171624.812500", "171626.302500", "171627.792500", "171629.282500", "171630.772500", "171632.262500", "171633.752500", "171635.242500", "171636.732500", "171638.222500", "171639.712500", "171641.202500", "171642.692500", "171644.182500", "171645.672500", "171647.162500", "171648.652500", "171650.142500", "171651.632500", "171653.122500", "171654.612500", "171656.102500", "171657.592500", "171659.082500", "171700.572500", "171702.062500", "171703.552500", "171705.042500", "171706.532500", "171708.022500", "171709.512500", "171711.002500", "171712.492500", "171713.982500", "171715.472500", "171716.962500", "171718.452500", "171719.942500", "171721.432500", "171722.922500", "171724.412500", "171725.902500", "171727.392500", "171728.882500", "171730.372500", "171731.862500", "171733.352500", "171734.842500", "171736.332500", "171737.822500", "171739.312500", "171740.802500", "171742.292500", "171743.782500", "171745.272500", "171746.762500", "171748.252500", "171749.742500", "171751.232500", "171752.722500", "171754.212500", "171755.702500", "171757.192500", "171758.682500", "171800.172500", "171801.662500", "171803.152500", "171804.642500", "171806.132500", "171807.622500", "171809.112500", "171810.602500", "171812.092500", "171813.582500", "171815.072500", "171816.562500", "171818.052500", "171819.542500", "171821.032500", "171822.522500", "171824.012500", "171825.502500", "171826.992500", "171828.482500", "171829.972500", "171831.462500", "171832.952500", "171834.442500", "171835.932500", "171837.422500", "171838.912500", "171840.402500", "171841.892500", "171843.382500", "171844.872500", "171846.362500", "171847.852500", "171849.342500", "171850.832500", "171852.322500", "171853.812500", "171855.302500", "171856.792500", "171858.282500", "171859.772500", "171901.262500", "171902.752500", "171904.242500", "171905.732500", "171907.222500", "171908.712500", "171910.202500", "171911.692500", "171913.182500", "171914.672500", "171916.162500", "171917.652500", "171919.142500", "171920.632500", "171922.122500", "171923.612500", "171925.102500", "171926.592500", "171928.082500"],
      "ContentTime": ["170730.518000", "170730.521000", "170730.524000", "170730.527000", "170730.530000", "170730.533000", "170730.536000", "170730.539000", "170730.542000", "170730.544000", "170730.547000", "170730.550000", "170730.553000", "170730.556000", "170730.573000", "170730.576000", "170730.579000", "170730.582000", "170730.584000", "170730.587000", "170730.590000", "170730.597000", "170730.600000", "170730.603000", "170730.606000", "170730.609000", "170730.612000", "170730.615000", "170730.618000", "170730.621000", "170730.623000", "170730.626000", "170730.629000", "170730.632000", "170730.635000", "170730.638000", "170730.641000", "170750.484000", "170750.487000", "170750.490000", "170750.493000", "170750.496000", "170750.499000", "170750.502000", "170750.504000", "170750.507000", "170750.510000", "170750.513000", "170750.527000", "170750.530000", "170750.533000", "170750.536000", "170750.539000", "170750.542000", "170750.545000", "170750.548000", "170750.551000", "170810.483000", "170810.486000", "170810.489000", "170810.492000", "170810.495000", "170810.497000", "170810.500000", "170810.503000", "170810.506000", "170810.520000", "170810.523000", "170810.526000", "170810.529000", "170810.532000", "170810.535000", "170810.538000", "170810.541000", "170810.543000", "170810.546000", "170810.549000", "170850.483000", "170850.486000", "170850.489000", "170850.492000", "170850.495000", "170850.498000", "170850.500000", "170850.503000", "170850.506000", "170850.509000", "170850.512000", "170850.515000", "170850.518000", "170850.521000", "170850.524000", "170850.527000", "170850.529000", "170850.532000", "170850.535000", "170850.538000", "170850.541000", "170850.544000", "170850.547000", "170850.550000", "170850.553000", "170850.556000", "170850.558000", "170850.571000", "170850.574000", "170850.577000", "170850.580000", "170850.583000", "170930.483000", "170930.486000", "170930.489000", "170930.492000", "170930.495000", "170930.498000", "170930.500000", "170930.503000", "170930.506000", "170930.509000", "170930.512000", "170930.515000", "170930.518000", "170930.521000", "170930.524000", "170930.527000", "170930.529000", "170930.532000", "170930.535000", "170930.538000", "170930.541000", "170930.544000", "170930.547000", "170930.550000", "170930.553000", "170930.555000", "170930.558000", "171010.484000", "171010.487000", "171010.490000", "171010.493000", "171010.496000", "171010.499000", "171010.502000", "171010.505000", "171010.507000", "171010.510000", "171010.513000", "171010.516000", "171010.519000", "171010.539000", "171010.542000", "171010.545000", "171010.548000", "171010.551000", "171010.554000", "171010.557000", "171010.560000", "171010.563000", "171010.566000", "171010.569000", "171010.572000", "171010.575000", "171010.578000", "171050.483000", "171050.486000", "171050.489000", "171050.492000", "171050.495000", "171050.497000", "171050.500000", "171050.503000", "171050.506000", "171050.509000", "171050.512000", "171050.515000", "171050.518000", "171050.521000", "171050.524000", "171050.527000", "171050.530000", "171050.532000", "171050.535000", "171050.538000", "171050.541000", "171050.544000", "171050.547000", "171050.550000", "171050.553000", "171050.556000", "171050.559000", "171130.483000", "171130.486000", "171130.489000", "171130.492000", "171130.495000", "171130.498000", "171130.500000", "171130.503000", "171130.506000", "171130.509000", "171130.520000", "171130.523000", "171130.526000", "171130.528000", "171130.531000", "171130.534000", "171130.537000", "171130.540000", "171130.543000", "171130.546000", "171130.549000", "171130.552000", "171130.555000", "171130.558000", "171130.560000", "171130.563000", "171130.566000", "171210.484000", "171210.487000", "171210.490000", "171210.493000", "171210.496000", "171210.499000", "171210.502000", "171210.505000", "171210.507000", "171210.510000", "171210.513000", "171210.516000", "171210.519000", "171210.522000", "171210.525000", "171210.528000", "171210.531000", "171210.534000", "171210.537000", "171210.539000", "171210.542000", "171210.545000", "171210.548000", "171210.551000", "171210.554000", "171210.557000", "171210.560000", "171250.483000", "171250.486000", "171250.489000", "171250.492000", "171250.495000", "171250.498000", "171250.501000", "171250.504000", "171250.507000", "171250.510000", "171250.523000", "171250.526000", "171250.529000", "171250.532000", "171250.535000", "171250.538000", "171250.541000", "171250.543000", "171250.546000", "171250.549000", "171250.552000", "171250.555000", "171250.558000", "171250.561000", "171250.564000", "171250.567000", "171330.483000", "171330.486000", "171330.489000", "171330.492000", "171330.495000", "171330.498000", "171330.501000", "171330.504000", "171330.506000", "171330.509000", "171330.512000", "171330.515000", "171330.518000", "171330.521000", "171330.524000", "171330.527000", "171330.530000", "171330.533000", "171330.536000", "171330.539000", "171330.541000", "171330.544000", "171330.547000", "171330.550000", "171330.553000", "171330.556000", "171330.559000", "171410.483000", "171410.486000", "171410.489000", "171410.492000", "171410.495000", "171410.498000", "171410.501000", "171410.504000", "171410.507000", "171410.510000", "171410.513000", "171410.516000", "171410.518000", "171410.521000", "171410.524000", "171410.527000", "171410.530000", "171410.533000", "171410.536000", "171410.539000", "171410.542000", "171410.545000", "171410.548000", "171410.551000", "171410.554000", "171410.560000", "171410.563000", "171450.484000", "171450.487000", "171450.490000", "171450.493000", "171450.496000", "171450.499000", "171450.502000", "171450.505000", "171450.508000", "171450.511000", "171450.513000", "171450.516000", "171450.519000", "171450.522000", "171450.525000", "171450.528000", "171450.531000", "171450.534000", "171450.537000", "171450.540000", "171450.543000", "171450.545000", "171450.548000", "171450.551000", "171450.554000", "171450.557000", "171450.560000", "171530.483000", "171530.486000", "171530.489000", "171530.492000", "171530.495000", "171530.498000", "171530.501000", "171530.504000", "171530.507000", "171530.509000", "171530.512000", "171530.515000", "171530.518000", "171530.521000", "171530.524000", "171530.527000", "171530.530000", "171530.533000", "171530.536000", "171530.539000", "171530.542000", "171530.544000", "171530.547000", "171530.550000", "171530.553000", "171530.556000", "171530.559000", "171610.483000", "171610.486000", "171610.489000", "171610.492000", "171610.495000", "171610.498000", "171610.501000", "171610.504000", "171610.506000", "171610.509000", "171610.512000", "171610.515000", "171610.518000", "171610.521000", "171610.524000", "171610.527000", "171610.530000", "171610.533000", "171610.536000", "171610.538000", "171610.541000", "171610.544000", "171610.547000", "171610.550000", "171610.553000", "171610.556000", "171610.559000", "171650.484000", "171650.487000", "171650.490000", "171650.493000", "171650.496000", "171650.499000", "171650.502000", "171650.505000", "171650.508000", "171650.511000", "171650.514000", "171650.517000", "171650.520000", "171650.523000", "171650.525000", "171650.528000", "171650.531000", "171650.534000", "171650.537000", "171650.540000", "171650.543000", "171650.546000", "171650.549000", "171650.552000", "171650.555000", "171650.558000", "171650.561000", "171730.483000", "171730.486000", "171730.489000", "171730.492000", "171730.495000", "171730.498000", "171730.501000", "171730.504000", "171730.507000", "171730.510000", "171730.524000", "171730.527000", "171730.529000", "171730.532000", "171730.535000", "171730.538000", "171730.541000", "171730.544000", "171730.547000", "171730.550000", "171730.553000", "171730.556000", "171730.559000", "171730.562000", "171730.565000", "171730.568000", "171750.483000", "171750.486000", "171750.489000", "171750.492000", "171750.497000", "171750.500000", "171750.503000", "171750.506000", "171750.509000", "171750.512000", "171750.515000", "171750.518000", "171750.521000", "171750.524000", "171830.483000", "171830.486000", "171830.489000", "171830.492000", "171830.495000", "171830.498000", "171830.501000", "171830.504000", "171830.507000", "171830.510000", "171830.512000", "171830.515000", "171830.518000", "171830.521000", "171830.524000", "171830.527000", "171830.530000", "171830.533000", "171830.536000", "171830.539000", "171830.542000", "171830.545000", "171830.548000", "171830.550000", "171830.554000", "171830.557000", "171830.559000", "171910.484000", "171910.487000", "171910.490000", "171910.493000", "171910.496000", "171910.499000", "171910.502000", "171910.505000", "171910.508000", "171910.511000", "171910.514000", "171910.517000", "171910.520000", "171910.523000", "171910.526000", "171910.530000", "171910.533000", "171910.536000", "171910.539000", "171910.542000", "171910.545000", "171910.548000", "171910.551000", "171910.554000", "171910.557000", "171910.560000", "171929.948000", "171929.951000", "171929.954000", "171929.957000", "171929.960000", "171929.963000", "171929.966000", "171929.969000", "171929.972000", "171929.975000", "171929.978000", "171929.981000", "171929.984000", "171929.987000"],
