{
  "AcquisitionMatrixPE": 104,
  "AcquisitionNumber": 1,
  "AcquisitionTime": "15:45:52.797500",
  "BandwidthPerPixelPhaseEncode": 17.17,
  "BaseResolution": 104,
  "BodyPartExamined": "BRAIN",
  "CoilString": "HC1-7;NC1_2",
  "ConsistencyInfo": "N4_VE11C_LATEST_20160120",
  "ConversionSoftware": "dcm2niix",
  "ConversionSoftwareVersion": "v1.0.20190902",
  "DerivedVendorReportedEchoSpacing": 0.000560011,
  "DeviceSerialNumber": "167006",
  "DwellTime": 2.1e-06,
  "EchoTime": 0.037,
  "EchoTrainLength": 104,
  "EffectiveEchoSpacing": 0.000560011,
  "FlipAngle": 52,
  "ImageComments": "Unaliased_MB4_PE3_LB",
  "ImageOrientationPatientDICOM": [0.998825, -0.0471944, 0.0110423, 0.0481517, 0.940167, -0.337293],
  "ImageType": [
    "ORIGINAL",
    "PRIMARY",
    "M",
    "MB",
    "ND",
    "MOSAIC"
],
  "ImagingFrequency": 123.259,
  "InPlanePhaseEncodingDirectionDICOM": "COL",
  "InstitutionAddress": "Chemin_Queen-Mary_4565_Montreal_District_CA_H3W_1W5",
  "InstitutionName": "IUGM",
  "InstitutionalDepartmentName": "Department",
  "MRAcquisitionType": "2D",
  "MagneticFieldStrength": 3,
  "Manufacturer": "Siemens",
  "ManufacturersModelName": "Prisma_fit",
  "Modality": "MR",
  "MultibandAccelerationFactor": 4,
  "PartialFourier": 1,
  "PatientPosition": "HFS",
  "PercentPhaseFOV": 100,
  "PhaseEncodingDirection": "j",
  "PhaseEncodingSteps": 104,
  "PhaseResolution": 1,
  "PixelBandwidth": 2290,
  "ProcedureStepDescription": "video_friends",
  "ProtocolName": "func_task-friends-s04e22a",
  "PulseSequenceDetails": "%CustomerSeq%_cmrr_mbep2d_bold",
  "ReceiveCoilActiveElements": "HC1-7;NC1,2",
  "ReceiveCoilName": "HeadNeck_64",
  "ReconMatrixPE": 104,
  "RepetitionTime": 1.49,
  "SAR": 0.0310558,
  "ScanOptions": "FS",
  "ScanningSequence": "EP",
  "SequenceName": "epfid2d1_104",
  "SequenceVariant": "SK_SS",
  "SeriesDescription": "func_task-friends-s04e22a",
  "SeriesNumber": 17,
  "ShimSetting": [633, -7257, -8831, 642, 26, -229, -42, -7],
  "SliceThickness": 2,
  "SliceTiming": [0, 0.785, 0.1, 0.8825, 0.1975, 0.98, 0.295, 1.08, 0.3925, 1.1775, 0.49, 1.275, 0.59, 1.3725, 0.6875, 0, 0.785, 0.1, 0.8825, 0.1975, 0.98, 0.295, 1.08, 0.3925, 1.1775, 0.49, 1.275, 0.59, 1.3725, 0.6875, 0, 0.785, 0.1, 0.8825, 0.1975, 0.98, 0.295, 1.08, 0.3925, 1.1775, 0.49, 1.275, 0.59, 1.3725, 0.6875, 0, 0.785, 0.1, 0.8825, 0.1975, 0.98, 0.295, 1.08, 0.3925, 1.1775, 0.49, 1.275, 0.59, 1.3725, 0.6875],
  "SoftwareVersions": "syngo_MR_E11",
  "SpacingBetweenSlices": 2,
  "StationName": "MRC35049",
  "TaskName": "s04e22a",
  "TotalReadoutTime": 0.0576811,
  "TxRefAmp": 219.47,
  "WipMemBlock": "9915f0e5-b826-4b89-9bd2-a0c5abdb214a||Sequence: R016 ve11c/master r/e634e98; Dec 19 2017 11:00:25 by eja",
  "dcmmeta_affine": [
    [-1.9976494312286377, 0.09630345553159714, -0.011073424480855465, 97.38761901855469],
    [0.09438879042863846, 1.880334734916687, -0.6748570799827576, -78.17601013183594],
    [0.022084662690758705, 0.6745864748954773, 1.8826698064804077, -66.79534149169922],
    [0.0, 0.0, 0.0, 1.0]
],
  "dcmmeta_reorient_transform": [
    [0.0, -1.0, 0.0, 103.0],
    [1.0, 0.0, 0.0, 0.0],
    [0.0, 0.0, 1.0, 0.0],
    [0.0, 0.0, 0.0, 1.0]
],
  "dcmmeta_shape": [104, 104, 60, 459],
  "dcmmeta_slice_dim": 2,
  "dcmmeta_version": 0.6,
  "global": {
    "const": {
      "AcquisitionMatrix": [104, 0, 0, 104],
      "AngioFlag": "N",
      "BitsAllocated": 16,
      "BitsStored": 16,
      "BodyPartExamined": "BRAIN",
      "Columns": 832,
      "EchoNumbers": 1,
      "EchoTime": 37.0,
      "EchoTrainLength": 104,
      "FlipAngle": 52.0,
      "HighBit": 15,
      "ImageOrientationPatient": [0.99882468727716, -0.0471943960021, 0.01104233089864, 0.04815172794379, 0.94016736442093, -0.3372932521914],
      "ImagePositionPatient": [-869.5057041011, -765.58278790745, 240.1977378748],
      "ImageType": [
        "ORIGINAL",
        "PRIMARY",
        "M",
        "MB",
        "ND",
        "MOSAIC"
],
      "ImagedNucleus": "1H",
      "ImagingFrequency": 123.259041,
      "InPlanePhaseEncodingDirection": "COL",
      "MRAcquisitionType": "2D",
      "MagneticFieldStrength": 3.0,
      "Manufacturer": "SIEMENS",
      "ManufacturerModelName": "Prisma_fit",
      "Modality": "MR",
      "NumberOfAverages": 1.0,
      "NumberOfPhaseEncodingSteps": 104,
      "PercentPhaseFieldOfView": 100.0,
      "PercentSampling": 100.0,
      "PerformedProcedureStepStartTime": "143708.849000",
      "PhotometricInterpretation": "MONOCHROME2",
      "PixelBandwidth": 2290.0,
      "PixelRepresentation": 0,
      "PixelSpacing": [2.0, 2.0],
      "ProtocolName": "func_task-friends-s04e22a",
      "RepetitionTime": 1490.0,
      "Rows": 832,
      "SAR": 0.03105581997284,
      "SamplesPerPixel": 1,
      "ScanOptions": "FS",
      "ScanningSequence": "EP",
      "SequenceName": "epfid2d1_104",
      "SequenceVariant": [
        "SK",
        "SS"
],
      "SeriesDescription": "func_task-friends-s04e22a",
      "SeriesNumber": 17,
      "SeriesTime": "154719.601000",
      "SliceLocation": -37.037175675507,
      "SliceThickness": 2.0,
      "SmallestImagePixelValue": 0,
      "SoftwareVersions": "syngo MR E11",
      "SpacingBetweenSlices": 2.0000000353,
      "SpecificCharacterSet": "ISO_IR 100",
      "StudyID": "1",
      "StudyTime": "143708.780000",
      "TransmitCoilName": "Body",
      "VariableFlipAngleFlag": "N",
      "WindowCenterWidthExplanation": "Algo1",
      "dBdt": 0.0},
    "slices": {}
  },
  "time": {
    "samples": {
      "AcquisitionNumber": [1, 2, 3, 4, 5, 6, 7, 8, 9, 10, 11, 12, 13, 14, 15, 16, 17, 18, 19, 20, 21, 22, 23, 24, 25, 26, 27, 28, 29, 30, 31, 32, 33, 34, 35, 36, 37, 38, 39, 40, 41, 42, 43, 44, 45, 46, 47, 48, 49, 50, 51, 52, 53, 54, 55, 56, 57, 58, 59, 60, 61, 62, 63, 64, 65, 66, 67, 68, 69, 70, 71, 72, 73, 74, 75, 76, 77, 78, 79, 80, 81, 82, 83, 84, 85, 86, 87, 88, 89, 90, 91, 92, 93, 94, 95, 96, 97, 98, 99, 100, 101, 102, 103, 104, 105, 106, 107, 108, 109, 110, 111, 112, 113, 114, 115, 116, 117, 118, 119, 120, 121, 122, 123, 124, 125, 126, 127, 128, 129, 130, 131, 132, 133, 134, 135, 136, 137, 138, 139, 140, 141, 142, 143, 144, 145, 146, 147, 148, 149, 150, 151, 152, 153, 154, 155, 156, 157, 158, 159, 160, 161, 162, 163, 164, 165, 166, 167, 168, 169, 170, 171, 172, 173, 174, 175, 176, 177, 178, 179, 180, 181, 182, 183, 184, 185, 186, 187, 188, 189, 190, 191, 192, 193, 194, 195, 196, 197, 198, 199, 200, 201, 202, 203, 204, 205, 206, 207, 208, 209, 210, 211, 212, 213, 214, 215, 216, 217, 218, 219, 220, 221, 222, 223, 224, 225, 226, 227, 228, 229, 230, 231, 232, 233, 234, 235, 236, 237, 238, 239, 240, 241, 242, 243, 244, 245, 246, 247, 248, 249, 250, 251, 252, 253, 254, 255, 256, 257, 258, 259, 260, 261, 262, 263, 264, 265, 266, 267, 268, 269, 270, 271, 272, 273, 274, 275, 276, 277, 278, 279, 280, 281, 282, 283, 284, 285, 286, 287, 288, 289, 290, 291, 292, 293, 294, 295, 296, 297, 298, 299, 300, 301, 302, 303, 304, 305, 306, 307, 308, 309, 310, 311, 312, 313, 314, 315, 316, 317, 318, 319, 320, 321, 322, 323, 324, 325, 326, 327, 328, 329, 330, 331, 332, 333, 334, 335, 336, 337, 338, 339, 340, 341, 342, 343, 344, 345, 346, 347, 348, 349, 350, 351, 352, 353, 354, 355, 356, 357, 358, 359, 360, 361, 362, 363, 364, 365, 366, 367, 368, 369, 370, 371, 372, 373, 374, 375, 376, 377, 378, 379, 380, 381, 382, 383, 384, 385, 386, 387, 388, 389, 390, 391, 392, 393, 394, 395, 396, 397, 398, 399, 400, 401, 402, 403, 404, 405, 406, 407, 408, 409, 410, 411, 412, 413, 414, 415, 416, 417, 418, 419, 420, 421, 422, 423, 424, 425, 426, 427, 428, 429, 430, 431, 432, 433, 434, 435, 436, 437, 438, 439, 440, 441, 442, 443, 444, 445, 446, 447, 448, 449, 450, 451, 452, 453, 454, 455, 456, 457, 458, 459],
      "AcquisitionTime": ["154552.797500", "154554.287500", "154555.777500", "154557.267500", "154558.757500", "154600.247500", "154601.737500", "154603.227500", "154604.717500", "154606.207500", "154607.697500", "154609.187500", "154610.677500", "154612.167500", "154613.657500", "154615.147500", "154616.637500", "154618.127500", "154619.617500", "154621.107500", "154622.597500", "154624.087500", "154625.577500", "154627.067500", "154628.557500", "154630.047500", "154631.537500", "154633.027500", "154634.517500", "154636.007500", "154637.497500", "154638.987500", "154640.477500", "154641.967500", "154643.457500", "154644.947500", "154646.437500", "154647.927500", "154649.417500", "154650.907500", "154652.397500", "154653.887500", "154655.377500", "154656.867500", "154658.357500", "154659.847500", "154701.337500", "154702.827500", "154704.317500", "154705.807500", "154707.297500", "154708.787500", "154710.277500", "154711.767500", "154713.257500", "154714.747500", "154716.237500", "154717.727500", "154719.217500", "154720.707500", "154722.197500", "154723.687500", "154725.177500", "154726.667500", "154728.157500", "154729.647500", "154731.137500", "154732.627500", "154734.117500", "154735.607500", "154737.097500", "154738.587500", "154740.077500", "154741.567500", "154743.057500", "154744.547500", "154746.037500", "154747.527500", "154749.017500", "154750.507500", "154751.997500", "154753.487500", "154754.977500", "154756.467500", "154757.957500", "154759.447500", "154800.937500", "154802.427500", "154803.917500", "154805.407500", "154806.897500", "154808.387500", "154809.877500", "154811.367500", "154812.857500", "154814.347500", "154815.837500", "154817.327500", "154818.817500", "154820.307500", "154821.797500", "154823.287500", "154824.777500", "154826.267500", "154827.757500", "154829.247500", "154830.737500", "154832.227500", "154833.717500", "154835.207500", "154836.697500", "154838.187500", "154839.677500", "154841.167500", "154842.657500", "154844.147500", "154845.637500", "154847.127500", "154848.617500", "154850.107500", "154851.597500", "154853.087500", "154854.577500", "154856.067500", "154857.557500", "154859.047500", "154900.537500", "154902.027500", "154903.517500", "154905.007500", "154906.497500", "154907.987500", "154909.477500", "154910.967500", "154912.457500", "154913.947500", "154915.437500", "154916.927500", "154918.417500", "154919.907500", "154921.397500", "154922.887500", "154924.377500", "154925.867500", "154927.357500", "154928.847500", "154930.337500", "154931.827500", "154933.317500", "154934.807500", "154936.297500", "154937.787500", "154939.277500", "154940.767500", "154942.257500", "154943.747500", "154945.237500", "154946.727500", "154948.217500", "154949.707500", "154951.197500", "154952.687500", "154954.177500", "154955.667500", "154957.157500", "154958.647500", "155000.137500", "155001.627500", "155003.117500", "155004.607500", "155006.097500", "155007.587500", "155009.077500", "155010.567500", "155012.057500", "155013.547500", "155015.037500", "155016.527500", "155018.017500", "155019.507500", "155020.997500", "155022.487500", "155023.977500", "155025.467500", "155026.957500", "155028.447500", "155029.937500", "155031.427500", "155032.917500", "155034.407500", "155035.897500", "155037.387500", "155038.877500", "155040.367500", "155041.857500", "155043.347500", "155044.837500", "155046.327500", "155047.817500", "155049.307500", "155050.797500", "155052.287500", "155053.777500", "155055.267500", "155056.757500", "155058.247500", "155059.737500", "155101.227500", "155102.717500", "155104.207500", "155105.697500", "155107.187500", "155108.677500", "155110.167500", "155111.657500", "155113.147500", "155114.637500", "155116.127500", "155117.617500", "155119.107500", "155120.597500", "155122.087500", "155123.577500", "155125.067500", "155126.557500", "155128.047500", "155129.537500", "155131.027500", "155132.517500", "155134.007500", "155135.497500", "155136.987500", "155138.477500", "155139.967500", "155141.457500", "155142.947500", "155144.437500", "155145.927500", "155147.417500", "155148.907500", "155150.397500", "155151.887500", "155153.377500", "155154.867500", "155156.357500", "155157.847500", "155159.337500", "155200.827500", "155202.317500", "155203.807500", "155205.297500", "155206.787500", "155208.277500", "155209.767500", "155211.257500", "155212.747500", "155214.237500", "155215.727500", "155217.217500", "155218.707500", "155220.197500", "155221.687500", "155223.177500", "155224.667500", "155226.157500", "155227.647500", "155229.137500", "155230.627500", "155232.117500", "155233.607500", "155235.097500", "155236.587500", "155238.077500", "155239.567500", "155241.057500", "155242.547500", "155244.037500", "155245.527500", "155247.017500", "155248.507500", "155249.997500", "155251.487500", "155252.977500", "155254.467500", "155255.957500", "155257.447500", "155258.937500", "155300.427500", "155301.917500", "155303.407500", "155304.897500", "155306.387500", "155307.877500", "155309.367500", "155310.857500", "155312.347500", "155313.837500", "155315.327500", "155316.817500", "155318.307500", "155319.797500", "155321.287500", "155322.777500", "155324.267500", "155325.757500", "155327.247500", "155328.737500", "155330.227500", "155331.717500", "155333.207500", "155334.697500", "155336.187500", "155337.677500", "155339.167500", "155340.657500", "155342.147500", "155343.637500", "155345.127500", "155346.617500", "155348.107500", "155349.597500", "155351.087500", "155352.577500", "155354.067500", "155355.557500", "155357.047500", "155358.537500", "155400.027500", "155401.517500", "155403.007500", "155404.497500", "155405.987500", "155407.477500", "155408.967500", "155410.457500", "155411.947500", "155413.437500", "155414.927500", "155416.417500", "155417.907500", "155419.397500", "155420.887500", "155422.377500", "155423.867500", "155425.357500", "155426.847500", "155428.337500", "155429.827500", "155431.317500", "155432.807500", "155434.297500", "155435.787500", "155437.277500", "155438.767500", "155440.257500", "155441.747500", "155443.237500", "155444.727500", "155446.217500", "155447.707500", "155449.197500", "155450.687500", "155452.177500", "155453.667500", "155455.157500", "155456.647500", "155458.137500", "155459.627500", "155501.117500", "155502.607500", "155504.097500", "155505.587500", "155507.077500", "155508.567500", "155510.057500", "155511.547500", "155513.037500", "155514.527500", "155516.017500", "155517.507500", "155518.997500", "155520.487500", "155521.977500", "155523.467500", "155524.957500", "155526.447500", "155527.937500", "155529.427500", "155530.917500", "155532.407500", "155533.897500", "155535.387500", "155536.877500", "155538.367500", "155539.857500", "155541.347500", "155542.837500", "155544.327500", "155545.817500", "155547.307500", "155548.797500", "155550.287500", "155551.777500", "155553.267500", "155554.757500", "155556.247500", "155557.737500", "155559.227500", "155600.717500", "155602.207500", "155603.697500", "155605.187500", "155606.677500", "155608.167500", "155609.657500", "155611.147500", "155612.637500", "155614.127500", "155615.617500", "155617.107500", "155618.597500", "155620.087500", "155621.577500", "155623.067500", "155624.557500", "155626.047500", "155627.537500", "155629.027500", "155630.517500", "155632.007500", "155633.497500", "155634.987500", "155636.477500", "155637.967500", "155639.457500", "155640.947500", "155642.437500", "155643.927500", "155645.417500", "155646.907500", "155648.397500", "155649.887500", "155651.377500", "155652.867500", "155654.357500", "155655.847500", "155657.337500", "155658.827500", "155700.317500", "155701.807500", "155703.297500", "155704.787500", "155706.277500", "155707.767500", "155709.257500", "155710.747500", "155712.237500", "155713.727500", "155715.217500"],
      "ContentTime": ["154719.603000", "154719.606000", "154719.609000", "154719.612000", "154719.629000", "154719.631000", "154719.635000", "154719.637000", "154719.640000", "154719.643000", "154719.646000", "154719.649000", "154719.652000", "154719.655000", "154719.658000", "154719.660000", "154719.663000", "154719.666000", "154719.677000", "154719.680000", "154719.682000", "154719.685000", "154719.688000", "154719.691000", "154719.694000", "154719.697000", "154719.700000", "154719.704000", "154719.707000", "154719.713000", "154719.716000", "154739.566000", "154739.569000", "154739.572000", "154739.584000", "154739.587000", "154739.590000", "154739.593000", "154739.596000", "154739.600000", "154739.603000", "154739.605000", "154739.608000", "154739.611000", "154739.614000", "154739.617000", "154739.620000", "154739.623000", "154739.626000", "154739.629000", "154739.637000", "154759.565000", "154759.568000", "154759.571000", "154759.574000", "154759.577000", "154759.579000", "154759.582000", "154759.585000", "154759.588000", "154759.591000", "154759.593000", "154759.596000", "154759.599000", "154759.602000", "154759.605000", "154759.608000", "154759.611000", "154759.614000", "154759.617000", "154759.619000", "154759.622000", "154819.565000", "154819.568000", "154819.571000", "154819.574000", "154819.577000", "154819.579000", "154819.582000", "154819.585000", "154819.588000", "154819.591000", "154819.594000", "154819.597000", "154819.600000", "154819.602000", "154819.605000", "154819.608000", "154819.611000", "154819.614000", "154819.617000", "154819.620000", "154859.565000", "154859.568000", "154859.571000", "154859.574000", "154859.577000", "154859.580000", "154859.583000", "154859.586000", "154859.589000", "154859.591000", "154859.594000", "154859.597000", "154859.600000", "154859.603000", "154859.606000", "154859.609000", "154859.611000", "154859.614000", "154859.617000", "154859.620000", "154859.623000", "154859.625000", "154859.628000", "154859.631000", "154859.634000", "154859.637000", "154859.639000", "154859.642000", "154859.645000", "154859.648000", "154859.651000", "154859.654000", "154939.565000", "154939.568000", "154939.571000", "154939.574000", "154939.577000", "154939.579000", "154939.582000", "154939.585000", "154939.588000", "154939.591000", "154939.593000", "154939.596000", "154939.599000", "154939.602000", "154939.605000", "154939.608000", "154939.610000", "154939.613000", "154939.616000", "154939.619000", "154939.622000", "154939.625000", "154939.628000", "154939.630000", "154939.633000", "154939.636000", "154939.639000", "155019.565000", "155019.568000", "155019.571000", "155019.573000", "155019.576000", "155019.579000", "155019.582000", "155019.585000", "155019.588000", "155019.590000", "155019.593000", "155019.596000", "155019.599000", "155019.602000", "155019.612000", "155019.614000", "155019.617000", "155019.620000", "155019.623000", "155019.626000", "155019.629000", "155019.632000", "155019.635000", "155019.637000", "155019.640000", "155019.643000", "155019.646000", "155059.565000", "155059.568000", "155059.571000", "155059.573000", "155059.576000", "155059.579000", "155059.582000", "155059.585000", "155059.588000", "155059.591000", "155059.594000", "155059.596000", "155059.599000", "155059.602000", "155059.605000", "155059.608000", "155059.611000", "155059.614000", "155059.617000", "155059.620000", "155059.622000", "155059.625000", "155059.640000", "155059.643000", "155059.646000", "155059.649000", "155059.652000", "155139.565000", "155139.568000", "155139.571000", "155139.573000", "155139.576000", "155139.579000", "155139.582000", "155139.585000", "155139.588000", "155139.591000", "155139.594000", "155139.597000", "155139.599000", "155139.602000", "155139.605000", "155139.608000", "155139.611000", "155139.613000", "155139.621000", "155139.624000", "155139.626000", "155139.629000", "155139.632000", "155139.635000", "155139.638000", "155139.641000", "155139.644000", "155219.566000", "155219.569000", "155219.572000", "155219.575000", "155219.577000", "155219.580000", "155219.583000", "155219.586000", "155219.589000", "155219.592000", "155219.595000", "155219.597000", "155219.600000", "155219.603000", "155219.606000", "155219.609000", "155219.612000", "155219.614000", "155219.617000", "155219.620000", "155219.629000", "155219.631000", "155219.634000", "155219.637000", "155219.640000", "155219.643000", "155219.646000", "155259.565000", "155259.568000", "155259.571000", "155259.574000", "155259.577000", "155259.579000", "155259.582000", "155259.585000", "155259.588000", "155259.591000", "155259.594000", "155259.596000", "155259.599000", "155259.602000", "155259.605000", "155259.608000", "155259.611000", "155259.614000", "155259.617000", "155259.620000", "155259.623000", "155259.626000", "155259.629000", "155259.632000", "155259.634000", "155259.637000", "155339.565000", "155339.568000", "155339.576000", "155339.578000", "155339.581000", "155339.584000", "155339.587000", "155339.590000", "155339.593000", "155339.596000", "155339.599000", "155339.602000", "155339.604000", "155339.607000", "155339.610000", "155339.613000", "155339.616000", "155339.619000", "155339.622000", "155339.624000", "155339.627000", "155339.630000", "155339.633000", "155339.636000", "155339.639000", "155339.641000", "155339.644000", "155419.565000", "155419.568000", "155419.571000", "155419.574000", "155419.577000", "155419.580000", "155419.582000", "155419.585000", "155419.588000", "155419.591000", "155419.594000", "155419.597000", "155419.599000", "155419.606000", "155419.609000", "155419.612000", "155419.615000", "155419.617000", "155419.620000", "155419.623000", "155419.626000", "155419.629000", "155419.631000", "155419.634000", "155419.637000", "155419.640000", "155419.643000", "155439.566000", "155439.569000", "155439.573000", "155439.576000", "155439.579000", "155439.583000", "155439.586000", "155439.588000", "155439.591000", "155439.594000", "155439.597000", "155439.600000", "155439.603000", "155519.565000", "155519.568000", "155519.571000", "155519.574000", "155519.577000", "155519.579000", "155519.582000", "155519.585000", "155519.588000", "155519.591000", "155519.594000", "155519.597000", "155519.600000", "155519.602000", "155519.605000", "155519.608000", "155519.611000", "155519.614000", "155519.616000", "155519.619000", "155519.622000", "155519.625000", "155519.628000", "155519.631000", "155519.634000", "155519.642000", "155519.645000", "155559.565000", "155559.568000", "155559.571000", "155559.574000", "155559.576000", "155559.579000", "155559.582000", "155559.585000", "155559.588000", "155559.591000", "155559.594000", "155559.597000", "155559.599000", "155559.602000", "155559.605000", "155559.608000", "155559.611000", "155559.614000", "155559.616000", "155559.619000", "155559.622000", "155559.625000", "155559.628000", "155559.631000", "155559.645000", "155559.648000", "155559.651000", "155639.565000", "155639.568000", "155639.571000", "155639.574000", "155639.576000", "155639.579000", "155639.582000", "155639.585000", "155639.588000", "155639.591000", "155639.594000", "155639.596000", "155639.599000", "155639.602000", "155639.605000", "155639.608000", "155639.611000", "155639.614000", "155639.616000", "155639.619000", "155639.622000", "155639.625000", "155639.628000", "155639.631000", "155639.634000", "155639.636000", "155639.639000", "155717.571000", "155717.574000", "155717.577000", "155717.580000", "155717.583000", "155717.586000", "155717.589000", "155717.592000", "155717.595000", "155717.598000", "155717.601000", "155717.605000", "155717.608000", "155717.610000", "155717.613000", "155717.616000", "155717.619000", "155717.622000", "155717.625000", "155717.628000", "155717.631000", "155717.634000", "155717.636000", "155717.639000", "155717.642000", "155717.645000"],
