{
  "AcquisitionMatrixPE": 104,
  "AcquisitionNumber": 1,
  "AcquisitionTime": "17:50:8.610000",
  "BandwidthPerPixelPhaseEncode": 17.17,
  "BaseResolution": 104,
  "BodyPartExamined": "BRAIN",
  "CoilString": "HC1-7;NC1_2",
  "ConsistencyInfo": "N4_VE11C_LATEST_20160120",
  "ConversionSoftware": "dcm2niix",
  "ConversionSoftwareVersion": "v1.0.20190902",
  "DerivedVendorReportedEchoSpacing": 0.000560011,
  "DeviceSerialNumber": "167006",
  "DwellTime": 2.1e-06,
  "EchoTime": 0.037,
  "EchoTrainLength": 104,
  "EffectiveEchoSpacing": 0.000560011,
  "FlipAngle": 52,
  "ImageComments": "Unaliased_MB4_PE3_LB",
  "ImageOrientationPatientDICOM": [0.999939, 0.00225761, 0.0108527, 0.000349008, 0.972144, -0.234385],
  "ImageType": [
    "ORIGINAL",
    "PRIMARY",
    "M",
    "MB",
    "ND",
    "MOSAIC"
],
  "ImagingFrequency": 123.259,
  "InPlanePhaseEncodingDirectionDICOM": "COL",
  "InstitutionAddress": "Chemin_Queen-Mary_4565_Montreal_District_CA_H3W_1W5",
  "InstitutionName": "IUGM",
  "InstitutionalDepartmentName": "Department",
  "MRAcquisitionType": "2D",
  "MagneticFieldStrength": 3,
  "Manufacturer": "Siemens",
  "ManufacturersModelName": "Prisma_fit",
  "Modality": "MR",
  "MultibandAccelerationFactor": 4,
  "PartialFourier": 1,
  "PatientPosition": "HFS",
  "PercentPhaseFOV": 100,
  "PhaseEncodingDirection": "j",
  "PhaseEncodingSteps": 104,
  "PhaseResolution": 1,
  "PixelBandwidth": 2290,
  "ProcedureStepDescription": "video_friends",
  "ProtocolName": "func_task-friends-s05e18b",
  "PulseSequenceDetails": "%CustomerSeq%_cmrr_mbep2d_bold",
  "ReceiveCoilActiveElements": "HC1-7;NC1,2",
  "ReceiveCoilName": "HeadNeck_64",
  "ReconMatrixPE": 104,
  "RepetitionTime": 1.49,
  "SAR": 0.0283944,
  "ScanOptions": "FS",
  "ScanningSequence": "EP",
  "SequenceName": "epfid2d1_104",
  "SequenceVariant": "SK_SS",
  "SeriesDescription": "func_task-friends-s05e18b",
  "SeriesNumber": 15,
  "ShimSetting": [644, -7231, -8741, 725, 45, -28, 133, 0],
  "SliceThickness": 2,
  "SliceTiming": [0, 0.7825, 0.0975, 0.88, 0.195, 0.98, 0.2925, 1.0775, 0.39, 1.175, 0.49, 1.2725, 0.5875, 1.37, 0.685, 0, 0.7825, 0.0975, 0.88, 0.195, 0.98, 0.2925, 1.0775, 0.39, 1.175, 0.49, 1.2725, 0.5875, 1.37, 0.685, 0, 0.7825, 0.0975, 0.88, 0.195, 0.98, 0.2925, 1.0775, 0.39, 1.175, 0.49, 1.2725, 0.5875, 1.37, 0.685, 0, 0.7825, 0.0975, 0.88, 0.195, 0.98, 0.2925, 1.0775, 0.39, 1.175, 0.49, 1.2725, 0.5875, 1.37, 0.685],
  "SoftwareVersions": "syngo_MR_E11",
  "SpacingBetweenSlices": 2,
  "StationName": "MRC35049",
  "TaskName": "s05e18b",
  "TotalReadoutTime": 0.0576811,
  "TxRefAmp": 204.197,
  "WipMemBlock": "0b35a75d-54b9-43ae-b689-2653bbc67cce||Sequence: R016 ve11c/master r/e634e98; Dec 19 2017 11:00:25 by eja",
  "dcmmeta_affine": [
    [-1.9998770952224731, 0.0006980161415413022, 0.02215902879834175, 103.92318725585938],
    [-0.0045152222737669945, 1.9442874193191528, -0.468749463558197, -85.07371520996094],
    [0.02170535922050476, 0.46877071261405945, 1.9441663026809692, -45.59455108642578],
    [0.0, 0.0, 0.0, 1.0]
],
  "dcmmeta_reorient_transform": [
    [0.0, -1.0, 0.0, 103.0],
    [1.0, 0.0, 0.0, 0.0],
    [0.0, 0.0, 1.0, 0.0],
    [0.0, 0.0, 0.0, 1.0]
],
  "dcmmeta_shape": [104, 104, 60, 535],
  "dcmmeta_slice_dim": 2,
  "dcmmeta_version": 0.6,
  "global": {
    "const": {
      "AcquisitionMatrix": [104, 0, 0, 104],
      "AngioFlag": "N",
      "BitsAllocated": 16,
      "BitsStored": 16,
      "BodyPartExamined": "BRAIN",
      "Columns": 832,
      "EchoNumbers": 1,
      "EchoTime": 37.0,
      "EchoTrainLength": 104,
      "FlipAngle": 52.0,
      "HighBit": 15,
      "ImageOrientationPatient": [0.999938559383, 0.00225761113352, 0.01085267943987, 0.00034900808192, 0.97214370588139, -0.234385352163],
      "ImagePositionPatient": [-832.20443564123, -824.55204491107, 165.42061665851],
      "ImageType": [
        "ORIGINAL",
        "PRIMARY",
        "M",
        "MB",
        "ND",
        "MOSAIC"
],
      "ImagedNucleus": "1H",
      "ImagingFrequency": 123.258975,
      "InPlanePhaseEncodingDirection": "COL",
      "MRAcquisitionType": "2D",
      "MagneticFieldStrength": 3.0,
      "Manufacturer": "SIEMENS",
      "ManufacturerModelName": "Prisma_fit",
      "Modality": "MR",
      "NumberOfAverages": 1.0,
      "NumberOfPhaseEncodingSteps": 104,
      "PercentPhaseFieldOfView": 100.0,
      "PercentSampling": 100.0,
      "PerformedProcedureStepStartTime": "165755.601000",
      "PhotometricInterpretation": "MONOCHROME2",
      "PixelBandwidth": 2290.0,
      "PixelRepresentation": 0,
      "PixelSpacing": [2.0, 2.0],
      "ProtocolName": "func_task-friends-s05e18b",
      "RepetitionTime": 1490.0,
      "Rows": 832,
      "SAR": 0.02839435040919,
      "SamplesPerPixel": 1,
      "ScanOptions": "FS",
      "ScanningSequence": "EP",
      "SequenceName": "epfid2d1_104",
      "SequenceVariant": [
        "SK",
        "SS"
],
      "SeriesDescription": "func_task-friends-s05e18b",
      "SeriesNumber": 15,
      "SeriesTime": "175133.940000",
      "SliceLocation": -23.231148301439,
      "SliceThickness": 2.0,
      "SmallestImagePixelValue": 0,
      "SoftwareVersions": "syngo MR E11",
      "SpacingBetweenSlices": 1.9999999657122,
      "SpecificCharacterSet": "ISO_IR 100",
      "StudyID": "1",
      "StudyTime": "165755.534000",
      "TransmitCoilName": "Body",
      "VariableFlipAngleFlag": "N",
      "WindowCenterWidthExplanation": "Algo1",
      "dBdt": 0.0},
    "slices": {}
  },
  "time": {
    "samples": {
      "AcquisitionNumber": [1, 2, 3, 4, 5, 6, 7, 8, 9, 10, 11, 12, 13, 14, 15, 16, 17, 18, 19, 20, 21, 22, 23, 24, 25, 26, 27, 28, 29, 30, 31, 32, 33, 34, 35, 36, 37, 38, 39, 40, 41, 42, 43, 44, 45, 46, 47, 48, 49, 50, 51, 52, 53, 54, 55, 56, 57, 58, 59, 60, 61, 62, 63, 64, 65, 66, 67, 68, 69, 70, 71, 72, 73, 74, 75, 76, 77, 78, 79, 80, 81, 82, 83, 84, 85, 86, 87, 88, 89, 90, 91, 92, 93, 94, 95, 96, 97, 98, 99, 100, 101, 102, 103, 104, 105, 106, 107, 108, 109, 110, 111, 112, 113, 114, 115, 116, 117, 118, 119, 120, 121, 122, 123, 124, 125, 126, 127, 128, 129, 130, 131, 132, 133, 134, 135, 136, 137, 138, 139, 140, 141, 142, 143, 144, 145, 146, 147, 148, 149, 150, 151, 152, 153, 154, 155, 156, 157, 158, 159, 160, 161, 162, 163, 164, 165, 166, 167, 168, 169, 170, 171, 172, 173, 174, 175, 176, 177, 178, 179, 180, 181, 182, 183, 184, 185, 186, 187, 188, 189, 190, 191, 192, 193, 194, 195, 196, 197, 198, 199, 200, 201, 202, 203, 204, 205, 206, 207, 208, 209, 210, 211, 212, 213, 214, 215, 216, 217, 218, 219, 220, 221, 222, 223, 224, 225, 226, 227, 228, 229, 230, 231, 232, 233, 234, 235, 236, 237, 238, 239, 240, 241, 242, 243, 244, 245, 246, 247, 248, 249, 250, 251, 252, 253, 254, 255, 256, 257, 258, 259, 260, 261, 262, 263, 264, 265, 266, 267, 268, 269, 270, 271, 272, 273, 274, 275, 276, 277, 278, 279, 280, 281, 282, 283, 284, 285, 286, 287, 288, 289, 290, 291, 292, 293, 294, 295, 296, 297, 298, 299, 300, 301, 302, 303, 304, 305, 306, 307, 308, 309, 310, 311, 312, 313, 314, 315, 316, 317, 318, 319, 320, 321, 322, 323, 324, 325, 326, 327, 328, 329, 330, 331, 332, 333, 334, 335, 336, 337, 338, 339, 340, 341, 342, 343, 344, 345, 346, 347, 348, 349, 350, 351, 352, 353, 354, 355, 356, 357, 358, 359, 360, 361, 362, 363, 364, 365, 366, 367, 368, 369, 370, 371, 372, 373, 374, 375, 376, 377, 378, 379, 380, 381, 382, 383, 384, 385, 386, 387, 388, 389, 390, 391, 392, 393, 394, 395, 396, 397, 398, 399, 400, 401, 402, 403, 404, 405, 406, 407, 408, 409, 410, 411, 412, 413, 414, 415, 416, 417, 418, 419, 420, 421, 422, 423, 424, 425, 426, 427, 428, 429, 430, 431, 432, 433, 434, 435, 436, 437, 438, 439, 440, 441, 442, 443, 444, 445, 446, 447, 448, 449, 450, 451, 452, 453, 454, 455, 456, 457, 458, 459, 460, 461, 462, 463, 464, 465, 466, 467, 468, 469, 470, 471, 472, 473, 474, 475, 476, 477, 478, 479, 480, 481, 482, 483, 484, 485, 486, 487, 488, 489, 490, 491, 492, 493, 494, 495, 496, 497, 498, 499, 500, 501, 502, 503, 504, 505, 506, 507, 508, 509, 510, 511, 512, 513, 514, 515, 516, 517, 518, 519, 520, 521, 522, 523, 524, 525, 526, 527, 528, 529, 530, 531, 532, 533, 534, 535],
      "AcquisitionTime": ["175008.610000", "175010.100000", "175011.590000", "175013.080000", "175014.570000", "175016.060000", "175017.550000", "175019.040000", "175020.530000", "175022.020000", "175023.510000", "175025.000000", "175026.490000", "175027.980000", "175029.470000", "175030.960000", "175032.450000", "175033.940000", "175035.430000", "175036.920000", "175038.410000", "175039.900000", "175041.390000", "175042.880000", "175044.370000", "175045.860000", "175047.350000", "175048.840000", "175050.330000", "175051.820000", "175053.310000", "175054.800000", "175056.290000", "175057.780000", "175059.270000", "175100.760000", "175102.250000", "175103.740000", "175105.230000", "175106.720000", "175108.210000", "175109.700000", "175111.190000", "175112.680000", "175114.170000", "175115.660000", "175117.150000", "175118.640000", "175120.130000", "175121.620000", "175123.110000", "175124.600000", "175126.090000", "175127.580000", "175129.070000", "175130.560000", "175132.050000", "175133.540000", "175135.030000", "175136.520000", "175138.010000", "175139.500000", "175140.990000", "175142.480000", "175143.970000", "175145.460000", "175146.950000", "175148.440000", "175149.930000", "175151.420000", "175152.910000", "175154.400000", "175155.890000", "175157.380000", "175158.870000", "175200.360000", "175201.850000", "175203.340000", "175204.830000", "175206.320000", "175207.810000", "175209.300000", "175210.790000", "175212.280000", "175213.770000", "175215.260000", "175216.750000", "175218.240000", "175219.730000", "175221.220000", "175222.710000", "175224.200000", "175225.690000", "175227.180000", "175228.670000", "175230.160000", "175231.650000", "175233.140000", "175234.630000", "175236.120000", "175237.610000", "175239.100000", "175240.590000", "175242.080000", "175243.570000", "175245.060000", "175246.550000", "175248.040000", "175249.530000", "175251.020000", "175252.510000", "175254.000000", "175255.490000", "175256.980000", "175258.470000", "175259.960000", "175301.450000", "175302.940000", "175304.430000", "175305.920000", "175307.410000", "175308.900000", "175310.390000", "175311.880000", "175313.370000", "175314.860000", "175316.350000", "175317.840000", "175319.330000", "175320.820000", "175322.310000", "175323.800000", "175325.290000", "175326.780000", "175328.270000", "175329.760000", "175331.250000", "175332.740000", "175334.230000", "175335.720000", "175337.210000", "175338.700000", "175340.190000", "175341.680000", "175343.170000", "175344.660000", "175346.150000", "175347.640000", "175349.130000", "175350.620000", "175352.110000", "175353.600000", "175355.090000", "175356.580000", "175358.070000", "175359.560000", "175401.050000", "175402.540000", "175404.030000", "175405.520000", "175407.010000", "175408.500000", "175409.990000", "175411.480000", "175412.970000", "175414.460000", "175415.950000", "175417.440000", "175418.930000", "175420.420000", "175421.910000", "175423.400000", "175424.890000", "175426.380000", "175427.870000", "175429.360000", "175430.850000", "175432.340000", "175433.830000", "175435.320000", "175436.810000", "175438.300000", "175439.790000", "175441.280000", "175442.770000", "175444.260000", "175445.750000", "175447.240000", "175448.730000", "175450.220000", "175451.710000", "175453.200000", "175454.690000", "175456.180000", "175457.670000", "175459.160000", "175500.650000", "175502.140000", "175503.630000", "175505.120000", "175506.610000", "175508.100000", "175509.590000", "175511.080000", "175512.570000", "175514.060000", "175515.550000", "175517.040000", "175518.530000", "175520.020000", "175521.510000", "175523.000000", "175524.490000", "175525.980000", "175527.470000", "175528.960000", "175530.450000", "175531.940000", "175533.430000", "175534.920000", "175536.410000", "175537.900000", "175539.390000", "175540.880000", "175542.370000", "175543.860000", "175545.350000", "175546.840000", "175548.330000", "175549.820000", "175551.310000", "175552.800000", "175554.290000", "175555.780000", "175557.270000", "175558.760000", "175600.250000", "175601.740000", "175603.230000", "175604.720000", "175606.210000", "175607.700000", "175609.190000", "175610.680000", "175612.170000", "175613.660000", "175615.150000", "175616.640000", "175618.130000", "175619.620000", "175621.110000", "175622.600000", "175624.090000", "175625.580000", "175627.070000", "175628.560000", "175630.050000", "175631.540000", "175633.030000", "175634.520000", "175636.010000", "175637.500000", "175638.990000", "175640.480000", "175641.970000", "175643.460000", "175644.950000", "175646.440000", "175647.930000", "175649.420000", "175650.910000", "175652.400000", "175653.890000", "175655.380000", "175656.870000", "175658.360000", "175659.850000", "175701.340000", "175702.830000", "175704.320000", "175705.810000", "175707.300000", "175708.790000", "175710.280000", "175711.770000", "175713.260000", "175714.750000", "175716.240000", "175717.730000", "175719.220000", "175720.710000", "175722.200000", "175723.690000", "175725.180000", "175726.670000", "175728.160000", "175729.650000", "175731.140000", "175732.630000", "175734.120000", "175735.610000", "175737.100000", "175738.590000", "175740.080000", "175741.570000", "175743.060000", "175744.550000", "175746.040000", "175747.530000", "175749.020000", "175750.510000", "175752.000000", "175753.490000", "175754.980000", "175756.470000", "175757.960000", "175759.450000", "175800.940000", "175802.430000", "175803.920000", "175805.410000", "175806.900000", "175808.390000", "175809.880000", "175811.370000", "175812.860000", "175814.350000", "175815.840000", "175817.330000", "175818.820000", "175820.310000", "175821.800000", "175823.290000", "175824.780000", "175826.270000", "175827.760000", "175829.250000", "175830.740000", "175832.230000", "175833.720000", "175835.210000", "175836.700000", "175838.190000", "175839.680000", "175841.170000", "175842.660000", "175844.150000", "175845.640000", "175847.130000", "175848.620000", "175850.110000", "175851.600000", "175853.090000", "175854.580000", "175856.070000", "175857.560000", "175859.050000", "175900.540000", "175902.030000", "175903.520000", "175905.010000", "175906.500000", "175907.990000", "175909.480000", "175910.970000", "175912.460000", "175913.950000", "175915.440000", "175916.930000", "175918.420000", "175919.910000", "175921.400000", "175922.890000", "175924.380000", "175925.870000", "175927.360000", "175928.850000", "175930.340000", "175931.830000", "175933.320000", "175934.810000", "175936.300000", "175937.790000", "175939.280000", "175940.770000", "175942.260000", "175943.750000", "175945.240000", "175946.730000", "175948.220000", "175949.710000", "175951.200000", "175952.690000", "175954.180000", "175955.670000", "175957.160000", "175958.650000", "180000.140000", "180001.630000", "180003.120000", "180004.610000", "180006.100000", "180007.590000", "180009.080000", "180010.570000", "180012.060000", "180013.550000", "180015.040000", "180016.530000", "180018.020000", "180019.510000", "180021.000000", "180022.490000", "180023.980000", "180025.470000", "180026.960000", "180028.450000", "180029.940000", "180031.430000", "180032.920000", "180034.410000", "180035.900000", "180037.390000", "180038.880000", "180040.370000", "180041.860000", "180043.350000", "180044.840000", "180046.330000", "180047.820000", "180049.310000", "180050.800000", "180052.290000", "180053.780000", "180055.270000", "180056.760000", "180058.250000", "180059.740000", "180101.230000", "180102.720000", "180104.210000", "180105.700000", "180107.190000", "180108.680000", "180110.170000", "180111.660000", "180113.150000", "180114.640000", "180116.130000", "180117.620000", "180119.110000", "180120.600000", "180122.090000", "180123.580000", "180125.070000", "180126.560000", "180128.050000", "180129.540000", "180131.030000", "180132.520000", "180134.010000", "180135.500000", "180136.990000", "180138.480000", "180139.970000", "180141.460000", "180142.950000", "180144.440000", "180145.930000", "180147.420000", "180148.910000", "180150.400000", "180151.890000", "180153.380000", "180154.870000", "180156.360000", "180157.850000", "180159.340000", "180200.830000", "180202.320000", "180203.810000", "180205.300000", "180206.790000", "180208.280000", "180209.770000", "180211.260000", "180212.750000", "180214.240000", "180215.730000", "180217.220000", "180218.710000", "180220.200000", "180221.690000", "180223.180000", "180224.670000", "180226.160000", "180227.650000", "180229.140000", "180230.630000", "180232.120000", "180233.610000", "180235.100000", "180236.590000", "180238.080000", "180239.570000", "180241.060000", "180242.550000", "180244.040000", "180245.530000", "180247.020000", "180248.510000", "180250.000000", "180251.490000", "180252.980000", "180254.470000", "180255.960000", "180257.450000", "180258.940000", "180300.430000", "180301.920000", "180303.410000", "180304.900000", "180306.390000", "180307.880000", "180309.370000", "180310.860000", "180312.350000", "180313.840000", "180315.330000", "180316.820000", "180318.310000", "180319.800000", "180321.290000", "180322.780000", "180324.270000"],
      "ContentTime": ["175133.942000", "175133.946000", "175133.949000", "175133.952000", "175133.955000", "175133.957000", "175133.960000", "175133.963000", "175133.966000", "175133.969000", "175133.972000", "175133.975000", "175133.978000", "175133.981000", "175133.987000", "175133.990000", "175133.993000", "175133.996000", "175134.000000", "175134.003000", "175134.005000", "175134.008000", "175134.011000", "175134.014000", "175134.017000", "175134.020000", "175134.023000", "175134.026000", "175134.029000", "175134.032000", "175134.035000", "175134.038000", "175153.910000", "175153.913000", "175153.916000", "175153.919000", "175153.922000", "175153.925000", "175153.928000", "175153.931000", "175153.934000", "175153.936000", "175153.939000", "175153.944000", "175153.947000", "175153.950000", "175153.952000", "175153.956000", "175153.959000", "175153.962000", "175153.965000", "175153.968000", "175213.910000", "175213.913000", "175213.916000", "175213.919000", "175213.922000", "175213.925000", "175213.928000", "175213.930000", "175213.933000", "175213.936000", "175213.939000", "175213.942000", "175213.945000", "175213.948000", "175213.951000", "175213.954000", "175213.957000", "175213.960000", "175213.962000", "175213.965000", "175213.968000", "175233.910000", "175233.913000", "175233.923000", "175233.926000", "175233.929000", "175233.932000", "175233.935000", "175233.938000", "175233.941000", "175233.943000", "175233.946000", "175233.949000", "175233.952000", "175233.955000", "175233.958000", "175233.961000", "175233.964000", "175233.967000", "175233.969000", "175233.972000", "175313.910000", "175313.913000", "175313.917000", "175313.920000", "175313.923000", "175313.926000", "175313.929000", "175313.932000", "175313.934000", "175313.937000", "175313.940000", "175313.943000", "175313.946000", "175313.949000", "175313.952000", "175313.955000", "175313.974000", "175313.977000", "175313.980000", "175313.983000", "175313.985000", "175313.988000", "175313.991000", "175313.994000", "175313.997000", "175314.000000", "175314.003000", "175314.006000", "175314.009000", "175314.012000", "175353.910000", "175353.913000", "175353.916000", "175353.919000", "175353.936000", "175353.939000", "175353.942000", "175353.945000", "175353.948000", "175353.951000", "175353.954000", "175353.957000", "175353.960000", "175353.963000", "175353.966000", "175353.969000", "175353.972000", "175353.975000", "175353.978000", "175353.980000", "175353.983000", "175353.986000", "175353.989000", "175353.992000", "175353.995000", "175353.998000", "175354.002000", "175433.910000", "175433.913000", "175433.916000", "175433.919000", "175433.927000", "175433.929000", "175433.932000", "175433.935000", "175433.938000", "175433.941000", "175433.944000", "175433.947000", "175433.950000", "175433.953000", "175433.956000", "175433.959000", "175433.962000", "175433.965000", "175433.968000", "175433.971000", "175433.973000", "175433.976000", "175433.979000", "175433.982000", "175433.985000", "175433.988000", "175433.991000", "175513.910000", "175513.913000", "175513.916000", "175513.919000", "175513.922000", "175513.925000", "175513.928000", "175513.931000", "175513.934000", "175513.937000", "175513.940000", "175513.943000", "175513.946000", "175513.949000", "175513.951000", "175513.954000", "175513.957000", "175513.960000", "175513.963000", "175513.966000", "175513.969000", "175513.972000", "175513.975000", "175513.978000", "175513.981000", "175513.984000", "175513.987000", "175553.910000", "175553.913000", "175553.916000", "175553.919000", "175553.922000", "175553.925000", "175553.928000", "175553.931000", "175553.934000", "175553.937000", "175553.939000", "175553.942000", "175553.945000", "175553.948000", "175553.951000", "175553.954000", "175553.957000", "175553.960000", "175553.963000", "175553.966000", "175553.968000", "175553.971000", "175553.974000", "175553.977000", "175553.980000", "175553.983000", "175553.986000", "175633.910000", "175633.913000", "175633.916000", "175633.919000", "175633.922000", "175633.925000", "175633.928000", "175633.931000", "175633.934000", "175633.937000", "175633.940000", "175633.943000", "175633.946000", "175633.949000", "175633.952000", "175633.955000", "175633.958000", "175633.960000", "175633.963000", "175633.966000", "175633.969000", "175633.972000", "175633.975000", "175633.989000", "175633.992000", "175633.995000", "175633.998000", "175653.910000", "175653.913000", "175653.916000", "175653.919000", "175653.922000", "175653.925000", "175653.928000", "175653.931000", "175653.934000", "175653.937000", "175653.940000", "175653.943000", "175653.946000", "175733.910000", "175733.913000", "175733.916000", "175733.919000", "175733.922000", "175733.925000", "175733.928000", "175733.931000", "175733.934000", "175733.937000", "175733.940000", "175733.943000", "175733.946000", "175733.949000", "175733.952000", "175733.955000", "175733.958000", "175733.960000", "175733.963000", "175733.966000", "175733.969000", "175733.972000", "175733.975000", "175733.978000", "175733.981000", "175733.984000", "175733.987000", "175813.910000", "175813.913000", "175813.916000", "175813.919000", "175813.922000", "175813.925000", "175813.928000", "175813.931000", "175813.934000", "175813.937000", "175813.940000", "175813.943000", "175813.946000", "175813.949000", "175813.952000", "175813.955000", "175813.958000", "175813.961000", "175813.964000", "175813.967000", "175813.970000", "175813.973000", "175813.976000", "175813.979000", "175813.982000", "175813.985000", "175813.988000", "175853.910000", "175853.913000", "175853.916000", "175853.919000", "175853.922000", "175853.925000", "175853.928000", "175853.931000", "175853.934000", "175853.938000", "175853.941000", "175853.944000", "175853.947000", "175853.950000", "175853.953000", "175853.956000", "175853.959000", "175853.962000", "175853.965000", "175853.968000", "175853.970000", "175853.973000", "175853.976000", "175853.979000", "175853.982000", "175853.985000", "175933.910000", "175933.913000", "175933.916000", "175933.919000", "175933.922000", "175933.925000", "175933.928000", "175933.931000", "175933.934000", "175933.936000", "175933.952000", "175933.955000", "175933.958000", "175933.961000", "175933.964000", "175933.967000", "175933.970000", "175933.973000", "175933.976000", "175933.979000", "175933.981000", "175933.984000", "175933.987000", "175933.990000", "175933.993000", "175933.996000", "175933.999000", "180013.910000", "180013.913000", "180013.916000", "180013.919000", "180013.922000", "180013.925000", "180013.928000", "180013.931000", "180013.934000", "180013.937000", "180013.948000", "180013.951000", "180013.954000", "180013.957000", "180013.960000", "180013.963000", "180013.966000", "180013.969000", "180013.972000", "180013.975000", "180013.977000", "180013.980000", "180013.983000", "180013.986000", "180013.989000", "180013.992000", "180013.995000", "180053.910000", "180053.913000", "180053.916000", "180053.919000", "180053.922000", "180053.925000", "180053.928000", "180053.931000", "180053.934000", "180053.937000", "180053.940000", "180053.943000", "180053.946000", "180053.949000", "180053.952000", "180053.954000", "180053.957000", "180053.960000", "180053.963000", "180053.966000", "180053.969000", "180053.972000", "180053.975000", "180053.978000", "180053.981000", "180053.984000", "180053.987000", "180133.910000", "180133.913000", "180133.916000", "180133.919000", "180133.922000", "180133.925000", "180133.928000", "180133.931000", "180133.934000", "180133.937000", "180133.940000", "180133.943000", "180133.946000", "180133.949000", "180133.952000", "180133.955000", "180133.958000", "180133.961000", "180133.964000", "180133.966000", "180133.969000", "180133.972000", "180133.975000", "180133.978000", "180133.981000", "180133.984000", "180133.987000", "180213.910000", "180213.913000", "180213.916000", "180213.919000", "180213.922000", "180213.925000", "180213.928000", "180213.931000", "180213.934000", "180213.937000", "180213.940000", "180213.943000", "180213.946000", "180213.949000", "180213.952000", "180213.954000", "180213.957000", "180213.960000", "180213.963000", "180213.966000", "180213.969000", "180213.972000", "180213.975000", "180213.978000", "180213.981000", "180213.984000", "180213.987000", "180253.910000", "180253.913000", "180253.916000", "180253.919000", "180253.922000", "180253.925000", "180253.928000", "180253.931000", "180253.934000", "180253.937000", "180253.940000", "180253.942000", "180253.945000", "180253.948000", "180253.951000", "180253.954000", "180253.957000", "180253.960000", "180253.963000", "180253.966000", "180253.969000", "180253.972000", "180253.975000", "180253.978000", "180253.981000", "180253.984000", "180253.987000", "180326.663000", "180326.666000", "180326.669000", "180326.672000", "180326.675000", "180326.678000", "180326.681000", "180326.684000", "180326.687000", "180326.690000", "180326.693000", "180326.696000", "180326.699000", "180326.702000", "180326.705000", "180326.708000", "180326.711000", "180326.714000", "180326.717000", "180326.720000", "180326.723000", "180326.726000"],
