{
  "AcquisitionMatrixPE": 104,
  "AcquisitionNumber": 1,
  "AcquisitionTime": "17:37:17.405000",
  "BandwidthPerPixelPhaseEncode": 17.17,
  "BaseResolution": 104,
  "BodyPartExamined": "BRAIN",
  "CoilString": "HC1-7;NC1_2",
  "ConsistencyInfo": "N4_VE11C_LATEST_20160120",
  "ConversionSoftware": "dcm2niix",
  "ConversionSoftwareVersion": "v1.0.20190902",
  "DerivedVendorReportedEchoSpacing": 0.000560011,
  "DeviceSerialNumber": "167006",
  "DwellTime": 2.1e-06,
  "EchoTime": 0.037,
  "EchoTrainLength": 104,
  "EffectiveEchoSpacing": 0.000560011,
  "FlipAngle": 52,
  "ImageComments": "Unaliased_MB4_PE3_LB",
  "ImageOrientationPatientDICOM": [0.999939, 0.00225761, 0.0108527, 0.000349008, 0.972144, -0.234385],
  "ImageType": [
    "ORIGINAL",
    "PRIMARY",
    "M",
    "MB",
    "ND",
    "MOSAIC"
],
  "ImagingFrequency": 123.259,
  "InPlanePhaseEncodingDirectionDICOM": "COL",
  "InstitutionAddress": "Chemin_Queen-Mary_4565_Montreal_District_CA_H3W_1W5",
  "InstitutionName": "IUGM",
  "InstitutionalDepartmentName": "Department",
  "MRAcquisitionType": "2D",
  "MagneticFieldStrength": 3,
  "Manufacturer": "Siemens",
  "ManufacturersModelName": "Prisma_fit",
  "Modality": "MR",
  "MultibandAccelerationFactor": 4,
  "PartialFourier": 1,
  "PatientPosition": "HFS",
  "PercentPhaseFOV": 100,
  "PhaseEncodingDirection": "j",
  "PhaseEncodingSteps": 104,
  "PhaseResolution": 1,
  "PixelBandwidth": 2290,
  "ProcedureStepDescription": "video_friends",
  "ProtocolName": "func_task-friends-s05e18a",
  "PulseSequenceDetails": "%CustomerSeq%_cmrr_mbep2d_bold",
  "ReceiveCoilActiveElements": "HC1-7;NC1,2",
  "ReceiveCoilName": "HeadNeck_64",
  "ReconMatrixPE": 104,
  "RepetitionTime": 1.49,
  "SAR": 0.0283872,
  "ScanOptions": "FS",
  "ScanningSequence": "EP",
  "SequenceName": "epfid2d1_104",
  "SequenceVariant": "SK_SS",
  "SeriesDescription": "func_task-friends-s05e18a",
  "SeriesNumber": 13,
  "ShimSetting": [644, -7231, -8741, 725, 45, -28, 133, 0],
  "SliceThickness": 2,
  "SliceTiming": [0, 0.7825, 0.0975, 0.88, 0.195, 0.98, 0.2925, 1.0775, 0.39, 1.175, 0.49, 1.2725, 0.5875, 1.37, 0.685, 0, 0.7825, 0.0975, 0.88, 0.195, 0.98, 0.2925, 1.0775, 0.39, 1.175, 0.49, 1.2725, 0.5875, 1.37, 0.685, 0, 0.7825, 0.0975, 0.88, 0.195, 0.98, 0.2925, 1.0775, 0.39, 1.175, 0.49, 1.2725, 0.5875, 1.37, 0.685, 0, 0.7825, 0.0975, 0.88, 0.195, 0.98, 0.2925, 1.0775, 0.39, 1.175, 0.49, 1.2725, 0.5875, 1.37, 0.685],
  "SoftwareVersions": "syngo_MR_E11",
  "SpacingBetweenSlices": 2,
  "StationName": "MRC35049",
  "TaskName": "s05e18a",
  "TotalReadoutTime": 0.0576811,
  "TxRefAmp": 204.197,
  "WipMemBlock": "00e19240-a31d-48b2-ba0c-e160496f076f||Sequence: R016 ve11c/master r/e634e98; Dec 19 2017 11:00:25 by eja",
  "dcmmeta_affine": [
    [-1.9998770952224731, 0.0006980161415413022, 0.02215902879834175, 103.92318725585938],
    [-0.0045152222737669945, 1.9442874193191528, -0.468749463558197, -85.07371520996094],
    [0.02170535922050476, 0.46877071261405945, 1.9441663026809692, -45.59455108642578],
    [0.0, 0.0, 0.0, 1.0]
],
  "dcmmeta_reorient_transform": [
    [0.0, -1.0, 0.0, 103.0],
    [1.0, 0.0, 0.0, 0.0],
    [0.0, 0.0, 1.0, 0.0],
    [0.0, 0.0, 0.0, 1.0]
],
  "dcmmeta_shape": [104, 104, 60, 501],
  "dcmmeta_slice_dim": 2,
  "dcmmeta_version": 0.6,
  "global": {
    "const": {
      "AcquisitionMatrix": [104, 0, 0, 104],
      "AngioFlag": "N",
      "BitsAllocated": 16,
      "BitsStored": 16,
      "BodyPartExamined": "BRAIN",
      "Columns": 832,
      "EchoNumbers": 1,
      "EchoTime": 37.0,
      "EchoTrainLength": 104,
      "FlipAngle": 52.0,
      "HighBit": 15,
      "ImageOrientationPatient": [0.999938559383, 0.00225761113352, 0.01085267943987, 0.00034900808192, 0.97214370588139, -0.234385352163],
      "ImagePositionPatient": [-832.20443564123, -824.55204491107, 165.42061665851],
      "ImageType": [
        "ORIGINAL",
        "PRIMARY",
        "M",
        "MB",
        "ND",
        "MOSAIC"
],
      "ImagedNucleus": "1H",
      "ImagingFrequency": 123.25897,
      "InPlanePhaseEncodingDirection": "COL",
      "MRAcquisitionType": "2D",
      "MagneticFieldStrength": 3.0,
      "Manufacturer": "SIEMENS",
      "ManufacturerModelName": "Prisma_fit",
      "Modality": "MR",
      "NumberOfAverages": 1.0,
      "NumberOfPhaseEncodingSteps": 104,
      "PercentPhaseFieldOfView": 100.0,
      "PercentSampling": 100.0,
      "PerformedProcedureStepStartTime": "165755.601000",
      "PhotometricInterpretation": "MONOCHROME2",
      "PixelBandwidth": 2290.0,
      "PixelRepresentation": 0,
      "PixelSpacing": [2.0, 2.0],
      "ProtocolName": "func_task-friends-s05e18a",
      "RepetitionTime": 1490.0,
      "Rows": 832,
      "SAR": 0.02838721733579,
      "SamplesPerPixel": 1,
      "ScanOptions": "FS",
      "ScanningSequence": "EP",
      "SequenceName": "epfid2d1_104",
      "SequenceVariant": [
        "SK",
        "SS"
],
      "SeriesDescription": "func_task-friends-s05e18a",
      "SeriesNumber": 13,
      "SeriesTime": "173843.687000",
      "SliceLocation": -23.231148301439,
      "SliceThickness": 2.0,
      "SmallestImagePixelValue": 0,
      "SoftwareVersions": "syngo MR E11",
      "SpacingBetweenSlices": 1.9999999657122,
      "SpecificCharacterSet": "ISO_IR 100",
      "StudyID": "1",
      "StudyTime": "165755.534000",
      "TransmitCoilName": "Body",
      "VariableFlipAngleFlag": "N",
      "WindowCenterWidthExplanation": "Algo1",
      "dBdt": 0.0},
    "slices": {}
  },
  "time": {
    "samples": {
      "AcquisitionNumber": [1, 2, 3, 4, 5, 6, 7, 8, 9, 10, 11, 12, 13, 14, 15, 16, 17, 18, 19, 20, 21, 22, 23, 24, 25, 26, 27, 28, 29, 30, 31, 32, 33, 34, 35, 36, 37, 38, 39, 40, 41, 42, 43, 44, 45, 46, 47, 48, 49, 50, 51, 52, 53, 54, 55, 56, 57, 58, 59, 60, 61, 62, 63, 64, 65, 66, 67, 68, 69, 70, 71, 72, 73, 74, 75, 76, 77, 78, 79, 80, 81, 82, 83, 84, 85, 86, 87, 88, 89, 90, 91, 92, 93, 94, 95, 96, 97, 98, 99, 100, 101, 102, 103, 104, 105, 106, 107, 108, 109, 110, 111, 112, 113, 114, 115, 116, 117, 118, 119, 120, 121, 122, 123, 124, 125, 126, 127, 128, 129, 130, 131, 132, 133, 134, 135, 136, 137, 138, 139, 140, 141, 142, 143, 144, 145, 146, 147, 148, 149, 150, 151, 152, 153, 154, 155, 156, 157, 158, 159, 160, 161, 162, 163, 164, 165, 166, 167, 168, 169, 170, 171, 172, 173, 174, 175, 176, 177, 178, 179, 180, 181, 182, 183, 184, 185, 186, 187, 188, 189, 190, 191, 192, 193, 194, 195, 196, 197, 198, 199, 200, 201, 202, 203, 204, 205, 206, 207, 208, 209, 210, 211, 212, 213, 214, 215, 216, 217, 218, 219, 220, 221, 222, 223, 224, 225, 226, 227, 228, 229, 230, 231, 232, 233, 234, 235, 236, 237, 238, 239, 240, 241, 242, 243, 244, 245, 246, 247, 248, 249, 250, 251, 252, 253, 254, 255, 256, 257, 258, 259, 260, 261, 262, 263, 264, 265, 266, 267, 268, 269, 270, 271, 272, 273, 274, 275, 276, 277, 278, 279, 280, 281, 282, 283, 284, 285, 286, 287, 288, 289, 290, 291, 292, 293, 294, 295, 296, 297, 298, 299, 300, 301, 302, 303, 304, 305, 306, 307, 308, 309, 310, 311, 312, 313, 314, 315, 316, 317, 318, 319, 320, 321, 322, 323, 324, 325, 326, 327, 328, 329, 330, 331, 332, 333, 334, 335, 336, 337, 338, 339, 340, 341, 342, 343, 344, 345, 346, 347, 348, 349, 350, 351, 352, 353, 354, 355, 356, 357, 358, 359, 360, 361, 362, 363, 364, 365, 366, 367, 368, 369, 370, 371, 372, 373, 374, 375, 376, 377, 378, 379, 380, 381, 382, 383, 384, 385, 386, 387, 388, 389, 390, 391, 392, 393, 394, 395, 396, 397, 398, 399, 400, 401, 402, 403, 404, 405, 406, 407, 408, 409, 410, 411, 412, 413, 414, 415, 416, 417, 418, 419, 420, 421, 422, 423, 424, 425, 426, 427, 428, 429, 430, 431, 432, 433, 434, 435, 436, 437, 438, 439, 440, 441, 442, 443, 444, 445, 446, 447, 448, 449, 450, 451, 452, 453, 454, 455, 456, 457, 458, 459, 460, 461, 462, 463, 464, 465, 466, 467, 468, 469, 470, 471, 472, 473, 474, 475, 476, 477, 478, 479, 480, 481, 482, 483, 484, 485, 486, 487, 488, 489, 490, 491, 492, 493, 494, 495, 496, 497, 498, 499, 500, 501],
      "AcquisitionTime": ["173717.405000", "173718.895000", "173720.385000", "173721.875000", "173723.365000", "173724.855000", "173726.345000", "173727.835000", "173729.325000", "173730.815000", "173732.305000", "173733.795000", "173735.285000", "173736.775000", "173738.265000", "173739.755000", "173741.245000", "173742.735000", "173744.225000", "173745.715000", "173747.205000", "173748.695000", "173750.185000", "173751.675000", "173753.165000", "173754.655000", "173756.145000", "173757.635000", "173759.125000", "173800.615000", "173802.105000", "173803.595000", "173805.085000", "173806.575000", "173808.065000", "173809.555000", "173811.045000", "173812.535000", "173814.025000", "173815.515000", "173817.005000", "173818.495000", "173819.985000", "173821.475000", "173822.965000", "173824.455000", "173825.945000", "173827.435000", "173828.925000", "173830.415000", "173831.905000", "173833.395000", "173834.885000", "173836.375000", "173837.865000", "173839.355000", "173840.845000", "173842.335000", "173843.825000", "173845.315000", "173846.805000", "173848.295000", "173849.785000", "173851.275000", "173852.765000", "173854.255000", "173855.745000", "173857.235000", "173858.725000", "173900.215000", "173901.705000", "173903.195000", "173904.685000", "173906.175000", "173907.665000", "173909.155000", "173910.645000", "173912.135000", "173913.625000", "173915.115000", "173916.605000", "173918.095000", "173919.585000", "173921.075000", "173922.565000", "173924.055000", "173925.545000", "173927.035000", "173928.525000", "173930.015000", "173931.505000", "173932.995000", "173934.485000", "173935.975000", "173937.465000", "173938.955000", "173940.445000", "173941.935000", "173943.425000", "173944.915000", "173946.405000", "173947.895000", "173949.385000", "173950.875000", "173952.365000", "173953.855000", "173955.345000", "173956.835000", "173958.325000", "173959.815000", "174001.305000", "174002.795000", "174004.285000", "174005.775000", "174007.265000", "174008.755000", "174010.245000", "174011.735000", "174013.225000", "174014.715000", "174016.205000", "174017.695000", "174019.185000", "174020.675000", "174022.165000", "174023.655000", "174025.145000", "174026.635000", "174028.125000", "174029.615000", "174031.105000", "174032.595000", "174034.085000", "174035.575000", "174037.065000", "174038.555000", "174040.045000", "174041.535000", "174043.025000", "174044.515000", "174046.005000", "174047.495000", "174048.985000", "174050.475000", "174051.965000", "174053.455000", "174054.945000", "174056.435000", "174057.925000", "174059.415000", "174100.905000", "174102.395000", "174103.885000", "174105.375000", "174106.865000", "174108.355000", "174109.845000", "174111.335000", "174112.825000", "174114.315000", "174115.805000", "174117.295000", "174118.785000", "174120.275000", "174121.765000", "174123.255000", "174124.745000", "174126.235000", "174127.725000", "174129.215000", "174130.705000", "174132.195000", "174133.685000", "174135.175000", "174136.665000", "174138.155000", "174139.645000", "174141.135000", "174142.625000", "174144.115000", "174145.605000", "174147.095000", "174148.585000", "174150.075000", "174151.565000", "174153.055000", "174154.545000", "174156.035000", "174157.525000", "174159.015000", "174200.505000", "174201.995000", "174203.485000", "174204.975000", "174206.465000", "174207.955000", "174209.445000", "174210.935000", "174212.425000", "174213.915000", "174215.405000", "174216.895000", "174218.385000", "174219.875000", "174221.365000", "174222.855000", "174224.345000", "174225.835000", "174227.325000", "174228.815000", "174230.305000", "174231.795000", "174233.285000", "174234.775000", "174236.265000", "174237.755000", "174239.245000", "174240.735000", "174242.225000", "174243.715000", "174245.205000", "174246.695000", "174248.185000", "174249.675000", "174251.165000", "174252.655000", "174254.145000", "174255.635000", "174257.125000", "174258.615000", "174300.105000", "174301.595000", "174303.085000", "174304.575000", "174306.065000", "174307.555000", "174309.045000", "174310.535000", "174312.025000", "174313.515000", "174315.005000", "174316.495000", "174317.985000", "174319.475000", "174320.965000", "174322.455000", "174323.945000", "174325.435000", "174326.925000", "174328.415000", "174329.905000", "174331.395000", "174332.885000", "174334.375000", "174335.865000", "174337.355000", "174338.845000", "174340.335000", "174341.825000", "174343.315000", "174344.805000", "174346.295000", "174347.785000", "174349.275000", "174350.765000", "174352.255000", "174353.745000", "174355.235000", "174356.725000", "174358.215000", "174359.705000", "174401.195000", "174402.685000", "174404.175000", "174405.665000", "174407.155000", "174408.645000", "174410.135000", "174411.625000", "174413.115000", "174414.605000", "174416.095000", "174417.585000", "174419.075000", "174420.565000", "174422.055000", "174423.545000", "174425.035000", "174426.525000", "174428.015000", "174429.505000", "174430.995000", "174432.485000", "174433.975000", "174435.465000", "174436.955000", "174438.445000", "174439.935000", "174441.425000", "174442.915000", "174444.405000", "174445.895000", "174447.385000", "174448.875000", "174450.365000", "174451.855000", "174453.345000", "174454.835000", "174456.325000", "174457.815000", "174459.305000", "174500.795000", "174502.285000", "174503.775000", "174505.265000", "174506.755000", "174508.245000", "174509.735000", "174511.225000", "174512.715000", "174514.205000", "174515.695000", "174517.185000", "174518.675000", "174520.165000", "174521.655000", "174523.145000", "174524.635000", "174526.125000", "174527.615000", "174529.105000", "174530.595000", "174532.085000", "174533.575000", "174535.065000", "174536.555000", "174538.045000", "174539.535000", "174541.025000", "174542.515000", "174544.005000", "174545.495000", "174546.985000", "174548.475000", "174549.965000", "174551.455000", "174552.945000", "174554.435000", "174555.925000", "174557.415000", "174558.905000", "174600.395000", "174601.885000", "174603.375000", "174604.865000", "174606.355000", "174607.845000", "174609.335000", "174610.825000", "174612.315000", "174613.805000", "174615.295000", "174616.785000", "174618.275000", "174619.765000", "174621.255000", "174622.745000", "174624.235000", "174625.725000", "174627.215000", "174628.705000", "174630.195000", "174631.685000", "174633.175000", "174634.665000", "174636.155000", "174637.645000", "174639.135000", "174640.625000", "174642.115000", "174643.605000", "174645.095000", "174646.585000", "174648.075000", "174649.565000", "174651.055000", "174652.545000", "174654.035000", "174655.525000", "174657.015000", "174658.505000", "174659.995000", "174701.485000", "174702.975000", "174704.465000", "174705.955000", "174707.445000", "174708.935000", "174710.425000", "174711.915000", "174713.405000", "174714.895000", "174716.385000", "174717.875000", "174719.365000", "174720.855000", "174722.345000", "174723.835000", "174725.325000", "174726.815000", "174728.305000", "174729.795000", "174731.285000", "174732.775000", "174734.265000", "174735.755000", "174737.245000", "174738.735000", "174740.225000", "174741.715000", "174743.205000", "174744.695000", "174746.185000", "174747.675000", "174749.165000", "174750.655000", "174752.145000", "174753.635000", "174755.125000", "174756.615000", "174758.105000", "174759.595000", "174801.085000", "174802.575000", "174804.065000", "174805.555000", "174807.045000", "174808.535000", "174810.025000", "174811.515000", "174813.005000", "174814.495000", "174815.985000", "174817.475000", "174818.965000", "174820.455000", "174821.945000", "174823.435000", "174824.925000", "174826.415000", "174827.905000", "174829.395000", "174830.885000", "174832.375000", "174833.865000", "174835.355000", "174836.845000", "174838.335000", "174839.825000", "174841.315000", "174842.805000", "174844.295000", "174845.785000", "174847.275000", "174848.765000", "174850.255000", "174851.745000", "174853.235000", "174854.725000", "174856.215000", "174857.705000", "174859.195000", "174900.685000", "174902.175000", "174903.665000", "174905.155000", "174906.645000", "174908.135000", "174909.625000", "174911.115000", "174912.605000", "174914.095000", "174915.585000", "174917.075000", "174918.565000", "174920.055000", "174921.545000", "174923.035000", "174924.525000", "174926.015000", "174927.505000", "174928.995000", "174930.485000", "174931.975000", "174933.465000", "174934.955000", "174936.445000", "174937.935000", "174939.425000", "174940.915000", "174942.405000"],
      "ContentTime": ["173843.689000", "173843.693000", "173843.695000", "173843.698000", "173843.701000", "173843.704000", "173843.707000", "173843.710000", "173843.713000", "173843.716000", "173843.719000", "173843.722000", "173843.725000", "173843.740000", "173843.743000", "173843.746000", "173843.749000", "173843.752000", "173843.755000", "173843.757000", "173843.761000", "173843.763000", "173843.766000", "173843.769000", "173843.772000", "173843.775000", "173843.778000", "173843.781000", "173843.784000", "173843.787000", "173843.790000", "173843.793000", "173843.796000", "173903.648000", "173903.651000", "173903.654000", "173903.657000", "173903.660000", "173903.663000", "173903.666000", "173903.669000", "173903.672000", "173903.675000", "173903.678000", "173903.681000", "173903.683000", "173903.686000", "173903.690000", "173903.692000", "173903.696000", "173903.700000", "173903.703000", "173903.706000", "173923.648000", "173923.651000", "173923.660000", "173923.663000", "173923.666000", "173923.669000", "173923.672000", "173923.675000", "173923.678000", "173923.680000", "173923.684000", "173923.686000", "173923.689000", "173923.692000", "173923.696000", "173923.698000", "173923.701000", "173923.704000", "173923.707000", "173923.710000", "173943.648000", "173943.651000", "173943.654000", "173943.663000", "173943.666000", "173943.669000", "173943.672000", "173943.674000", "173943.677000", "173943.680000", "173943.683000", "173943.686000", "173943.689000", "173943.692000", "173943.695000", "173943.698000", "173943.700000", "173943.703000", "173943.706000", "173943.709000", "174023.648000", "174023.651000", "174023.654000", "174023.657000", "174023.660000", "174023.663000", "174023.666000", "174023.669000", "174023.672000", "174023.675000", "174023.678000", "174023.681000", "174023.684000", "174023.687000", "174023.690000", "174023.693000", "174023.696000", "174023.699000", "174023.702000", "174023.705000", "174023.708000", "174023.711000", "174023.714000", "174023.717000", "174023.720000", "174023.722000", "174023.725000", "174023.729000", "174023.732000", "174023.735000", "174023.738000", "174103.649000", "174103.652000", "174103.655000", "174103.658000", "174103.661000", "174103.664000", "174103.667000", "174103.670000", "174103.673000", "174103.687000", "174103.690000", "174103.693000", "174103.696000", "174103.699000", "174103.702000", "174103.705000", "174103.708000", "174103.711000", "174103.714000", "174103.716000", "174103.719000", "174103.722000", "174103.725000", "174103.728000", "174103.731000", "174103.734000", "174103.737000", "174143.648000", "174143.651000", "174143.654000", "174143.657000", "174143.660000", "174143.663000", "174143.666000", "174143.669000", "174143.672000", "174143.675000", "174143.678000", "174143.681000", "174143.684000", "174143.687000", "174143.690000", "174143.693000", "174143.696000", "174143.699000", "174143.702000", "174143.705000", "174143.708000", "174143.711000", "174143.714000", "174143.717000", "174143.720000", "174143.723000", "174143.726000", "174223.648000", "174223.651000", "174223.654000", "174223.657000", "174223.660000", "174223.663000", "174223.666000", "174223.669000", "174223.672000", "174223.675000", "174223.678000", "174223.681000", "174223.684000", "174223.687000", "174223.689000", "174223.692000", "174223.695000", "174223.698000", "174223.701000", "174223.704000", "174223.707000", "174223.710000", "174223.713000", "174223.716000", "174223.719000", "174223.722000", "174223.725000", "174303.649000", "174303.652000", "174303.655000", "174303.658000", "174303.661000", "174303.664000", "174303.667000", "174303.670000", "174303.673000", "174303.676000", "174303.679000", "174303.682000", "174303.685000", "174303.688000", "174303.691000", "174303.694000", "174303.697000", "174303.700000", "174303.703000", "174303.706000", "174303.709000", "174303.712000", "174303.715000", "174303.718000", "174303.722000", "174303.725000", "174343.648000", "174343.651000", "174343.654000", "174343.657000", "174343.660000", "174343.663000", "174343.666000", "174343.669000", "174343.672000", "174343.675000", "174343.690000", "174343.693000", "174343.696000", "174343.699000", "174343.702000", "174343.705000", "174343.708000", "174343.711000", "174343.714000", "174343.717000", "174343.719000", "174343.722000", "174343.725000", "174343.728000", "174343.731000", "174343.734000", "174343.737000", "174423.648000", "174423.651000", "174423.654000", "174423.657000", "174423.660000", "174423.663000", "174423.666000", "174423.669000", "174423.672000", "174423.675000", "174423.678000", "174423.681000", "174423.684000", "174423.687000", "174423.690000", "174423.693000", "174423.696000", "174423.699000", "174423.702000", "174423.705000", "174423.708000", "174423.711000", "174423.714000", "174423.717000", "174423.720000", "174423.723000", "174423.726000", "174503.648000", "174503.651000", "174503.654000", "174503.657000", "174503.660000", "174503.663000", "174503.666000", "174503.669000", "174503.672000", "174503.675000", "174503.678000", "174503.681000", "174503.689000", "174503.692000", "174503.695000", "174503.698000", "174503.701000", "174503.704000", "174503.707000", "174503.710000", "174503.713000", "174503.716000", "174503.718000", "174503.722000", "174503.725000", "174503.728000", "174503.731000", "174543.649000", "174543.652000", "174543.655000", "174543.658000", "174543.661000", "174543.664000", "174543.667000", "174543.670000", "174543.673000", "174543.686000", "174543.689000", "174543.692000", "174543.695000", "174543.698000", "174543.701000", "174543.704000", "174543.707000", "174543.710000", "174543.713000", "174543.716000", "174543.719000", "174543.722000", "174543.725000", "174543.728000", "174543.731000", "174543.734000", "174543.737000", "174623.648000", "174623.651000", "174623.654000", "174623.657000", "174623.660000", "174623.663000", "174623.666000", "174623.669000", "174623.672000", "174623.681000", "174623.684000", "174623.687000", "174623.690000", "174623.693000", "174623.696000", "174623.699000", "174623.702000", "174623.705000", "174623.708000", "174623.711000", "174623.714000", "174623.716000", "174623.719000", "174623.722000", "174623.725000", "174623.728000", "174623.731000", "174703.648000", "174703.651000", "174703.654000", "174703.657000", "174703.660000", "174703.663000", "174703.666000", "174703.669000", "174703.672000", "174703.675000", "174703.678000", "174703.681000", "174703.684000", "174703.687000", "174703.690000", "174703.693000", "174703.695000", "174703.698000", "174703.701000", "174703.704000", "174703.707000", "174703.710000", "174703.713000", "174703.716000", "174703.719000", "174703.722000", "174703.725000", "174743.649000", "174743.652000", "174743.655000", "174743.658000", "174743.661000", "174743.664000", "174743.667000", "174743.670000", "174743.673000", "174743.676000", "174743.679000", "174743.682000", "174743.685000", "174743.687000", "174743.690000", "174743.693000", "174743.697000", "174743.700000", "174743.703000", "174743.706000", "174743.709000", "174743.712000", "174743.715000", "174743.718000", "174743.721000", "174743.724000", "174823.648000", "174823.651000", "174823.654000", "174823.657000", "174823.660000", "174823.663000", "174823.666000", "174823.669000", "174823.672000", "174823.674000", "174823.677000", "174823.680000", "174823.683000", "174823.686000", "174823.689000", "174823.692000", "174823.695000", "174823.698000", "174823.701000", "174823.704000", "174823.707000", "174823.710000", "174823.713000", "174823.716000", "174823.719000", "174823.722000", "174823.725000", "174903.648000", "174903.651000", "174903.654000", "174903.657000", "174903.660000", "174903.663000", "174903.666000", "174903.669000", "174903.672000", "174903.675000", "174903.678000", "174903.681000", "174903.683000", "174903.686000", "174903.689000", "174903.692000", "174903.695000", "174903.698000", "174903.711000", "174903.714000", "174903.717000", "174903.720000", "174903.724000", "174903.727000", "174903.730000", "174903.733000", "174903.736000", "174943.648000", "174943.651000", "174943.654000", "174943.657000", "174943.660000", "174943.663000", "174943.666000", "174943.669000", "174943.672000", "174943.674000", "174943.677000", "174943.680000", "174943.683000", "174943.686000", "174943.689000", "174943.692000", "174943.695000", "174943.702000", "174943.705000", "174943.708000", "174943.711000", "174943.714000", "174943.717000", "174943.738000", "174943.741000", "174943.744000", "174943.747000", "174944.582000"],
