{
  "AcquisitionMatrixPE": 104,
  "AcquisitionNumber": 1,
  "AcquisitionTime": "17:24:48.315000",
  "BandwidthPerPixelPhaseEncode": 17.17,
  "BaseResolution": 104,
  "BodyPartExamined": "BRAIN",
  "CoilString": "HC1-7;NC1_2",
  "ConsistencyInfo": "N4_VE11C_LATEST_20160120",
  "ConversionSoftware": "dcm2niix",
  "ConversionSoftwareVersion": "v1.0.20190902",
  "DerivedVendorReportedEchoSpacing": 0.000560011,
  "DeviceSerialNumber": "167006",
  "DwellTime": 2.1e-06,
  "EchoTime": 0.037,
  "EchoTrainLength": 104,
  "EffectiveEchoSpacing": 0.000560011,
  "FlipAngle": 52,
  "ImageComments": "Unaliased_MB4_PE3_LB",
  "ImageOrientationPatientDICOM": [0.999939, 0.00225761, 0.0108527, 0.000349008, 0.972144, -0.234385],
  "ImageType": [
    "ORIGINAL",
    "PRIMARY",
    "M",
    "MB",
    "ND",
    "MOSAIC"
],
  "ImagingFrequency": 123.259,
  "InPlanePhaseEncodingDirectionDICOM": "COL",
  "InstitutionAddress": "Chemin_Queen-Mary_4565_Montreal_District_CA_H3W_1W5",
  "InstitutionName": "IUGM",
  "InstitutionalDepartmentName": "Department",
  "MRAcquisitionType": "2D",
  "MagneticFieldStrength": 3,
  "Manufacturer": "Siemens",
  "ManufacturersModelName": "Prisma_fit",
  "Modality": "MR",
  "MultibandAccelerationFactor": 4,
  "PartialFourier": 1,
  "PatientPosition": "HFS",
  "PercentPhaseFOV": 100,
  "PhaseEncodingDirection": "j",
  "PhaseEncodingSteps": 104,
  "PhaseResolution": 1,
  "PixelBandwidth": 2290,
  "ProcedureStepDescription": "video_friends",
  "ProtocolName": "func_task-friends-s05e17b",
  "PulseSequenceDetails": "%CustomerSeq%_cmrr_mbep2d_bold",
  "ReceiveCoilActiveElements": "HC1-7;NC1,2",
  "ReceiveCoilName": "HeadNeck_64",
  "ReconMatrixPE": 104,
  "RepetitionTime": 1.49,
  "SAR": 0.0283838,
  "ScanOptions": "FS",
  "ScanningSequence": "EP",
  "SequenceName": "epfid2d1_104",
  "SequenceVariant": "SK_SS",
  "SeriesDescription": "func_task-friends-s05e17b",
  "SeriesNumber": 11,
  "ShimSetting": [644, -7231, -8741, 725, 45, -28, 133, 0],
  "SliceThickness": 2,
  "SliceTiming": [0, 0.785, 0.0975, 0.8825, 0.1975, 0.98, 0.295, 1.0775, 0.3925, 1.1775, 0.49, 1.275, 0.5875, 1.3725, 0.6875, 0, 0.785, 0.0975, 0.8825, 0.1975, 0.98, 0.295, 1.0775, 0.3925, 1.1775, 0.49, 1.275, 0.5875, 1.3725, 0.6875, 0, 0.785, 0.0975, 0.8825, 0.1975, 0.98, 0.295, 1.0775, 0.3925, 1.1775, 0.49, 1.275, 0.5875, 1.3725, 0.6875, 0, 0.785, 0.0975, 0.8825, 0.1975, 0.98, 0.295, 1.0775, 0.3925, 1.1775, 0.49, 1.275, 0.5875, 1.3725, 0.6875],
  "SoftwareVersions": "syngo_MR_E11",
  "SpacingBetweenSlices": 2,
  "StationName": "MRC35049",
  "TaskName": "s05e17b",
  "TotalReadoutTime": 0.0576811,
  "TxRefAmp": 204.197,
  "WipMemBlock": "1751b818-3abd-44e7-84f6-22c5675791d8||Sequence: R016 ve11c/master r/e634e98; Dec 19 2017 11:00:25 by eja",
  "dcmmeta_affine": [
    [-1.9998770952224731, 0.0006980161415413022, 0.02215902879834175, 103.92318725585938],
    [-0.0045152222737669945, 1.9442874193191528, -0.468749463558197, -85.07371520996094],
    [0.02170535922050476, 0.46877071261405945, 1.9441663026809692, -45.59455108642578],
    [0.0, 0.0, 0.0, 1.0]
],
  "dcmmeta_reorient_transform": [
    [0.0, -1.0, 0.0, 103.0],
    [1.0, 0.0, 0.0, 0.0],
    [0.0, 0.0, 1.0, 0.0],
    [0.0, 0.0, 0.0, 1.0]
],
  "dcmmeta_shape": [104, 104, 60, 486],
  "dcmmeta_slice_dim": 2,
  "dcmmeta_version": 0.6,
  "global": {
    "const": {
      "AcquisitionMatrix": [104, 0, 0, 104],
      "AngioFlag": "N",
      "BitsAllocated": 16,
      "BitsStored": 16,
      "BodyPartExamined": "BRAIN",
      "Columns": 832,
      "EchoNumbers": 1,
      "EchoTime": 37.0,
      "EchoTrainLength": 104,
      "FlipAngle": 52.0,
      "HighBit": 15,
      "ImageOrientationPatient": [0.999938559383, 0.00225761113352, 0.01085267943987, 0.00034900808192, 0.97214370588139, -0.234385352163],
      "ImagePositionPatient": [-832.20443564123, -824.55204491107, 165.42061665851],
      "ImageType": [
        "ORIGINAL",
        "PRIMARY",
        "M",
        "MB",
        "ND",
        "MOSAIC"
],
      "ImagedNucleus": "1H",
      "ImagingFrequency": 123.258962,
      "InPlanePhaseEncodingDirection": "COL",
      "MRAcquisitionType": "2D",
      "MagneticFieldStrength": 3.0,
      "Manufacturer": "SIEMENS",
      "ManufacturerModelName": "Prisma_fit",
      "Modality": "MR",
      "NumberOfAverages": 1.0,
      "NumberOfPhaseEncodingSteps": 104,
      "PercentPhaseFieldOfView": 100.0,
      "PercentSampling": 100.0,
      "PerformedProcedureStepStartTime": "165755.601000",
      "PhotometricInterpretation": "MONOCHROME2",
      "PixelBandwidth": 2290.0,
      "PixelRepresentation": 0,
      "PixelSpacing": [2.0, 2.0],
      "ProtocolName": "func_task-friends-s05e17b",
      "RepetitionTime": 1490.0,
      "Rows": 832,
      "SAR": 0.02838376042889,
      "SamplesPerPixel": 1,
      "ScanOptions": "FS",
      "ScanningSequence": "EP",
      "SequenceName": "epfid2d1_104",
      "SequenceVariant": [
        "SK",
        "SS"
],
      "SeriesDescription": "func_task-friends-s05e17b",
      "SeriesNumber": 11,
      "SeriesTime": "172613.774000",
      "SliceLocation": -23.231148301439,
      "SliceThickness": 2.0,
      "SmallestImagePixelValue": 0,
      "SoftwareVersions": "syngo MR E11",
      "SpacingBetweenSlices": 1.9999999657122,
      "SpecificCharacterSet": "ISO_IR 100",
      "StudyID": "1",
      "StudyTime": "165755.534000",
      "TransmitCoilName": "Body",
      "VariableFlipAngleFlag": "N",
      "WindowCenterWidthExplanation": "Algo1",
      "dBdt": 0.0},
    "slices": {}
  },
  "time": {
    "samples": {
      "AcquisitionNumber": [1, 2, 3, 4, 5, 6, 7, 8, 9, 10, 11, 12, 13, 14, 15, 16, 17, 18, 19, 20, 21, 22, 23, 24, 25, 26, 27, 28, 29, 30, 31, 32, 33, 34, 35, 36, 37, 38, 39, 40, 41, 42, 43, 44, 45, 46, 47, 48, 49, 50, 51, 52, 53, 54, 55, 56, 57, 58, 59, 60, 61, 62, 63, 64, 65, 66, 67, 68, 69, 70, 71, 72, 73, 74, 75, 76, 77, 78, 79, 80, 81, 82, 83, 84, 85, 86, 87, 88, 89, 90, 91, 92, 93, 94, 95, 96, 97, 98, 99, 100, 101, 102, 103, 104, 105, 106, 107, 108, 109, 110, 111, 112, 113, 114, 115, 116, 117, 118, 119, 120, 121, 122, 123, 124, 125, 126, 127, 128, 129, 130, 131, 132, 133, 134, 135, 136, 137, 138, 139, 140, 141, 142, 143, 144, 145, 146, 147, 148, 149, 150, 151, 152, 153, 154, 155, 156, 157, 158, 159, 160, 161, 162, 163, 164, 165, 166, 167, 168, 169, 170, 171, 172, 173, 174, 175, 176, 177, 178, 179, 180, 181, 182, 183, 184, 185, 186, 187, 188, 189, 190, 191, 192, 193, 194, 195, 196, 197, 198, 199, 200, 201, 202, 203, 204, 205, 206, 207, 208, 209, 210, 211, 212, 213, 214, 215, 216, 217, 218, 219, 220, 221, 222, 223, 224, 225, 226, 227, 228, 229, 230, 231, 232, 233, 234, 235, 236, 237, 238, 239, 240, 241, 242, 243, 244, 245, 246, 247, 248, 249, 250, 251, 252, 253, 254, 255, 256, 257, 258, 259, 260, 261, 262, 263, 264, 265, 266, 267, 268, 269, 270, 271, 272, 273, 274, 275, 276, 277, 278, 279, 280, 281, 282, 283, 284, 285, 286, 287, 288, 289, 290, 291, 292, 293, 294, 295, 296, 297, 298, 299, 300, 301, 302, 303, 304, 305, 306, 307, 308, 309, 310, 311, 312, 313, 314, 315, 316, 317, 318, 319, 320, 321, 322, 323, 324, 325, 326, 327, 328, 329, 330, 331, 332, 333, 334, 335, 336, 337, 338, 339, 340, 341, 342, 343, 344, 345, 346, 347, 348, 349, 350, 351, 352, 353, 354, 355, 356, 357, 358, 359, 360, 361, 362, 363, 364, 365, 366, 367, 368, 369, 370, 371, 372, 373, 374, 375, 376, 377, 378, 379, 380, 381, 382, 383, 384, 385, 386, 387, 388, 389, 390, 391, 392, 393, 394, 395, 396, 397, 398, 399, 400, 401, 402, 403, 404, 405, 406, 407, 408, 409, 410, 411, 412, 413, 414, 415, 416, 417, 418, 419, 420, 421, 422, 423, 424, 425, 426, 427, 428, 429, 430, 431, 432, 433, 434, 435, 436, 437, 438, 439, 440, 441, 442, 443, 444, 445, 446, 447, 448, 449, 450, 451, 452, 453, 454, 455, 456, 457, 458, 459, 460, 461, 462, 463, 464, 465, 466, 467, 468, 469, 470, 471, 472, 473, 474, 475, 476, 477, 478, 479, 480, 481, 482, 483, 484, 485, 486],
      "AcquisitionTime": ["172448.315000", "172449.805000", "172451.295000", "172452.785000", "172454.275000", "172455.765000", "172457.255000", "172458.745000", "172500.235000", "172501.725000", "172503.215000", "172504.705000", "172506.195000", "172507.685000", "172509.175000", "172510.665000", "172512.155000", "172513.645000", "172515.135000", "172516.625000", "172518.115000", "172519.605000", "172521.095000", "172522.585000", "172524.075000", "172525.565000", "172527.055000", "172528.545000", "172530.035000", "172531.525000", "172533.015000", "172534.505000", "172535.995000", "172537.485000", "172538.975000", "172540.465000", "172541.955000", "172543.445000", "172544.935000", "172546.425000", "172547.915000", "172549.405000", "172550.895000", "172552.385000", "172553.875000", "172555.365000", "172556.855000", "172558.345000", "172559.835000", "172601.325000", "172602.815000", "172604.305000", "172605.795000", "172607.285000", "172608.775000", "172610.265000", "172611.755000", "172613.245000", "172614.735000", "172616.225000", "172617.715000", "172619.205000", "172620.695000", "172622.185000", "172623.675000", "172625.165000", "172626.655000", "172628.145000", "172629.635000", "172631.125000", "172632.615000", "172634.105000", "172635.595000", "172637.085000", "172638.575000", "172640.065000", "172641.555000", "172643.045000", "172644.535000", "172646.025000", "172647.515000", "172649.005000", "172650.495000", "172651.985000", "172653.475000", "172654.965000", "172656.455000", "172657.945000", "172659.435000", "172700.925000", "172702.415000", "172703.905000", "172705.395000", "172706.885000", "172708.375000", "172709.865000", "172711.355000", "172712.845000", "172714.335000", "172715.825000", "172717.315000", "172718.805000", "172720.295000", "172721.785000", "172723.275000", "172724.765000", "172726.255000", "172727.745000", "172729.235000", "172730.725000", "172732.215000", "172733.705000", "172735.195000", "172736.685000", "172738.175000", "172739.665000", "172741.155000", "172742.645000", "172744.135000", "172745.625000", "172747.115000", "172748.605000", "172750.095000", "172751.585000", "172753.075000", "172754.565000", "172756.055000", "172757.545000", "172759.035000", "172800.525000", "172802.015000", "172803.505000", "172804.995000", "172806.485000", "172807.975000", "172809.465000", "172810.955000", "172812.445000", "172813.935000", "172815.425000", "172816.915000", "172818.405000", "172819.895000", "172821.385000", "172822.875000", "172824.365000", "172825.855000", "172827.345000", "172828.835000", "172830.325000", "172831.815000", "172833.305000", "172834.795000", "172836.285000", "172837.775000", "172839.265000", "172840.755000", "172842.245000", "172843.735000", "172845.225000", "172846.715000", "172848.205000", "172849.695000", "172851.185000", "172852.675000", "172854.165000", "172855.655000", "172857.145000", "172858.635000", "172900.125000", "172901.615000", "172903.105000", "172904.595000", "172906.085000", "172907.575000", "172909.065000", "172910.555000", "172912.045000", "172913.535000", "172915.025000", "172916.515000", "172918.005000", "172919.495000", "172920.985000", "172922.475000", "172923.965000", "172925.455000", "172926.945000", "172928.435000", "172929.925000", "172931.415000", "172932.905000", "172934.395000", "172935.885000", "172937.375000", "172938.865000", "172940.355000", "172941.845000", "172943.335000", "172944.825000", "172946.315000", "172947.805000", "172949.295000", "172950.785000", "172952.275000", "172953.765000", "172955.255000", "172956.745000", "172958.235000", "172959.725000", "173001.215000", "173002.705000", "173004.195000", "173005.685000", "173007.175000", "173008.665000", "173010.155000", "173011.645000", "173013.135000", "173014.625000", "173016.115000", "173017.605000", "173019.095000", "173020.585000", "173022.075000", "173023.565000", "173025.055000", "173026.545000", "173028.035000", "173029.525000", "173031.015000", "173032.505000", "173033.995000", "173035.485000", "173036.975000", "173038.465000", "173039.955000", "173041.445000", "173042.935000", "173044.425000", "173045.915000", "173047.405000", "173048.895000", "173050.385000", "173051.875000", "173053.365000", "173054.855000", "173056.345000", "173057.835000", "173059.325000", "173100.815000", "173102.305000", "173103.795000", "173105.285000", "173106.775000", "173108.265000", "173109.755000", "173111.245000", "173112.735000", "173114.225000", "173115.715000", "173117.205000", "173118.695000", "173120.185000", "173121.675000", "173123.165000", "173124.655000", "173126.145000", "173127.635000", "173129.125000", "173130.615000", "173132.105000", "173133.595000", "173135.085000", "173136.575000", "173138.065000", "173139.555000", "173141.045000", "173142.535000", "173144.025000", "173145.515000", "173147.005000", "173148.495000", "173149.985000", "173151.475000", "173152.965000", "173154.455000", "173155.945000", "173157.435000", "173158.925000", "173200.415000", "173201.905000", "173203.395000", "173204.885000", "173206.375000", "173207.865000", "173209.355000", "173210.845000", "173212.335000", "173213.825000", "173215.315000", "173216.805000", "173218.295000", "173219.785000", "173221.275000", "173222.765000", "173224.255000", "173225.745000", "173227.235000", "173228.725000", "173230.215000", "173231.705000", "173233.195000", "173234.685000", "173236.175000", "173237.665000", "173239.155000", "173240.645000", "173242.135000", "173243.625000", "173245.115000", "173246.605000", "173248.095000", "173249.585000", "173251.075000", "173252.565000", "173254.055000", "173255.545000", "173257.035000", "173258.525000", "173300.015000", "173301.505000", "173302.995000", "173304.485000", "173305.975000", "173307.465000", "173308.955000", "173310.445000", "173311.935000", "173313.425000", "173314.915000", "173316.405000", "173317.895000", "173319.385000", "173320.875000", "173322.365000", "173323.855000", "173325.345000", "173326.835000", "173328.325000", "173329.815000", "173331.305000", "173332.795000", "173334.285000", "173335.775000", "173337.265000", "173338.755000", "173340.245000", "173341.735000", "173343.225000", "173344.715000", "173346.205000", "173347.695000", "173349.185000", "173350.675000", "173352.165000", "173353.655000", "173355.145000", "173356.635000", "173358.125000", "173359.615000", "173401.105000", "173402.595000", "173404.085000", "173405.575000", "173407.065000", "173408.555000", "173410.045000", "173411.535000", "173413.025000", "173414.515000", "173416.005000", "173417.495000", "173418.985000", "173420.475000", "173421.965000", "173423.455000", "173424.945000", "173426.435000", "173427.925000", "173429.415000", "173430.905000", "173432.395000", "173433.885000", "173435.375000", "173436.865000", "173438.355000", "173439.845000", "173441.335000", "173442.825000", "173444.315000", "173445.805000", "173447.295000", "173448.785000", "173450.275000", "173451.765000", "173453.255000", "173454.745000", "173456.235000", "173457.725000", "173459.215000", "173500.705000", "173502.195000", "173503.685000", "173505.175000", "173506.665000", "173508.155000", "173509.645000", "173511.135000", "173512.625000", "173514.115000", "173515.605000", "173517.095000", "173518.585000", "173520.075000", "173521.565000", "173523.055000", "173524.545000", "173526.035000", "173527.525000", "173529.015000", "173530.505000", "173531.995000", "173533.485000", "173534.975000", "173536.465000", "173537.955000", "173539.445000", "173540.935000", "173542.425000", "173543.915000", "173545.405000", "173546.895000", "173548.385000", "173549.875000", "173551.365000", "173552.855000", "173554.345000", "173555.835000", "173557.325000", "173558.815000", "173600.305000", "173601.795000", "173603.285000", "173604.775000", "173606.265000", "173607.755000", "173609.245000", "173610.735000", "173612.225000", "173613.715000", "173615.205000", "173616.695000", "173618.185000", "173619.675000", "173621.165000", "173622.655000", "173624.145000", "173625.635000", "173627.125000", "173628.615000", "173630.105000", "173631.595000", "173633.085000", "173634.575000", "173636.065000", "173637.555000", "173639.045000", "173640.535000", "173642.025000", "173643.515000", "173645.005000", "173646.495000", "173647.985000", "173649.475000", "173650.965000"],
      "ContentTime": ["172613.776000", "172613.780000", "172613.783000", "172613.786000", "172613.789000", "172613.792000", "172613.796000", "172613.799000", "172613.802000", "172613.805000", "172613.810000", "172613.813000", "172613.816000", "172613.819000", "172613.822000", "172613.825000", "172613.828000", "172613.831000", "172613.834000", "172613.837000", "172613.840000", "172613.843000", "172613.846000", "172613.849000", "172613.852000", "172613.855000", "172613.858000", "172613.861000", "172613.864000", "172613.867000", "172613.870000", "172613.872000", "172633.740000", "172633.743000", "172633.746000", "172633.749000", "172633.752000", "172633.755000", "172633.758000", "172633.761000", "172633.764000", "172633.767000", "172633.770000", "172633.773000", "172633.776000", "172633.779000", "172633.781000", "172633.784000", "172633.787000", "172633.790000", "172633.793000", "172633.796000", "172653.755000", "172653.758000", "172653.761000", "172653.764000", "172653.767000", "172653.770000", "172653.773000", "172653.776000", "172653.778000", "172653.781000", "172653.784000", "172653.798000", "172653.801000", "172653.803000", "172653.807000", "172653.810000", "172653.812000", "172653.815000", "172653.818000", "172653.821000", "172713.739000", "172713.742000", "172713.745000", "172713.748000", "172713.751000", "172713.755000", "172713.758000", "172713.761000", "172713.764000", "172713.767000", "172713.770000", "172713.773000", "172713.776000", "172713.779000", "172713.782000", "172713.785000", "172713.788000", "172713.791000", "172713.794000", "172713.797000", "172713.800000", "172753.740000", "172753.744000", "172753.748000", "172753.751000", "172753.754000", "172753.757000", "172753.760000", "172753.763000", "172753.766000", "172753.769000", "172753.772000", "172753.775000", "172753.778000", "172753.781000", "172753.784000", "172753.787000", "172753.790000", "172753.793000", "172753.796000", "172753.799000", "172753.802000", "172753.805000", "172753.808000", "172753.811000", "172753.813000", "172753.816000", "172753.820000", "172753.822000", "172753.825000", "172753.828000", "172833.740000", "172833.743000", "172833.746000", "172833.749000", "172833.752000", "172833.755000", "172833.759000", "172833.762000", "172833.765000", "172833.768000", "172833.771000", "172833.774000", "172833.777000", "172833.780000", "172833.783000", "172833.786000", "172833.788000", "172833.791000", "172833.794000", "172833.797000", "172833.800000", "172833.803000", "172833.806000", "172833.813000", "172833.816000", "172833.818000", "172833.821000", "172913.740000", "172913.743000", "172913.746000", "172913.749000", "172913.752000", "172913.755000", "172913.758000", "172913.761000", "172913.764000", "172913.767000", "172913.770000", "172913.773000", "172913.776000", "172913.779000", "172913.782000", "172913.785000", "172913.788000", "172913.791000", "172913.794000", "172913.797000", "172913.800000", "172913.803000", "172913.806000", "172913.809000", "172913.812000", "172913.815000", "172913.818000", "172953.739000", "172953.742000", "172953.745000", "172953.748000", "172953.751000", "172953.754000", "172953.757000", "172953.760000", "172953.763000", "172953.766000", "172953.769000", "172953.772000", "172953.775000", "172953.778000", "172953.781000", "172953.784000", "172953.787000", "172953.790000", "172953.793000", "172953.796000", "172953.799000", "172953.802000", "172953.805000", "172953.808000", "172953.811000", "172953.814000", "172953.817000", "173033.740000", "173033.743000", "173033.746000", "173033.749000", "173033.752000", "173033.755000", "173033.758000", "173033.761000", "173033.764000", "173033.767000", "173033.770000", "173033.773000", "173033.776000", "173033.779000", "173033.782000", "173033.785000", "173033.788000", "173033.791000", "173033.794000", "173033.797000", "173033.800000", "173033.803000", "173033.806000", "173033.809000", "173033.812000", "173033.815000", "173033.818000", "173113.740000", "173113.743000", "173113.746000", "173113.749000", "173113.752000", "173113.755000", "173113.758000", "173113.761000", "173113.764000", "173113.778000", "173113.781000", "173113.784000", "173113.787000", "173113.790000", "173113.793000", "173113.796000", "173113.799000", "173113.802000", "173113.805000", "173113.808000", "173113.811000", "173113.814000", "173113.816000", "173113.820000", "173113.823000", "173113.826000", "173113.828000", "173153.739000", "173153.742000", "173153.745000", "173153.748000", "173153.751000", "173153.754000", "173153.757000", "173153.760000", "173153.763000", "173153.766000", "173153.769000", "173153.772000", "173153.775000", "173153.778000", "173153.781000", "173153.784000", "173153.787000", "173153.790000", "173153.793000", "173153.796000", "173153.799000", "173153.802000", "173153.805000", "173153.808000", "173153.811000", "173153.814000", "173153.817000", "173233.741000", "173233.744000", "173233.747000", "173233.750000", "173233.753000", "173233.756000", "173233.759000", "173233.762000", "173233.765000", "173233.768000", "173233.771000", "173233.774000", "173233.777000", "173233.780000", "173233.783000", "173233.786000", "173233.789000", "173233.792000", "173233.795000", "173233.798000", "173233.801000", "173233.804000", "173233.807000", "173233.810000", "173233.813000", "173233.816000", "173313.740000", "173313.743000", "173313.746000", "173313.749000", "173313.752000", "173313.755000", "173313.758000", "173313.761000", "173313.764000", "173313.767000", "173313.770000", "173313.773000", "173313.776000", "173313.779000", "173313.782000", "173313.785000", "173313.788000", "173313.791000", "173313.794000", "173313.796000", "173313.799000", "173313.802000", "173313.805000", "173313.818000", "173313.821000", "173313.824000", "173313.827000", "173353.740000", "173353.743000", "173353.746000", "173353.749000", "173353.752000", "173353.755000", "173353.758000", "173353.762000", "173353.764000", "173353.768000", "173353.771000", "173353.774000", "173353.777000", "173353.780000", "173353.783000", "173353.786000", "173353.789000", "173353.792000", "173353.795000", "173353.798000", "173353.801000", "173353.804000", "173353.807000", "173353.810000", "173353.813000", "173353.816000", "173353.819000", "173433.739000", "173433.742000", "173433.745000", "173433.748000", "173433.751000", "173433.754000", "173433.757000", "173433.766000", "173433.769000", "173433.772000", "173433.775000", "173433.778000", "173433.781000", "173433.784000", "173433.786000", "173433.789000", "173433.792000", "173433.795000", "173433.798000", "173433.801000", "173433.804000", "173433.807000", "173433.810000", "173433.813000", "173433.816000", "173433.819000", "173433.822000", "173513.740000", "173513.743000", "173513.746000", "173513.749000", "173513.752000", "173513.755000", "173513.758000", "173513.761000", "173513.764000", "173513.767000", "173513.770000", "173513.773000", "173513.776000", "173513.779000", "173513.782000", "173513.785000", "173513.788000", "173513.791000", "173513.794000", "173513.797000", "173513.800000", "173513.803000", "173513.806000", "173513.809000", "173513.812000", "173513.815000", "173513.817000", "173553.740000", "173553.743000", "173553.746000", "173553.749000", "173553.752000", "173553.755000", "173553.758000", "173553.769000", "173553.772000", "173553.775000", "173553.778000", "173553.781000", "173553.784000", "173553.787000", "173553.790000", "173553.793000", "173553.796000", "173553.799000", "173553.802000", "173553.805000", "173553.808000", "173553.811000", "173553.814000", "173553.824000", "173553.827000", "173553.830000", "173553.833000", "173633.739000", "173633.743000", "173633.747000", "173633.751000", "173633.754000", "173633.758000", "173633.761000", "173633.763000", "173633.766000", "173633.770000", "173633.773000", "173633.775000", "173633.778000", "173633.782000", "173633.784000", "173633.787000", "173633.790000", "173633.793000", "173633.796000", "173633.799000", "173633.802000", "173633.805000", "173633.808000", "173633.811000", "173633.814000", "173633.817000", "173653.192000", "173653.195000", "173653.198000", "173653.201000", "173653.204000", "173653.208000", "173653.211000", "173653.214000", "173653.217000", "173653.220000", "173653.223000", "173653.226000", "173653.230000", "173653.233000"],
