{
  "AcquisitionMatrixPE": 104,
  "AcquisitionNumber": 1,
  "AcquisitionTime": "10:15:46.697500",
  "BandwidthPerPixelPhaseEncode": 17.17,
  "BaseResolution": 104,
  "BodyPartExamined": "BRAIN",
  "CoilString": "HC1-7;NC1_2",
  "ConsistencyInfo": "N4_VE11C_LATEST_20160120",
  "ConversionSoftware": "dcm2niix",
  "ConversionSoftwareVersion": "v1.0.20190720  (JP2:OpenJPEG) GCC7.3.0",
  "DerivedVendorReportedEchoSpacing": 0.000560011,
  "DeviceSerialNumber": "167006",
  "DwellTime": 2.1e-06,
  "EchoTime": 0.037,
  "EchoTrainLength": 104,
  "EffectiveEchoSpacing": 0.000560011,
  "FlipAngle": 52,
  "ImageComments": "Unaliased_MB4_PE3_LB",
  "ImageOrientationPatientDICOM": [0.998379, 0.000148993, -0.0569132, -0.0125466, 0.975971, -0.217539],
  "ImageType": [
    "ORIGINAL",
    "PRIMARY",
    "M",
    "MB",
    "ND",
    "MOSAIC"
],
  "ImagingFrequency": 123.259,
  "InPlanePhaseEncodingDirectionDICOM": "COL",
  "InstitutionAddress": "Chemin_Queen-Mary_4565_Montreal_District_CA_H3W_1W5",
  "InstitutionName": "IUGM",
  "InstitutionalDepartmentName": "Department",
  "MRAcquisitionType": "2D",
  "MagneticFieldStrength": 3,
  "Manufacturer": "Siemens",
  "ManufacturersModelName": "Prisma_fit",
  "Modality": "MR",
  "MultibandAccelerationFactor": 4,
  "PartialFourier": 1,
  "PatientPosition": "HFS",
  "PercentPhaseFOV": 100,
  "PhaseEncodingDirection": "j",
  "PhaseEncodingSteps": 104,
  "PhaseResolution": 1,
  "PixelBandwidth": 2290,
  "ProcedureStepDescription": "video_friends",
  "ProtocolName": "func_task-friends-s01e13a",
  "PulseSequenceDetails": "%CustomerSeq%_cmrr_mbep2d_bold",
  "ReceiveCoilActiveElements": "HC1-7;NC1,2",
  "ReceiveCoilName": "HeadNeck_64",
  "ReconMatrixPE": 104,
  "RepetitionTime": 1.49,
  "SAR": 0.0339971,
  "ScanOptions": "FS",
  "ScanningSequence": "EP",
  "SequenceName": "epfid2d1_104",
  "SequenceVariant": "SK_SS",
  "SeriesDescription": "func_task-friends-s01e13a",
  "SeriesNumber": 24,
  "ShimSetting": [605, -7258, -8848, 593, -25, -307, 33, 70],
  "SliceThickness": 2,
  "SliceTiming": [0, 0.785, 0.0975, 0.8825, 0.195, 0.98, 0.295, 1.0775, 0.3925, 1.175, 0.49, 1.2725, 0.5875, 1.3725, 0.685, 0, 0.785, 0.0975, 0.8825, 0.195, 0.98, 0.295, 1.0775, 0.3925, 1.175, 0.49, 1.2725, 0.5875, 1.3725, 0.685, 0, 0.785, 0.0975, 0.8825, 0.195, 0.98, 0.295, 1.0775, 0.3925, 1.175, 0.49, 1.2725, 0.5875, 1.3725, 0.685, 0, 0.785, 0.0975, 0.8825, 0.195, 0.98, 0.295, 1.0775, 0.3925, 1.175, 0.49, 1.2725, 0.5875, 1.3725, 0.685],
  "SoftwareVersions": "syngo_MR_E11",
  "SpacingBetweenSlices": 2,
  "StationName": "MRC35049",
  "TaskName": "friends",
  "TotalReadoutTime": 0.0576811,
  "TxRefAmp": 219.065,
  "WipMemBlock": "fb0a776e-875f-4dfa-890e-15068724e956||Sequence: R016 ve11c/master r/e634e98; Dec 19 2017 11:00:25 by eja",
  "dcmmeta_affine": [
    [-1.996758222579956, -0.025093229487538338, -0.11102639883756638, 103.23377990722656],
    [-0.00029798681498505175, 1.951941728591919, -0.4358018636703491, -82.69718170166016],
    [-0.11382637917995453, 0.4350789487361908, 1.9487816095352173, -51.66813278198242],
    [0.0, 0.0, 0.0, 1.0]
],
  "dcmmeta_reorient_transform": [
    [0.0, -1.0, 0.0, 103.0],
    [1.0, 0.0, 0.0, 0.0],
    [0.0, 0.0, 1.0, 0.0],
    [0.0, 0.0, 0.0, 1.0]
],
  "dcmmeta_shape": [104, 104, 60, 468],
  "dcmmeta_slice_dim": 2,
  "dcmmeta_version": 0.6,
  "global": {
    "const": {
      "AcquisitionMatrix": [104, 0, 0, 104],
      "AngioFlag": "N",
      "BitsAllocated": 16,
      "BitsStored": 16,
      "BodyPartExamined": "BRAIN",
      "Columns": 832,
      "EchoNumbers": 1,
      "EchoTime": 37.0,
      "EchoTrainLength": 104,
      "FlipAngle": 52.0,
      "HighBit": 15,
      "ImageOrientationPatient": [0.99837911976524, 0.00014899340255, -0.0569131884343, -0.0125466147022, 0.9759708811747, -0.2175394712658],
      "ImagePositionPatient": [-818.33524190684, -828.96808895027, 192.94653395198],
      "ImageType": [
        "ORIGINAL",
        "PRIMARY",
        "M",
        "MB",
        "ND",
        "MOSAIC"
],
      "ImagedNucleus": "1H",
      "ImagingFrequency": 123.259434,
      "InPlanePhaseEncodingDirection": "COL",
      "MRAcquisitionType": "2D",
      "MagneticFieldStrength": 3.0,
      "Manufacturer": "SIEMENS",
      "ManufacturerModelName": "Prisma_fit",
      "Modality": "MR",
      "NumberOfAverages": 1.0,
      "NumberOfPhaseEncodingSteps": 104,
      "PercentPhaseFieldOfView": 100.0,
      "PercentSampling": 100.0,
      "PerformedProcedureStepStartTime": "085904.045000",
      "PhotometricInterpretation": "MONOCHROME2",
      "PixelBandwidth": 2290.0,
      "PixelRepresentation": 0,
      "PixelSpacing": [2.0, 2.0],
      "ProtocolName": "func_task-friends-s01e13a",
      "RepetitionTime": 1490.0,
      "Rows": 832,
      "SAR": 0.0339971209286,
      "SamplesPerPixel": 1,
      "ScanOptions": "FS",
      "ScanningSequence": "EP",
      "SequenceName": "epfid2d1_104",
      "SequenceVariant": [
        "SK",
        "SS"
],
      "SeriesDescription": "func_task-friends-s01e13a",
      "SeriesNumber": 24,
      "SeriesTime": "101719.331000",
      "SliceLocation": -38.05599958471,
      "SliceThickness": 2.0,
      "SmallestImagePixelValue": 0,
      "SoftwareVersions": "syngo MR E11",
      "SpacingBetweenSlices": 1.9999999170211,
      "SpecificCharacterSet": "ISO_IR 100",
      "StudyID": "1",
      "StudyTime": "085903.909000",
      "TransmitCoilName": "Body",
      "VariableFlipAngleFlag": "N",
      "WindowCenterWidthExplanation": "Algo1",
      "dBdt": 0.0},
    "slices": {}
  },
  "time": {
    "samples": {
      "AcquisitionNumber": [1, 2, 3, 4, 5, 6, 7, 8, 9, 10, 11, 12, 13, 14, 15, 16, 17, 18, 19, 20, 21, 22, 23, 24, 25, 26, 27, 28, 29, 30, 31, 32, 33, 34, 35, 36, 37, 38, 39, 40, 41, 42, 43, 44, 45, 46, 47, 48, 49, 50, 51, 52, 53, 54, 55, 56, 57, 58, 59, 60, 61, 62, 63, 64, 65, 66, 67, 68, 69, 70, 71, 72, 73, 74, 75, 76, 77, 78, 79, 80, 81, 82, 83, 84, 85, 86, 87, 88, 89, 90, 91, 92, 93, 94, 95, 96, 97, 98, 99, 100, 101, 102, 103, 104, 105, 106, 107, 108, 109, 110, 111, 112, 113, 114, 115, 116, 117, 118, 119, 120, 121, 122, 123, 124, 125, 126, 127, 128, 129, 130, 131, 132, 133, 134, 135, 136, 137, 138, 139, 140, 141, 142, 143, 144, 145, 146, 147, 148, 149, 150, 151, 152, 153, 154, 155, 156, 157, 158, 159, 160, 161, 162, 163, 164, 165, 166, 167, 168, 169, 170, 171, 172, 173, 174, 175, 176, 177, 178, 179, 180, 181, 182, 183, 184, 185, 186, 187, 188, 189, 190, 191, 192, 193, 194, 195, 196, 197, 198, 199, 200, 201, 202, 203, 204, 205, 206, 207, 208, 209, 210, 211, 212, 213, 214, 215, 216, 217, 218, 219, 220, 221, 222, 223, 224, 225, 226, 227, 228, 229, 230, 231, 232, 233, 234, 235, 236, 237, 238, 239, 240, 241, 242, 243, 244, 245, 246, 247, 248, 249, 250, 251, 252, 253, 254, 255, 256, 257, 258, 259, 260, 261, 262, 263, 264, 265, 266, 267, 268, 269, 270, 271, 272, 273, 274, 275, 276, 277, 278, 279, 280, 281, 282, 283, 284, 285, 286, 287, 288, 289, 290, 291, 292, 293, 294, 295, 296, 297, 298, 299, 300, 301, 302, 303, 304, 305, 306, 307, 308, 309, 310, 311, 312, 313, 314, 315, 316, 317, 318, 319, 320, 321, 322, 323, 324, 325, 326, 327, 328, 329, 330, 331, 332, 333, 334, 335, 336, 337, 338, 339, 340, 341, 342, 343, 344, 345, 346, 347, 348, 349, 350, 351, 352, 353, 354, 355, 356, 357, 358, 359, 360, 361, 362, 363, 364, 365, 366, 367, 368, 369, 370, 371, 372, 373, 374, 375, 376, 377, 378, 379, 380, 381, 382, 383, 384, 385, 386, 387, 388, 389, 390, 391, 392, 393, 394, 395, 396, 397, 398, 399, 400, 401, 402, 403, 404, 405, 406, 407, 408, 409, 410, 411, 412, 413, 414, 415, 416, 417, 418, 419, 420, 421, 422, 423, 424, 425, 426, 427, 428, 429, 430, 431, 432, 433, 434, 435, 436, 437, 438, 439, 440, 441, 442, 443, 444, 445, 446, 447, 448, 449, 450, 451, 452, 453, 454, 455, 456, 457, 458, 459, 460, 461, 462, 463, 464, 465, 466, 467, 468],
      "AcquisitionTime": ["101546.697500", "101548.187500", "101549.677500", "101551.167500", "101552.657500", "101554.147500", "101555.637500", "101557.127500", "101558.617500", "101600.107500", "101601.597500", "101603.087500", "101604.577500", "101606.067500", "101607.557500", "101609.047500", "101610.537500", "101612.027500", "101613.517500", "101615.007500", "101616.497500", "101617.987500", "101619.477500", "101620.967500", "101622.457500", "101623.947500", "101625.437500", "101626.927500", "101628.417500", "101629.907500", "101631.397500", "101632.887500", "101634.377500", "101635.867500", "101637.357500", "101638.847500", "101640.337500", "101641.827500", "101643.317500", "101644.807500", "101646.297500", "101647.787500", "101649.277500", "101650.767500", "101652.257500", "101653.747500", "101655.237500", "101656.727500", "101658.217500", "101659.707500", "101701.197500", "101702.687500", "101704.177500", "101705.667500", "101707.157500", "101708.647500", "101710.137500", "101711.627500", "101713.117500", "101714.607500", "101716.097500", "101717.587500", "101719.077500", "101720.567500", "101722.057500", "101723.547500", "101725.037500", "101726.527500", "101728.017500", "101729.507500", "101730.997500", "101732.487500", "101733.977500", "101735.467500", "101736.957500", "101738.447500", "101739.937500", "101741.427500", "101742.917500", "101744.407500", "101745.897500", "101747.387500", "101748.877500", "101750.367500", "101751.857500", "101753.347500", "101754.837500", "101756.327500", "101757.817500", "101759.307500", "101800.797500", "101802.287500", "101803.777500", "101805.267500", "101806.757500", "101808.247500", "101809.737500", "101811.227500", "101812.717500", "101814.207500", "101815.697500", "101817.187500", "101818.677500", "101820.167500", "101821.657500", "101823.147500", "101824.637500", "101826.127500", "101827.617500", "101829.107500", "101830.597500", "101832.087500", "101833.577500", "101835.067500", "101836.557500", "101838.047500", "101839.537500", "101841.027500", "101842.517500", "101844.007500", "101845.497500", "101846.987500", "101848.477500", "101849.967500", "101851.457500", "101852.947500", "101854.437500", "101855.927500", "101857.417500", "101858.907500", "101900.397500", "101901.887500", "101903.377500", "101904.867500", "101906.357500", "101907.847500", "101909.337500", "101910.827500", "101912.317500", "101913.807500", "101915.297500", "101916.787500", "101918.277500", "101919.767500", "101921.257500", "101922.747500", "101924.237500", "101925.727500", "101927.217500", "101928.707500", "101930.197500", "101931.687500", "101933.177500", "101934.667500", "101936.157500", "101937.647500", "101939.137500", "101940.627500", "101942.117500", "101943.607500", "101945.097500", "101946.587500", "101948.077500", "101949.567500", "101951.057500", "101952.547500", "101954.037500", "101955.527500", "101957.017500", "101958.507500", "101959.997500", "102001.487500", "102002.977500", "102004.467500", "102005.957500", "102007.447500", "102008.937500", "102010.427500", "102011.917500", "102013.407500", "102014.897500", "102016.387500", "102017.877500", "102019.367500", "102020.857500", "102022.347500", "102023.837500", "102025.327500", "102026.817500", "102028.307500", "102029.797500", "102031.287500", "102032.777500", "102034.267500", "102035.757500", "102037.247500", "102038.737500", "102040.227500", "102041.717500", "102043.207500", "102044.697500", "102046.187500", "102047.677500", "102049.167500", "102050.657500", "102052.147500", "102053.637500", "102055.127500", "102056.617500", "102058.107500", "102059.597500", "102101.087500", "102102.577500", "102104.067500", "102105.557500", "102107.047500", "102108.537500", "102110.027500", "102111.517500", "102113.007500", "102114.497500", "102115.987500", "102117.477500", "102118.967500", "102120.457500", "102121.947500", "102123.437500", "102124.927500", "102126.417500", "102127.907500", "102129.397500", "102130.887500", "102132.377500", "102133.867500", "102135.357500", "102136.847500", "102138.337500", "102139.827500", "102141.317500", "102142.807500", "102144.297500", "102145.787500", "102147.277500", "102148.767500", "102150.257500", "102151.747500", "102153.237500", "102154.727500", "102156.217500", "102157.707500", "102159.197500", "102200.687500", "102202.177500", "102203.667500", "102205.157500", "102206.647500", "102208.137500", "102209.627500", "102211.117500", "102212.607500", "102214.097500", "102215.587500", "102217.077500", "102218.567500", "102220.057500", "102221.547500", "102223.037500", "102224.527500", "102226.017500", "102227.507500", "102228.997500", "102230.487500", "102231.977500", "102233.467500", "102234.957500", "102236.447500", "102237.937500", "102239.427500", "102240.917500", "102242.407500", "102243.897500", "102245.387500", "102246.877500", "102248.367500", "102249.857500", "102251.347500", "102252.837500", "102254.327500", "102255.817500", "102257.307500", "102258.797500", "102300.287500", "102301.777500", "102303.267500", "102304.757500", "102306.247500", "102307.737500", "102309.227500", "102310.717500", "102312.207500", "102313.697500", "102315.187500", "102316.677500", "102318.167500", "102319.657500", "102321.147500", "102322.637500", "102324.127500", "102325.617500", "102327.107500", "102328.597500", "102330.087500", "102331.577500", "102333.067500", "102334.557500", "102336.047500", "102337.537500", "102339.027500", "102340.517500", "102342.007500", "102343.497500", "102344.987500", "102346.477500", "102347.967500", "102349.457500", "102350.947500", "102352.437500", "102353.927500", "102355.417500", "102356.907500", "102358.397500", "102359.887500", "102401.377500", "102402.867500", "102404.357500", "102405.847500", "102407.337500", "102408.827500", "102410.317500", "102411.807500", "102413.297500", "102414.787500", "102416.277500", "102417.767500", "102419.257500", "102420.747500", "102422.237500", "102423.727500", "102425.217500", "102426.707500", "102428.197500", "102429.687500", "102431.177500", "102432.667500", "102434.157500", "102435.647500", "102437.137500", "102438.627500", "102440.117500", "102441.607500", "102443.097500", "102444.587500", "102446.077500", "102447.567500", "102449.057500", "102450.547500", "102452.037500", "102453.527500", "102455.017500", "102456.507500", "102457.997500", "102459.487500", "102500.977500", "102502.467500", "102503.957500", "102505.447500", "102506.937500", "102508.427500", "102509.917500", "102511.407500", "102512.897500", "102514.387500", "102515.877500", "102517.367500", "102518.857500", "102520.347500", "102521.837500", "102523.327500", "102524.817500", "102526.307500", "102527.797500", "102529.287500", "102530.777500", "102532.267500", "102533.757500", "102535.247500", "102536.737500", "102538.227500", "102539.717500", "102541.207500", "102542.697500", "102544.187500", "102545.677500", "102547.167500", "102548.657500", "102550.147500", "102551.637500", "102553.127500", "102554.617500", "102556.107500", "102557.597500", "102559.087500", "102600.577500", "102602.067500", "102603.557500", "102605.047500", "102606.537500", "102608.027500", "102609.517500", "102611.007500", "102612.497500", "102613.987500", "102615.477500", "102616.967500", "102618.457500", "102619.947500", "102621.437500", "102622.927500", "102624.417500", "102625.907500", "102627.397500", "102628.887500", "102630.377500", "102631.867500", "102633.357500", "102634.847500", "102636.337500", "102637.827500", "102639.317500", "102640.807500", "102642.297500", "102643.787500", "102645.277500", "102646.767500", "102648.257500", "102649.747500", "102651.237500", "102652.727500", "102654.217500", "102655.707500", "102657.197500", "102658.687500", "102700.177500", "102701.667500", "102703.157500", "102704.647500", "102706.137500", "102707.627500", "102709.117500", "102710.607500", "102712.097500", "102713.587500", "102715.077500", "102716.567500", "102718.057500", "102719.547500", "102721.037500", "102722.527500"],
      "ContentTime": ["101719.333000", "101719.337000", "101719.340000", "101719.342000", "101719.345000", "101719.354000", "101719.357000", "101719.360000", "101719.363000", "101719.366000", "101719.369000", "101719.371000", "101719.374000", "101719.377000", "101719.380000", "101719.383000", "101719.385000", "101719.388000", "101719.395000", "101719.397000", "101719.400000", "101719.403000", "101719.406000", "101719.408000", "101719.411000", "101719.414000", "101719.417000", "101719.420000", "101719.422000", "101719.425000", "101719.428000", "101719.431000", "101719.434000", "101719.436000", "101719.439000", "101719.442000", "101719.445000", "101719.448000", "101739.308000", "101739.311000", "101739.314000", "101739.317000", "101739.319000", "101739.322000", "101739.325000", "101739.328000", "101739.331000", "101739.333000", "101739.336000", "101739.339000", "101739.347000", "101739.350000", "101739.366000", "101739.369000", "101739.372000", "101739.375000", "101739.378000", "101739.380000", "101759.308000", "101759.311000", "101759.314000", "101759.316000", "101759.319000", "101759.322000", "101759.325000", "101759.328000", "101759.331000", "101759.333000", "101759.336000", "101759.339000", "101759.342000", "101759.345000", "101759.347000", "101759.350000", "101759.353000", "101759.356000", "101759.358000", "101759.361000", "101819.308000", "101819.311000", "101819.314000", "101819.316000", "101819.319000", "101819.322000", "101819.325000", "101819.328000", "101819.330000", "101819.333000", "101819.336000", "101819.339000", "101819.341000", "101819.344000", "101819.347000", "101819.350000", "101819.353000", "101819.356000", "101819.358000", "101819.361000", "101859.307000", "101859.310000", "101859.313000", "101859.315000", "101859.318000", "101859.321000", "101859.324000", "101859.327000", "101859.330000", "101859.332000", "101859.335000", "101859.338000", "101859.341000", "101859.344000", "101859.400000", "101859.403000", "101859.406000", "101859.408000", "101859.411000", "101859.414000", "101859.417000", "101859.419000", "101859.422000", "101859.425000", "101859.428000", "101859.435000", "101859.438000", "101859.441000", "101859.443000", "101859.446000", "101939.307000", "101939.310000", "101939.313000", "101939.316000", "101939.318000", "101939.321000", "101939.324000", "101939.327000", "101939.330000", "101939.332000", "101939.335000", "101939.338000", "101939.341000", "101939.344000", "101939.346000", "101939.349000", "101939.352000", "101939.355000", "101939.358000", "101939.360000", "101939.363000", "101939.366000", "101939.369000", "101939.372000", "101939.374000", "101939.377000", "101939.380000", "102019.308000", "102019.311000", "102019.314000", "102019.325000", "102019.328000", "102019.331000", "102019.334000", "102019.337000", "102019.340000", "102019.343000", "102019.345000", "102019.348000", "102019.351000", "102019.354000", "102019.357000", "102019.367000", "102019.370000", "102019.372000", "102019.375000", "102019.378000", "102019.381000", "102019.384000", "102019.387000", "102019.390000", "102019.393000", "102019.395000", "102019.398000", "102059.308000", "102059.311000", "102059.321000", "102059.324000", "102059.327000", "102059.329000", "102059.332000", "102059.335000", "102059.338000", "102059.341000", "102059.344000", "102059.347000", "102059.350000", "102059.352000", "102059.355000", "102059.358000", "102059.361000", "102059.364000", "102059.367000", "102059.370000", "102059.373000", "102059.375000", "102059.378000", "102059.381000", "102059.384000", "102059.387000", "102059.390000", "102139.307000", "102139.310000", "102139.313000", "102139.315000", "102139.318000", "102139.321000", "102139.324000", "102139.327000", "102139.330000", "102139.333000", "102139.335000", "102139.338000", "102139.341000", "102139.344000", "102139.347000", "102139.350000", "102139.353000", "102139.356000", "102139.359000", "102139.361000", "102139.364000", "102139.367000", "102139.370000", "102139.373000", "102139.376000", "102139.379000", "102139.381000", "102159.307000", "102159.310000", "102159.313000", "102159.316000", "102159.319000", "102159.322000", "102159.324000", "102159.327000", "102159.330000", "102159.333000", "102159.336000", "102159.339000", "102159.341000", "102239.308000", "102239.311000", "102239.314000", "102239.317000", "102239.319000", "102239.322000", "102239.325000", "102239.328000", "102239.331000", "102239.333000", "102239.336000", "102239.339000", "102239.342000", "102239.345000", "102239.347000", "102239.350000", "102239.353000", "102239.356000", "102239.359000", "102239.361000", "102239.364000", "102239.367000", "102239.378000", "102239.381000", "102239.384000", "102239.387000", "102239.390000", "102319.308000", "102319.311000", "102319.314000", "102319.317000", "102319.319000", "102319.322000", "102319.325000", "102319.328000", "102319.331000", "102319.334000", "102319.336000", "102319.339000", "102319.342000", "102319.345000", "102319.348000", "102319.350000", "102319.353000", "102319.356000", "102319.359000", "102319.362000", "102319.365000", "102319.367000", "102319.376000", "102319.379000", "102319.382000", "102319.385000", "102319.388000", "102359.307000", "102359.310000", "102359.313000", "102359.315000", "102359.318000", "102359.321000", "102359.324000", "102359.327000", "102359.330000", "102359.332000", "102359.335000", "102359.338000", "102359.341000", "102359.344000", "102359.346000", "102359.349000", "102359.352000", "102359.355000", "102359.358000", "102359.360000", "102359.363000", "102359.366000", "102359.369000", "102359.372000", "102359.374000", "102359.377000", "102359.380000", "102439.308000", "102439.311000", "102439.314000", "102439.317000", "102439.320000", "102439.322000", "102439.325000", "102439.328000", "102439.331000", "102439.334000", "102439.337000", "102439.340000", "102439.343000", "102439.346000", "102439.349000", "102439.352000", "102439.354000", "102439.357000", "102439.360000", "102439.363000", "102439.366000", "102439.369000", "102439.371000", "102439.374000", "102439.377000", "102439.380000", "102519.308000", "102519.311000", "102519.314000", "102519.317000", "102519.320000", "102519.323000", "102519.326000", "102519.329000", "102519.332000", "102519.335000", "102519.338000", "102519.340000", "102519.343000", "102519.346000", "102519.349000", "102519.352000", "102519.355000", "102519.358000", "102519.360000", "102519.363000", "102519.366000", "102519.369000", "102519.372000", "102519.375000", "102519.377000", "102519.380000", "102519.383000", "102559.307000", "102559.310000", "102559.313000", "102559.316000", "102559.319000", "102559.321000", "102559.324000", "102559.327000", "102559.330000", "102559.333000", "102559.336000", "102559.338000", "102559.341000", "102559.344000", "102559.347000", "102559.350000", "102559.353000", "102559.364000", "102559.366000", "102559.369000", "102559.372000", "102559.375000", "102559.378000", "102559.381000", "102559.383000", "102559.386000", "102559.389000", "102639.307000", "102639.310000", "102639.313000", "102639.316000", "102639.318000", "102639.321000", "102639.324000", "102639.327000", "102639.330000", "102639.333000", "102639.335000", "102639.338000", "102639.341000", "102639.344000", "102639.346000", "102639.349000", "102639.352000", "102639.364000", "102639.366000", "102639.385000", "102639.388000", "102639.391000", "102639.394000", "102639.397000", "102639.400000", "102639.402000", "102639.405000", "102719.308000", "102719.311000", "102719.314000", "102719.317000", "102719.320000", "102719.322000", "102719.325000", "102719.328000", "102719.331000", "102719.334000", "102719.337000", "102719.345000", "102719.348000", "102719.351000", "102719.354000", "102719.357000", "102719.359000", "102719.362000", "102719.365000", "102719.368000", "102719.371000", "102719.374000", "102719.377000", "102719.379000", "102719.382000", "102719.385000", "102719.388000", "102724.900000", "102724.903000", "102724.906000", "102724.909000"],
