{
  "AcquisitionMatrixPE": 104,
  "AcquisitionNumber": 1,
  "AcquisitionTime": "10:03:27.437500",
  "BandwidthPerPixelPhaseEncode": 17.17,
  "BaseResolution": 104,
  "BodyPartExamined": "BRAIN",
  "CoilString": "HC1-7;NC1_2",
  "ConsistencyInfo": "N4_VE11C_LATEST_20160120",
  "ConversionSoftware": "dcm2niix",
  "ConversionSoftwareVersion": "v1.0.20190720  (JP2:OpenJPEG) GCC7.3.0",
  "DerivedVendorReportedEchoSpacing": 0.000560011,
  "DeviceSerialNumber": "167006",
  "DwellTime": 2.1e-06,
  "EchoTime": 0.037,
  "EchoTrainLength": 104,
  "EffectiveEchoSpacing": 0.000560011,
  "FlipAngle": 52,
  "ImageComments": "Unaliased_MB4_PE3_LB",
  "ImageOrientationPatientDICOM": [0.998379, 0.000148993, -0.0569132, -0.0125466, 0.975971, -0.217539],
  "ImageType": [
    "ORIGINAL",
    "PRIMARY",
    "M",
    "MB",
    "ND",
    "MOSAIC"
],
  "ImagingFrequency": 123.259,
  "InPlanePhaseEncodingDirectionDICOM": "COL",
  "InstitutionAddress": "Chemin_Queen-Mary_4565_Montreal_District_CA_H3W_1W5",
  "InstitutionName": "IUGM",
  "InstitutionalDepartmentName": "Department",
  "MRAcquisitionType": "2D",
  "MagneticFieldStrength": 3,
  "Manufacturer": "Siemens",
  "ManufacturersModelName": "Prisma_fit",
  "Modality": "MR",
  "MultibandAccelerationFactor": 4,
  "PartialFourier": 1,
  "PatientPosition": "HFS",
  "PercentPhaseFOV": 100,
  "PhaseEncodingDirection": "j",
  "PhaseEncodingSteps": 104,
  "PhaseResolution": 1,
  "PixelBandwidth": 2290,
  "ProcedureStepDescription": "video_friends",
  "ProtocolName": "func_task-friends-s01e12b",
  "PulseSequenceDetails": "%CustomerSeq%_cmrr_mbep2d_bold",
  "ReceiveCoilActiveElements": "HC1-7;NC1,2",
  "ReceiveCoilName": "HeadNeck_64",
  "ReconMatrixPE": 104,
  "RepetitionTime": 1.49,
  "SAR": 0.033998,
  "ScanOptions": "FS",
  "ScanningSequence": "EP",
  "SequenceName": "epfid2d1_104",
  "SequenceVariant": "SK_SS",
  "SeriesDescription": "func_task-friends-s01e12b",
  "SeriesNumber": 22,
  "ShimSetting": [605, -7258, -8848, 593, -25, -307, 33, 70],
  "SliceThickness": 2,
  "SliceTiming": [0, 0.785, 0.0975, 0.8825, 0.1975, 0.98, 0.295, 1.0775, 0.3925, 1.175, 0.49, 1.275, 0.5875, 1.3725, 0.6875, 0, 0.785, 0.0975, 0.8825, 0.1975, 0.98, 0.295, 1.0775, 0.3925, 1.175, 0.49, 1.275, 0.5875, 1.3725, 0.6875, 0, 0.785, 0.0975, 0.8825, 0.1975, 0.98, 0.295, 1.0775, 0.3925, 1.175, 0.49, 1.275, 0.5875, 1.3725, 0.6875, 0, 0.785, 0.0975, 0.8825, 0.1975, 0.98, 0.295, 1.0775, 0.3925, 1.175, 0.49, 1.275, 0.5875, 1.3725, 0.6875],
  "SoftwareVersions": "syngo_MR_E11",
  "SpacingBetweenSlices": 2,
  "StationName": "MRC35049",
  "TaskName": "friends",
  "TotalReadoutTime": 0.0576811,
  "TxRefAmp": 219.065,
  "WipMemBlock": "027448f6-1c5a-4b74-a984-cd7f52a1066f||Sequence: R016 ve11c/master r/e634e98; Dec 19 2017 11:00:25 by eja",
  "dcmmeta_affine": [
    [-1.996758222579956, -0.025093229487538338, -0.11102639883756638, 103.23377990722656],
    [-0.00029798681498505175, 1.951941728591919, -0.4358018636703491, -82.69718170166016],
    [-0.11382637917995453, 0.4350789487361908, 1.9487816095352173, -51.66813278198242],
    [0.0, 0.0, 0.0, 1.0]
],
  "dcmmeta_reorient_transform": [
    [0.0, -1.0, 0.0, 103.0],
    [1.0, 0.0, 0.0, 0.0],
    [0.0, 0.0, 1.0, 0.0],
    [0.0, 0.0, 0.0, 1.0]
],
  "dcmmeta_shape": [104, 104, 60, 471],
  "dcmmeta_slice_dim": 2,
  "dcmmeta_version": 0.6,
  "global": {
    "const": {
      "AcquisitionMatrix": [104, 0, 0, 104],
      "AngioFlag": "N",
      "BitsAllocated": 16,
      "BitsStored": 16,
      "BodyPartExamined": "BRAIN",
      "Columns": 832,
      "EchoNumbers": 1,
      "EchoTime": 37.0,
      "EchoTrainLength": 104,
      "FlipAngle": 52.0,
      "HighBit": 15,
      "ImageOrientationPatient": [0.99837911976524, 0.00014899340255, -0.0569131884343, -0.0125466147022, 0.9759708811747, -0.2175394712658],
      "ImagePositionPatient": [-818.33524190684, -828.96808895027, 192.94653395198],
      "ImageType": [
        "ORIGINAL",
        "PRIMARY",
        "M",
        "MB",
        "ND",
        "MOSAIC"
],
      "ImagedNucleus": "1H",
      "ImagingFrequency": 123.259429,
      "InPlanePhaseEncodingDirection": "COL",
      "MRAcquisitionType": "2D",
      "MagneticFieldStrength": 3.0,
      "Manufacturer": "SIEMENS",
      "ManufacturerModelName": "Prisma_fit",
      "Modality": "MR",
      "NumberOfAverages": 1.0,
      "NumberOfPhaseEncodingSteps": 104,
      "PercentPhaseFieldOfView": 100.0,
      "PercentSampling": 100.0,
      "PerformedProcedureStepStartTime": "085904.045000",
      "PhotometricInterpretation": "MONOCHROME2",
      "PixelBandwidth": 2290.0,
      "PixelRepresentation": 0,
      "PixelSpacing": [2.0, 2.0],
      "ProtocolName": "func_task-friends-s01e12b",
      "RepetitionTime": 1490.0,
      "Rows": 832,
      "SAR": 0.03399803453199,
      "SamplesPerPixel": 1,
      "ScanOptions": "FS",
      "ScanningSequence": "EP",
      "SequenceName": "epfid2d1_104",
      "SequenceVariant": [
        "SK",
        "SS"
],
      "SeriesDescription": "func_task-friends-s01e12b",
      "SeriesNumber": 22,
      "SeriesTime": "100447.908000",
      "SliceLocation": -38.05599958471,
      "SliceThickness": 2.0,
      "SmallestImagePixelValue": 0,
      "SoftwareVersions": "syngo MR E11",
      "SpacingBetweenSlices": 1.9999999170211,
      "SpecificCharacterSet": "ISO_IR 100",
      "StudyID": "1",
      "StudyTime": "085903.909000",
      "TransmitCoilName": "Body",
      "VariableFlipAngleFlag": "N",
      "WindowCenterWidthExplanation": "Algo1",
      "dBdt": 0.0},
    "slices": {}
  },
  "time": {
    "samples": {
      "AcquisitionNumber": [1, 2, 3, 4, 5, 6, 7, 8, 9, 10, 11, 12, 13, 14, 15, 16, 17, 18, 19, 20, 21, 22, 23, 24, 25, 26, 27, 28, 29, 30, 31, 32, 33, 34, 35, 36, 37, 38, 39, 40, 41, 42, 43, 44, 45, 46, 47, 48, 49, 50, 51, 52, 53, 54, 55, 56, 57, 58, 59, 60, 61, 62, 63, 64, 65, 66, 67, 68, 69, 70, 71, 72, 73, 74, 75, 76, 77, 78, 79, 80, 81, 82, 83, 84, 85, 86, 87, 88, 89, 90, 91, 92, 93, 94, 95, 96, 97, 98, 99, 100, 101, 102, 103, 104, 105, 106, 107, 108, 109, 110, 111, 112, 113, 114, 115, 116, 117, 118, 119, 120, 121, 122, 123, 124, 125, 126, 127, 128, 129, 130, 131, 132, 133, 134, 135, 136, 137, 138, 139, 140, 141, 142, 143, 144, 145, 146, 147, 148, 149, 150, 151, 152, 153, 154, 155, 156, 157, 158, 159, 160, 161, 162, 163, 164, 165, 166, 167, 168, 169, 170, 171, 172, 173, 174, 175, 176, 177, 178, 179, 180, 181, 182, 183, 184, 185, 186, 187, 188, 189, 190, 191, 192, 193, 194, 195, 196, 197, 198, 199, 200, 201, 202, 203, 204, 205, 206, 207, 208, 209, 210, 211, 212, 213, 214, 215, 216, 217, 218, 219, 220, 221, 222, 223, 224, 225, 226, 227, 228, 229, 230, 231, 232, 233, 234, 235, 236, 237, 238, 239, 240, 241, 242, 243, 244, 245, 246, 247, 248, 249, 250, 251, 252, 253, 254, 255, 256, 257, 258, 259, 260, 261, 262, 263, 264, 265, 266, 267, 268, 269, 270, 271, 272, 273, 274, 275, 276, 277, 278, 279, 280, 281, 282, 283, 284, 285, 286, 287, 288, 289, 290, 291, 292, 293, 294, 295, 296, 297, 298, 299, 300, 301, 302, 303, 304, 305, 306, 307, 308, 309, 310, 311, 312, 313, 314, 315, 316, 317, 318, 319, 320, 321, 322, 323, 324, 325, 326, 327, 328, 329, 330, 331, 332, 333, 334, 335, 336, 337, 338, 339, 340, 341, 342, 343, 344, 345, 346, 347, 348, 349, 350, 351, 352, 353, 354, 355, 356, 357, 358, 359, 360, 361, 362, 363, 364, 365, 366, 367, 368, 369, 370, 371, 372, 373, 374, 375, 376, 377, 378, 379, 380, 381, 382, 383, 384, 385, 386, 387, 388, 389, 390, 391, 392, 393, 394, 395, 396, 397, 398, 399, 400, 401, 402, 403, 404, 405, 406, 407, 408, 409, 410, 411, 412, 413, 414, 415, 416, 417, 418, 419, 420, 421, 422, 423, 424, 425, 426, 427, 428, 429, 430, 431, 432, 433, 434, 435, 436, 437, 438, 439, 440, 441, 442, 443, 444, 445, 446, 447, 448, 449, 450, 451, 452, 453, 454, 455, 456, 457, 458, 459, 460, 461, 462, 463, 464, 465, 466, 467, 468, 469, 470, 471],
      "AcquisitionTime": ["100327.437500", "100328.927500", "100330.417500", "100331.907500", "100333.397500", "100334.887500", "100336.377500", "100337.867500", "100339.357500", "100340.847500", "100342.337500", "100343.827500", "100345.317500", "100346.807500", "100348.297500", "100349.787500", "100351.277500", "100352.767500", "100354.257500", "100355.747500", "100357.237500", "100358.727500", "100400.217500", "100401.707500", "100403.197500", "100404.687500", "100406.177500", "100407.667500", "100409.157500", "100410.647500", "100412.137500", "100413.627500", "100415.117500", "100416.607500", "100418.097500", "100419.587500", "100421.077500", "100422.567500", "100424.057500", "100425.547500", "100427.037500", "100428.527500", "100430.017500", "100431.507500", "100432.997500", "100434.487500", "100435.977500", "100437.467500", "100438.957500", "100440.447500", "100441.937500", "100443.427500", "100444.917500", "100446.407500", "100447.897500", "100449.387500", "100450.877500", "100452.367500", "100453.857500", "100455.347500", "100456.837500", "100458.327500", "100459.817500", "100501.307500", "100502.797500", "100504.287500", "100505.777500", "100507.267500", "100508.757500", "100510.247500", "100511.737500", "100513.227500", "100514.717500", "100516.207500", "100517.697500", "100519.187500", "100520.677500", "100522.167500", "100523.657500", "100525.147500", "100526.637500", "100528.127500", "100529.617500", "100531.107500", "100532.597500", "100534.087500", "100535.577500", "100537.067500", "100538.557500", "100540.047500", "100541.537500", "100543.027500", "100544.517500", "100546.007500", "100547.497500", "100548.987500", "100550.477500", "100551.967500", "100553.457500", "100554.947500", "100556.437500", "100557.927500", "100559.417500", "100600.907500", "100602.397500", "100603.887500", "100605.377500", "100606.867500", "100608.357500", "100609.847500", "100611.337500", "100612.827500", "100614.317500", "100615.807500", "100617.297500", "100618.787500", "100620.277500", "100621.767500", "100623.257500", "100624.747500", "100626.237500", "100627.727500", "100629.217500", "100630.707500", "100632.197500", "100633.687500", "100635.177500", "100636.667500", "100638.157500", "100639.647500", "100641.137500", "100642.627500", "100644.117500", "100645.607500", "100647.097500", "100648.587500", "100650.077500", "100651.567500", "100653.057500", "100654.547500", "100656.037500", "100657.527500", "100659.017500", "100700.507500", "100701.997500", "100703.487500", "100704.977500", "100706.467500", "100707.957500", "100709.447500", "100710.937500", "100712.427500", "100713.917500", "100715.407500", "100716.897500", "100718.387500", "100719.877500", "100721.367500", "100722.857500", "100724.347500", "100725.837500", "100727.327500", "100728.817500", "100730.307500", "100731.797500", "100733.287500", "100734.777500", "100736.267500", "100737.757500", "100739.247500", "100740.737500", "100742.227500", "100743.717500", "100745.207500", "100746.697500", "100748.187500", "100749.677500", "100751.167500", "100752.657500", "100754.147500", "100755.637500", "100757.127500", "100758.617500", "100800.107500", "100801.597500", "100803.087500", "100804.577500", "100806.067500", "100807.557500", "100809.047500", "100810.537500", "100812.027500", "100813.517500", "100815.007500", "100816.497500", "100817.987500", "100819.477500", "100820.967500", "100822.457500", "100823.947500", "100825.437500", "100826.927500", "100828.417500", "100829.907500", "100831.397500", "100832.887500", "100834.377500", "100835.867500", "100837.357500", "100838.847500", "100840.337500", "100841.827500", "100843.317500", "100844.807500", "100846.297500", "100847.787500", "100849.277500", "100850.767500", "100852.257500", "100853.747500", "100855.237500", "100856.727500", "100858.217500", "100859.707500", "100901.197500", "100902.687500", "100904.177500", "100905.667500", "100907.157500", "100908.647500", "100910.137500", "100911.627500", "100913.117500", "100914.607500", "100916.097500", "100917.587500", "100919.077500", "100920.567500", "100922.057500", "100923.547500", "100925.037500", "100926.527500", "100928.017500", "100929.507500", "100930.997500", "100932.487500", "100933.977500", "100935.467500", "100936.957500", "100938.447500", "100939.937500", "100941.427500", "100942.917500", "100944.407500", "100945.897500", "100947.387500", "100948.877500", "100950.367500", "100951.857500", "100953.347500", "100954.837500", "100956.327500", "100957.817500", "100959.307500", "101000.797500", "101002.287500", "101003.777500", "101005.267500", "101006.757500", "101008.247500", "101009.737500", "101011.227500", "101012.717500", "101014.207500", "101015.697500", "101017.187500", "101018.677500", "101020.167500", "101021.657500", "101023.147500", "101024.637500", "101026.127500", "101027.617500", "101029.107500", "101030.597500", "101032.087500", "101033.577500", "101035.067500", "101036.557500", "101038.047500", "101039.537500", "101041.027500", "101042.517500", "101044.007500", "101045.497500", "101046.987500", "101048.477500", "101049.967500", "101051.457500", "101052.947500", "101054.437500", "101055.927500", "101057.417500", "101058.907500", "101100.397500", "101101.887500", "101103.377500", "101104.867500", "101106.357500", "101107.847500", "101109.337500", "101110.827500", "101112.317500", "101113.807500", "101115.297500", "101116.787500", "101118.277500", "101119.767500", "101121.257500", "101122.747500", "101124.237500", "101125.727500", "101127.217500", "101128.707500", "101130.197500", "101131.687500", "101133.177500", "101134.667500", "101136.157500", "101137.647500", "101139.137500", "101140.627500", "101142.117500", "101143.607500", "101145.097500", "101146.587500", "101148.077500", "101149.567500", "101151.057500", "101152.547500", "101154.037500", "101155.527500", "101157.017500", "101158.507500", "101159.997500", "101201.487500", "101202.977500", "101204.467500", "101205.957500", "101207.447500", "101208.937500", "101210.427500", "101211.917500", "101213.407500", "101214.897500", "101216.387500", "101217.877500", "101219.367500", "101220.857500", "101222.347500", "101223.837500", "101225.327500", "101226.817500", "101228.307500", "101229.797500", "101231.287500", "101232.777500", "101234.267500", "101235.757500", "101237.247500", "101238.737500", "101240.227500", "101241.717500", "101243.207500", "101244.697500", "101246.187500", "101247.677500", "101249.167500", "101250.657500", "101252.147500", "101253.637500", "101255.127500", "101256.617500", "101258.107500", "101259.597500", "101301.087500", "101302.577500", "101304.067500", "101305.557500", "101307.047500", "101308.537500", "101310.027500", "101311.517500", "101313.007500", "101314.497500", "101315.987500", "101317.477500", "101318.967500", "101320.457500", "101321.947500", "101323.437500", "101324.927500", "101326.417500", "101327.907500", "101329.397500", "101330.887500", "101332.377500", "101333.867500", "101335.357500", "101336.847500", "101338.337500", "101339.827500", "101341.317500", "101342.807500", "101344.297500", "101345.787500", "101347.277500", "101348.767500", "101350.257500", "101351.747500", "101353.237500", "101354.727500", "101356.217500", "101357.707500", "101359.197500", "101400.687500", "101402.177500", "101403.667500", "101405.157500", "101406.647500", "101408.137500", "101409.627500", "101411.117500", "101412.607500", "101414.097500", "101415.587500", "101417.077500", "101418.567500", "101420.057500", "101421.547500", "101423.037500", "101424.527500", "101426.017500", "101427.507500", "101428.997500", "101430.487500", "101431.977500", "101433.467500", "101434.957500", "101436.447500", "101437.937500", "101439.427500", "101440.917500", "101442.407500", "101443.897500", "101445.387500", "101446.877500", "101448.367500", "101449.857500", "101451.347500", "101452.837500", "101454.327500", "101455.817500", "101457.307500", "101458.797500", "101500.287500", "101501.777500", "101503.267500", "101504.757500", "101506.247500", "101507.737500"],
      "ContentTime": ["100447.910000", "100447.914000", "100447.916000", "100447.919000", "100447.922000", "100447.941000", "100447.943000", "100447.946000", "100447.949000", "100447.952000", "100447.955000", "100447.958000", "100447.961000", "100447.964000", "100447.967000", "100447.970000", "100447.972000", "100447.980000", "100447.983000", "100447.985000", "100447.988000", "100447.991000", "100447.994000", "100447.997000", "100448.001000", "100448.003000", "100507.877000", "100507.880000", "100507.883000", "100507.885000", "100507.888000", "100507.891000", "100507.894000", "100507.904000", "100507.907000", "100507.910000", "100507.913000", "100507.916000", "100507.919000", "100507.922000", "100507.924000", "100507.927000", "100507.930000", "100507.933000", "100507.936000", "100507.938000", "100527.877000", "100527.880000", "100527.883000", "100527.885000", "100527.888000", "100527.891000", "100527.894000", "100527.897000", "100527.899000", "100527.902000", "100527.905000", "100527.908000", "100527.910000", "100527.913000", "100527.916000", "100527.919000", "100527.922000", "100527.924000", "100527.927000", "100527.930000", "100547.877000", "100547.880000", "100547.882000", "100547.885000", "100547.888000", "100547.891000", "100547.894000", "100547.896000", "100547.899000", "100547.902000", "100547.905000", "100547.908000", "100547.910000", "100547.923000", "100547.926000", "100547.929000", "100547.932000", "100547.934000", "100547.937000", "100547.940000", "100607.876000", "100607.879000", "100607.882000", "100607.884000", "100607.887000", "100607.890000", "100607.893000", "100607.896000", "100607.898000", "100607.901000", "100607.904000", "100607.907000", "100607.910000", "100607.912000", "100607.915000", "100607.918000", "100607.921000", "100607.924000", "100607.926000", "100607.929000", "100647.876000", "100647.879000", "100647.882000", "100647.885000", "100647.887000", "100647.890000", "100647.893000", "100647.896000", "100647.899000", "100647.901000", "100647.910000", "100647.913000", "100647.915000", "100647.918000", "100647.921000", "100647.924000", "100647.927000", "100647.929000", "100647.932000", "100647.935000", "100647.938000", "100647.941000", "100647.943000", "100647.946000", "100647.949000", "100647.952000", "100647.955000", "100647.958000", "100727.877000", "100727.880000", "100727.883000", "100727.886000", "100727.888000", "100727.891000", "100727.894000", "100727.897000", "100727.900000", "100727.902000", "100727.905000", "100727.908000", "100727.911000", "100727.914000", "100727.916000", "100727.919000", "100727.922000", "100727.925000", "100727.928000", "100727.930000", "100727.933000", "100727.936000", "100727.939000", "100727.942000", "100727.944000", "100727.947000", "100727.964000", "100807.877000", "100807.880000", "100807.883000", "100807.885000", "100807.888000", "100807.891000", "100807.894000", "100807.897000", "100807.900000", "100807.902000", "100807.905000", "100807.908000", "100807.911000", "100807.914000", "100807.916000", "100807.919000", "100807.922000", "100807.925000", "100807.928000", "100807.931000", "100807.933000", "100807.936000", "100807.939000", "100807.942000", "100807.945000", "100807.947000", "100807.950000", "100847.876000", "100847.892000", "100847.895000", "100847.898000", "100847.900000", "100847.903000", "100847.906000", "100847.909000", "100847.912000", "100847.915000", "100847.923000", "100847.925000", "100847.928000", "100847.931000", "100847.934000", "100847.937000", "100847.940000", "100847.943000", "100847.945000", "100847.948000", "100847.951000", "100847.954000", "100847.957000", "100847.959000", "100847.962000", "100847.965000", "100927.876000", "100927.879000", "100927.882000", "100927.884000", "100927.887000", "100927.890000", "100927.893000", "100927.896000", "100927.899000", "100927.901000", "100927.904000", "100927.907000", "100927.910000", "100927.913000", "100927.916000", "100927.918000", "100927.921000", "100927.924000", "100927.927000", "100927.930000", "100927.932000", "100927.935000", "100927.938000", "100927.941000", "100927.944000", "100927.947000", "100927.949000", "101007.877000", "101007.880000", "101007.883000", "101007.886000", "101007.889000", "101007.891000", "101007.894000", "101007.897000", "101007.900000", "101007.903000", "101007.905000", "101007.908000", "101007.911000", "101007.914000", "101007.917000", "101007.920000", "101007.922000", "101007.925000", "101007.928000", "101007.931000", "101007.934000", "101007.936000", "101007.939000", "101007.942000", "101007.945000", "101007.948000", "101007.951000", "101047.876000", "101047.879000", "101047.882000", "101047.885000", "101047.887000", "101047.890000", "101047.893000", "101047.896000", "101047.899000", "101047.901000", "101047.904000", "101047.907000", "101047.910000", "101047.913000", "101047.915000", "101047.918000", "101047.921000", "101047.924000", "101047.927000", "101047.929000", "101047.932000", "101047.935000", "101047.938000", "101047.941000", "101047.944000", "101047.946000", "101047.949000", "101127.876000", "101127.879000", "101127.882000", "101127.885000", "101127.887000", "101127.890000", "101127.893000", "101127.896000", "101127.899000", "101127.901000", "101127.904000", "101127.907000", "101127.910000", "101127.913000", "101127.915000", "101127.918000", "101127.921000", "101127.924000", "101127.927000", "101127.929000", "101127.932000", "101127.935000", "101127.938000", "101127.941000", "101127.944000", "101127.946000", "101127.949000", "101207.877000", "101207.880000", "101207.883000", "101207.885000", "101207.888000", "101207.891000", "101207.894000", "101207.897000", "101207.900000", "101207.902000", "101207.905000", "101207.908000", "101207.911000", "101207.914000", "101207.917000", "101207.919000", "101207.922000", "101207.925000", "101207.928000", "101207.931000", "101207.933000", "101207.936000", "101207.939000", "101207.942000", "101207.945000", "101207.947000", "101207.950000", "101247.877000", "101247.880000", "101247.883000", "101247.886000", "101247.888000", "101247.891000", "101247.894000", "101247.897000", "101247.900000", "101247.903000", "101247.905000", "101247.908000", "101247.911000", "101247.914000", "101247.917000", "101247.919000", "101247.922000", "101247.925000", "101247.928000", "101247.931000", "101247.933000", "101247.936000", "101247.939000", "101247.942000", "101247.945000", "101247.948000", "101247.950000", "101327.876000", "101327.879000", "101327.882000", "101327.884000", "101327.887000", "101327.890000", "101327.893000", "101327.896000", "101327.899000", "101327.902000", "101327.904000", "101327.907000", "101327.910000", "101327.913000", "101327.916000", "101327.919000", "101327.921000", "101327.924000", "101327.927000", "101327.930000", "101327.933000", "101327.935000", "101327.938000", "101327.941000", "101327.944000", "101327.946000", "101407.876000", "101407.879000", "101407.882000", "101407.884000", "101407.887000", "101407.890000", "101407.893000", "101407.896000", "101407.899000", "101407.901000", "101407.904000", "101407.907000", "101407.910000", "101407.913000", "101407.916000", "101407.919000", "101407.921000", "101407.924000", "101407.927000", "101407.930000", "101407.933000", "101407.936000", "101407.938000", "101407.941000", "101407.944000", "101407.947000", "101407.950000", "101447.877000", "101447.880000", "101447.883000", "101447.886000", "101447.888000", "101447.891000", "101447.894000", "101447.897000", "101447.900000", "101447.902000", "101447.905000", "101447.916000", "101447.919000", "101447.922000", "101447.924000", "101447.927000", "101447.930000", "101447.933000", "101447.936000", "101447.938000", "101447.941000", "101447.944000", "101447.947000", "101447.950000", "101447.953000", "101447.955000", "101447.958000", "101509.452000", "101509.455000", "101509.458000", "101509.461000", "101509.464000", "101509.466000", "101509.469000", "101509.472000", "101509.475000", "101509.478000", "101509.481000", "101509.484000", "101509.487000", "101509.490000", "101509.493000"],
