{
  "AcquisitionMatrixPE": 104,
  "AcquisitionNumber": 1,
  "AcquisitionTime": "11:10:15.685000",
  "BandwidthPerPixelPhaseEncode": 17.17,
  "BaseResolution": 104,
  "BodyPartExamined": "BRAIN",
  "CoilString": "HC1-7;NC1_2",
  "ConsistencyInfo": "N4_VE11C_LATEST_20160120",
  "ConversionSoftware": "dcm2niix",
  "ConversionSoftwareVersion": "v1.0.20190902",
  "DerivedVendorReportedEchoSpacing": 0.000560011,
  "DeviceSerialNumber": "167006",
  "DwellTime": 2.1e-06,
  "EchoTime": 0.037,
  "EchoTrainLength": 104,
  "EffectiveEchoSpacing": 0.000560011,
  "FlipAngle": 52,
  "ImageComments": "Unaliased_MB4_PE3_LB",
  "ImageOrientationPatientDICOM": [0.999703, 0.0222081, 0.0100781, -0.0165772, 0.921892, -0.387091],
  "ImageType": [
    "ORIGINAL",
    "PRIMARY",
    "M",
    "MB",
    "ND",
    "MOSAIC"
],
  "ImagingFrequency": 123.259,
  "InPlanePhaseEncodingDirectionDICOM": "COL",
  "InstitutionAddress": "Chemin_Queen-Mary_4565_Montreal_District_CA_H3W_1W5",
  "InstitutionName": "IUGM",
  "InstitutionalDepartmentName": "Department",
  "MRAcquisitionType": "2D",
  "MagneticFieldStrength": 3,
  "Manufacturer": "Siemens",
  "ManufacturersModelName": "Prisma_fit",
  "Modality": "MR",
  "MultibandAccelerationFactor": 4,
  "PartialFourier": 1,
  "PatientPosition": "HFS",
  "PercentPhaseFOV": 100,
  "PhaseEncodingDirection": "j",
  "PhaseEncodingSteps": 104,
  "PhaseResolution": 1,
  "PixelBandwidth": 2290,
  "ProcedureStepDescription": "video_friends",
  "ProtocolName": "func_task-friends-s05e01b",
  "PulseSequenceDetails": "%CustomerSeq%_cmrr_mbep2d_bold",
  "ReceiveCoilActiveElements": "HC1-7;NC1,2",
  "ReceiveCoilName": "HeadNeck_64",
  "ReconMatrixPE": 104,
  "RepetitionTime": 1.49,
  "SAR": 0.0378955,
  "ScanOptions": "FS",
  "ScanningSequence": "EP",
  "SequenceName": "epfid2d1_104",
  "SequenceVariant": "SK_SS",
  "SeriesDescription": "func_task-friends-s05e01b",
  "SeriesNumber": 11,
  "ShimSetting": [638, -7187, -8829, 633, 74, -20, 16, 0],
  "SliceThickness": 2,
  "SliceTiming": [0, 0.785, 0.0975, 0.8825, 0.195, 0.98, 0.295, 1.0775, 0.3925, 1.175, 0.49, 1.2725, 0.5875, 1.3725, 0.685, 0, 0.785, 0.0975, 0.8825, 0.195, 0.98, 0.295, 1.0775, 0.3925, 1.175, 0.49, 1.2725, 0.5875, 1.3725, 0.685, 0, 0.785, 0.0975, 0.8825, 0.195, 0.98, 0.295, 1.0775, 0.3925, 1.175, 0.49, 1.2725, 0.5875, 1.3725, 0.685, 0, 0.785, 0.0975, 0.8825, 0.195, 0.98, 0.295, 1.0775, 0.3925, 1.175, 0.49, 1.2725, 0.5875, 1.3725, 0.685],
  "SoftwareVersions": "syngo_MR_E11",
  "SpacingBetweenSlices": 2,
  "StationName": "MRC35049",
  "TaskName": "s05e01b",
  "TotalReadoutTime": 0.0576811,
  "TxRefAmp": 246.747,
  "WipMemBlock": "520f0fd4-b398-4dbc-b931-294f232d028a||Sequence: R016 ve11c/master r/e634e98; Dec 19 2017 11:00:25 by eja",
  "dcmmeta_affine": [
    [-1.9994051456451416, -0.0331544354557991, 0.03577502816915512, 104.15343475341797],
    [-0.04441613331437111, 1.8437848091125488, -0.7736179232597351, -64.75372314453125],
    [0.020156294107437134, 0.7741823196411133, 1.8439728021621704, -64.9539794921875],
    [0.0, 0.0, 0.0, 1.0]
],
  "dcmmeta_reorient_transform": [
    [0.0, -1.0, 0.0, 103.0],
    [1.0, 0.0, 0.0, 0.0],
    [0.0, 0.0, 1.0, 0.0],
    [0.0, 0.0, 0.0, 1.0]
],
  "dcmmeta_shape": [104, 104, 60, 474],
  "dcmmeta_slice_dim": 2,
  "dcmmeta_version": 0.6,
  "global": {
    "const": {
      "AcquisitionMatrix": [104, 0, 0, 104],
      "AngioFlag": "N",
      "BitsAllocated": 16,
      "BitsStored": 16,
      "BodyPartExamined": "BRAIN",
      "Columns": 832,
      "EchoNumbers": 1,
      "EchoTime": 37.0,
      "EchoTrainLength": 104,
      "FlipAngle": 52.0,
      "HighBit": 15,
      "ImageOrientationPatient": [0.99970257213263, 0.02220806659064, 0.01007814713672, -0.0165772168708, 0.92189241353614, -0.3870911698106],
      "ImagePositionPatient": [-816.45378853877, -812.46126499282, 289.25228466325],
      "ImageType": [
        "ORIGINAL",
        "PRIMARY",
        "M",
        "MB",
        "ND",
        "MOSAIC"
],
      "ImagedNucleus": "1H",
      "ImagingFrequency": 123.258973,
      "InPlanePhaseEncodingDirection": "COL",
      "MRAcquisitionType": "2D",
      "MagneticFieldStrength": 3.0,
      "Manufacturer": "SIEMENS",
      "ManufacturerModelName": "Prisma_fit",
      "Modality": "MR",
      "NumberOfAverages": 1.0,
      "NumberOfPhaseEncodingSteps": 104,
      "PercentPhaseFieldOfView": 100.0,
      "PercentSampling": 100.0,
      "PerformedProcedureStepStartTime": "103201.059000",
      "PhotometricInterpretation": "MONOCHROME2",
      "PixelBandwidth": 2290.0,
      "PixelRepresentation": 0,
      "PixelSpacing": [2.0, 2.0],
      "ProtocolName": "func_task-friends-s05e01b",
      "RepetitionTime": 1490.0,
      "Rows": 832,
      "SAR": 0.03789554919383,
      "SamplesPerPixel": 1,
      "ScanOptions": "FS",
      "ScanningSequence": "EP",
      "SequenceName": "epfid2d1_104",
      "SequenceVariant": [
        "SK",
        "SS"
],
      "SeriesDescription": "func_task-friends-s05e01b",
      "SeriesNumber": 11,
      "SeriesTime": "111134.005000",
      "SliceLocation": -32.976314506026,
      "SliceThickness": 2.0,
      "SmallestImagePixelValue": 0,
      "SoftwareVersions": "syngo MR E11",
      "SpacingBetweenSlices": 2.0000000136829,
      "SpecificCharacterSet": "ISO_IR 100",
      "StudyID": "1",
      "StudyTime": "103200.979000",
      "TransmitCoilName": "Body",
      "VariableFlipAngleFlag": "N",
      "WindowCenterWidthExplanation": "Algo1",
      "dBdt": 0.0},
    "slices": {}
  },
  "time": {
    "samples": {
      "AcquisitionNumber": [1, 2, 3, 4, 5, 6, 7, 8, 9, 10, 11, 12, 13, 14, 15, 16, 17, 18, 19, 20, 21, 22, 23, 24, 25, 26, 27, 28, 29, 30, 31, 32, 33, 34, 35, 36, 37, 38, 39, 40, 41, 42, 43, 44, 45, 46, 47, 48, 49, 50, 51, 52, 53, 54, 55, 56, 57, 58, 59, 60, 61, 62, 63, 64, 65, 66, 67, 68, 69, 70, 71, 72, 73, 74, 75, 76, 77, 78, 79, 80, 81, 82, 83, 84, 85, 86, 87, 88, 89, 90, 91, 92, 93, 94, 95, 96, 97, 98, 99, 100, 101, 102, 103, 104, 105, 106, 107, 108, 109, 110, 111, 112, 113, 114, 115, 116, 117, 118, 119, 120, 121, 122, 123, 124, 125, 126, 127, 128, 129, 130, 131, 132, 133, 134, 135, 136, 137, 138, 139, 140, 141, 142, 143, 144, 145, 146, 147, 148, 149, 150, 151, 152, 153, 154, 155, 156, 157, 158, 159, 160, 161, 162, 163, 164, 165, 166, 167, 168, 169, 170, 171, 172, 173, 174, 175, 176, 177, 178, 179, 180, 181, 182, 183, 184, 185, 186, 187, 188, 189, 190, 191, 192, 193, 194, 195, 196, 197, 198, 199, 200, 201, 202, 203, 204, 205, 206, 207, 208, 209, 210, 211, 212, 213, 214, 215, 216, 217, 218, 219, 220, 221, 222, 223, 224, 225, 226, 227, 228, 229, 230, 231, 232, 233, 234, 235, 236, 237, 238, 239, 240, 241, 242, 243, 244, 245, 246, 247, 248, 249, 250, 251, 252, 253, 254, 255, 256, 257, 258, 259, 260, 261, 262, 263, 264, 265, 266, 267, 268, 269, 270, 271, 272, 273, 274, 275, 276, 277, 278, 279, 280, 281, 282, 283, 284, 285, 286, 287, 288, 289, 290, 291, 292, 293, 294, 295, 296, 297, 298, 299, 300, 301, 302, 303, 304, 305, 306, 307, 308, 309, 310, 311, 312, 313, 314, 315, 316, 317, 318, 319, 320, 321, 322, 323, 324, 325, 326, 327, 328, 329, 330, 331, 332, 333, 334, 335, 336, 337, 338, 339, 340, 341, 342, 343, 344, 345, 346, 347, 348, 349, 350, 351, 352, 353, 354, 355, 356, 357, 358, 359, 360, 361, 362, 363, 364, 365, 366, 367, 368, 369, 370, 371, 372, 373, 374, 375, 376, 377, 378, 379, 380, 381, 382, 383, 384, 385, 386, 387, 388, 389, 390, 391, 392, 393, 394, 395, 396, 397, 398, 399, 400, 401, 402, 403, 404, 405, 406, 407, 408, 409, 410, 411, 412, 413, 414, 415, 416, 417, 418, 419, 420, 421, 422, 423, 424, 425, 426, 427, 428, 429, 430, 431, 432, 433, 434, 435, 436, 437, 438, 439, 440, 441, 442, 443, 444, 445, 446, 447, 448, 449, 450, 451, 452, 453, 454, 455, 456, 457, 458, 459, 460, 461, 462, 463, 464, 465, 466, 467, 468, 469, 470, 471, 472, 473, 474],
      "AcquisitionTime": ["111015.685000", "111017.175000", "111018.665000", "111020.155000", "111021.645000", "111023.135000", "111024.625000", "111026.115000", "111027.605000", "111029.095000", "111030.585000", "111032.075000", "111033.565000", "111035.055000", "111036.545000", "111038.035000", "111039.525000", "111041.015000", "111042.505000", "111043.995000", "111045.485000", "111046.975000", "111048.465000", "111049.955000", "111051.445000", "111052.935000", "111054.425000", "111055.915000", "111057.405000", "111058.895000", "111100.385000", "111101.875000", "111103.365000", "111104.855000", "111106.345000", "111107.835000", "111109.325000", "111110.815000", "111112.305000", "111113.795000", "111115.285000", "111116.775000", "111118.265000", "111119.755000", "111121.245000", "111122.735000", "111124.225000", "111125.715000", "111127.205000", "111128.695000", "111130.185000", "111131.675000", "111133.165000", "111134.655000", "111136.145000", "111137.635000", "111139.125000", "111140.615000", "111142.105000", "111143.595000", "111145.085000", "111146.575000", "111148.065000", "111149.555000", "111151.045000", "111152.535000", "111154.025000", "111155.515000", "111157.005000", "111158.495000", "111159.985000", "111201.475000", "111202.965000", "111204.455000", "111205.945000", "111207.435000", "111208.925000", "111210.415000", "111211.905000", "111213.395000", "111214.885000", "111216.375000", "111217.865000", "111219.355000", "111220.845000", "111222.335000", "111223.825000", "111225.315000", "111226.805000", "111228.295000", "111229.785000", "111231.275000", "111232.765000", "111234.255000", "111235.745000", "111237.235000", "111238.725000", "111240.215000", "111241.705000", "111243.195000", "111244.685000", "111246.175000", "111247.665000", "111249.155000", "111250.645000", "111252.135000", "111253.625000", "111255.115000", "111256.605000", "111258.095000", "111259.585000", "111301.075000", "111302.565000", "111304.055000", "111305.545000", "111307.035000", "111308.525000", "111310.015000", "111311.505000", "111312.995000", "111314.485000", "111315.975000", "111317.465000", "111318.955000", "111320.445000", "111321.935000", "111323.425000", "111324.915000", "111326.405000", "111327.895000", "111329.385000", "111330.875000", "111332.365000", "111333.855000", "111335.345000", "111336.835000", "111338.325000", "111339.815000", "111341.305000", "111342.795000", "111344.285000", "111345.775000", "111347.265000", "111348.755000", "111350.245000", "111351.735000", "111353.225000", "111354.715000", "111356.205000", "111357.695000", "111359.185000", "111400.675000", "111402.165000", "111403.655000", "111405.145000", "111406.635000", "111408.125000", "111409.615000", "111411.105000", "111412.595000", "111414.085000", "111415.575000", "111417.065000", "111418.555000", "111420.045000", "111421.535000", "111423.025000", "111424.515000", "111426.005000", "111427.495000", "111428.985000", "111430.475000", "111431.965000", "111433.455000", "111434.945000", "111436.435000", "111437.925000", "111439.415000", "111440.905000", "111442.395000", "111443.885000", "111445.375000", "111446.865000", "111448.355000", "111449.845000", "111451.335000", "111452.825000", "111454.315000", "111455.805000", "111457.295000", "111458.785000", "111500.275000", "111501.765000", "111503.255000", "111504.745000", "111506.235000", "111507.725000", "111509.215000", "111510.705000", "111512.195000", "111513.685000", "111515.175000", "111516.665000", "111518.155000", "111519.645000", "111521.135000", "111522.625000", "111524.115000", "111525.605000", "111527.095000", "111528.585000", "111530.075000", "111531.565000", "111533.055000", "111534.545000", "111536.035000", "111537.525000", "111539.015000", "111540.505000", "111541.995000", "111543.485000", "111544.975000", "111546.465000", "111547.955000", "111549.445000", "111550.935000", "111552.425000", "111553.915000", "111555.405000", "111556.895000", "111558.385000", "111559.875000", "111601.365000", "111602.855000", "111604.345000", "111605.835000", "111607.325000", "111608.815000", "111610.305000", "111611.795000", "111613.285000", "111614.775000", "111616.265000", "111617.755000", "111619.245000", "111620.735000", "111622.225000", "111623.715000", "111625.205000", "111626.695000", "111628.185000", "111629.675000", "111631.165000", "111632.655000", "111634.145000", "111635.635000", "111637.125000", "111638.615000", "111640.105000", "111641.595000", "111643.085000", "111644.575000", "111646.065000", "111647.555000", "111649.045000", "111650.535000", "111652.025000", "111653.515000", "111655.005000", "111656.495000", "111657.985000", "111659.475000", "111700.965000", "111702.455000", "111703.945000", "111705.435000", "111706.925000", "111708.415000", "111709.905000", "111711.395000", "111712.885000", "111714.375000", "111715.865000", "111717.355000", "111718.845000", "111720.335000", "111721.825000", "111723.315000", "111724.805000", "111726.295000", "111727.785000", "111729.275000", "111730.765000", "111732.255000", "111733.745000", "111735.235000", "111736.725000", "111738.215000", "111739.705000", "111741.195000", "111742.685000", "111744.175000", "111745.665000", "111747.155000", "111748.645000", "111750.135000", "111751.625000", "111753.115000", "111754.605000", "111756.095000", "111757.585000", "111759.075000", "111800.565000", "111802.055000", "111803.545000", "111805.035000", "111806.525000", "111808.015000", "111809.505000", "111810.995000", "111812.485000", "111813.975000", "111815.465000", "111816.955000", "111818.445000", "111819.935000", "111821.425000", "111822.915000", "111824.405000", "111825.895000", "111827.385000", "111828.875000", "111830.365000", "111831.855000", "111833.345000", "111834.835000", "111836.325000", "111837.815000", "111839.305000", "111840.795000", "111842.285000", "111843.775000", "111845.265000", "111846.755000", "111848.245000", "111849.735000", "111851.225000", "111852.715000", "111854.205000", "111855.695000", "111857.185000", "111858.675000", "111900.165000", "111901.655000", "111903.145000", "111904.635000", "111906.125000", "111907.615000", "111909.105000", "111910.595000", "111912.085000", "111913.575000", "111915.065000", "111916.555000", "111918.045000", "111919.535000", "111921.025000", "111922.515000", "111924.005000", "111925.495000", "111926.985000", "111928.475000", "111929.965000", "111931.455000", "111932.945000", "111934.435000", "111935.925000", "111937.415000", "111938.905000", "111940.395000", "111941.885000", "111943.375000", "111944.865000", "111946.355000", "111947.845000", "111949.335000", "111950.825000", "111952.315000", "111953.805000", "111955.295000", "111956.785000", "111958.275000", "111959.765000", "112001.255000", "112002.745000", "112004.235000", "112005.725000", "112007.215000", "112008.705000", "112010.195000", "112011.685000", "112013.175000", "112014.665000", "112016.155000", "112017.645000", "112019.135000", "112020.625000", "112022.115000", "112023.605000", "112025.095000", "112026.585000", "112028.075000", "112029.565000", "112031.055000", "112032.545000", "112034.035000", "112035.525000", "112037.015000", "112038.505000", "112039.995000", "112041.485000", "112042.975000", "112044.465000", "112045.955000", "112047.445000", "112048.935000", "112050.425000", "112051.915000", "112053.405000", "112054.895000", "112056.385000", "112057.875000", "112059.365000", "112100.855000", "112102.345000", "112103.835000", "112105.325000", "112106.815000", "112108.305000", "112109.795000", "112111.285000", "112112.775000", "112114.265000", "112115.755000", "112117.245000", "112118.735000", "112120.225000", "112121.715000", "112123.205000", "112124.695000", "112126.185000", "112127.675000", "112129.165000", "112130.655000", "112132.145000", "112133.635000", "112135.125000", "112136.615000", "112138.105000", "112139.595000", "112141.085000", "112142.575000", "112144.065000", "112145.555000", "112147.045000", "112148.535000", "112150.025000", "112151.515000", "112153.005000", "112154.495000", "112155.985000", "112157.475000", "112158.965000", "112200.455000"],
      "ContentTime": ["111134.008000", "111134.011000", "111134.019000", "111134.022000", "111134.025000", "111134.027000", "111134.030000", "111134.033000", "111134.036000", "111134.039000", "111134.044000", "111134.054000", "111134.057000", "111134.059000", "111134.062000", "111134.065000", "111134.068000", "111134.071000", "111134.074000", "111134.077000", "111134.080000", "111134.083000", "111134.086000", "111153.971000", "111153.974000", "111153.977000", "111153.980000", "111153.982000", "111153.985000", "111153.988000", "111153.991000", "111153.994000", "111153.997000", "111153.999000", "111154.002000", "111154.005000", "111154.008000", "111154.011000", "111154.027000", "111154.030000", "111154.032000", "111154.035000", "111154.038000", "111213.971000", "111213.974000", "111213.977000", "111213.980000", "111213.982000", "111213.985000", "111213.988000", "111213.991000", "111213.994000", "111213.996000", "111214.000000", "111214.003000", "111214.006000", "111214.009000", "111214.011000", "111214.014000", "111214.017000", "111214.020000", "111214.023000", "111214.025000", "111233.971000", "111233.974000", "111233.977000", "111233.979000", "111233.982000", "111233.985000", "111233.988000", "111233.991000", "111233.993000", "111233.996000", "111234.000000", "111234.003000", "111234.006000", "111234.009000", "111234.011000", "111234.014000", "111234.017000", "111234.020000", "111234.023000", "111234.026000", "111253.971000", "111253.974000", "111253.977000", "111253.979000", "111253.982000", "111253.985000", "111253.988000", "111253.991000", "111253.994000", "111253.996000", "111254.000000", "111254.003000", "111254.012000", "111254.015000", "111254.018000", "111254.020000", "111254.023000", "111254.026000", "111254.029000", "111254.032000", "111254.035000", "111333.971000", "111333.974000", "111333.986000", "111333.992000", "111333.995000", "111333.998000", "111334.002000", "111334.004000", "111334.007000", "111334.010000", "111334.013000", "111334.016000", "111334.018000", "111334.021000", "111334.024000", "111334.027000", "111334.030000", "111334.033000", "111334.035000", "111334.038000", "111334.041000", "111334.044000", "111334.047000", "111334.050000", "111334.052000", "111334.055000", "111334.058000", "111334.061000", "111353.970000", "111353.973000", "111353.976000", "111353.979000", "111353.981000", "111353.984000", "111353.987000", "111353.990000", "111353.993000", "111353.996000", "111353.998000", "111354.001000", "111354.004000", "111433.971000", "111433.974000", "111433.977000", "111433.980000", "111433.983000", "111433.986000", "111433.988000", "111433.991000", "111433.994000", "111433.997000", "111434.000000", "111434.003000", "111434.005000", "111434.008000", "111434.011000", "111434.014000", "111434.017000", "111434.020000", "111434.023000", "111434.026000", "111434.028000", "111434.031000", "111434.034000", "111434.037000", "111434.040000", "111434.042000", "111434.045000", "111513.971000", "111513.974000", "111513.977000", "111513.980000", "111513.982000", "111513.985000", "111513.988000", "111513.991000", "111513.994000", "111513.997000", "111513.999000", "111514.002000", "111514.005000", "111514.008000", "111514.011000", "111514.014000", "111514.017000", "111514.019000", "111514.022000", "111514.025000", "111514.028000", "111514.031000", "111514.034000", "111514.036000", "111514.039000", "111514.042000", "111514.045000", "111553.971000", "111553.974000", "111553.977000", "111553.980000", "111553.983000", "111553.985000", "111553.988000", "111553.991000", "111553.994000", "111553.997000", "111554.000000", "111554.003000", "111554.005000", "111554.008000", "111554.011000", "111554.014000", "111554.017000", "111554.020000", "111554.023000", "111554.026000", "111554.028000", "111554.031000", "111554.034000", "111554.037000", "111554.040000", "111554.043000", "111554.046000", "111633.971000", "111633.974000", "111633.977000", "111633.980000", "111633.983000", "111633.985000", "111633.988000", "111633.991000", "111633.994000", "111633.997000", "111634.000000", "111634.002000", "111634.005000", "111634.008000", "111634.011000", "111634.014000", "111634.017000", "111634.019000", "111634.022000", "111634.025000", "111634.028000", "111634.031000", "111634.034000", "111634.037000", "111634.039000", "111634.042000", "111634.045000", "111713.971000", "111713.974000", "111713.977000", "111713.980000", "111713.983000", "111713.986000", "111713.988000", "111713.991000", "111713.994000", "111713.997000", "111714.000000", "111714.003000", "111714.006000", "111714.008000", "111714.011000", "111714.014000", "111714.017000", "111714.020000", "111714.023000", "111714.026000", "111714.028000", "111714.031000", "111714.034000", "111714.037000", "111714.040000", "111714.043000", "111714.046000", "111753.971000", "111753.974000", "111753.977000", "111753.980000", "111753.983000", "111753.986000", "111753.988000", "111753.991000", "111753.994000", "111753.997000", "111754.001000", "111754.004000", "111754.007000", "111754.009000", "111754.012000", "111754.016000", "111754.019000", "111754.022000", "111754.025000", "111754.028000", "111754.031000", "111754.033000", "111754.036000", "111754.039000", "111754.042000", "111754.045000", "111833.970000", "111833.973000", "111833.976000", "111833.979000", "111833.982000", "111833.985000", "111833.988000", "111833.990000", "111833.993000", "111833.996000", "111834.000000", "111834.003000", "111834.006000", "111834.017000", "111834.020000", "111834.023000", "111834.026000", "111834.028000", "111834.031000", "111834.034000", "111834.037000", "111834.040000", "111834.043000", "111834.045000", "111834.048000", "111834.051000", "111834.054000", "111913.971000", "111913.974000", "111913.977000", "111913.980000", "111913.983000", "111913.985000", "111913.988000", "111913.991000", "111913.994000", "111913.997000", "111914.000000", "111914.002000", "111914.005000", "111914.008000", "111914.011000", "111914.014000", "111914.017000", "111914.020000", "111914.023000", "111914.025000", "111914.028000", "111914.031000", "111914.034000", "111914.037000", "111914.040000", "111914.043000", "111914.046000", "111953.971000", "111953.974000", "111953.977000", "111953.980000", "111953.983000", "111953.985000", "111953.988000", "111953.991000", "111953.994000", "111953.997000", "111954.000000", "111954.003000", "111954.005000", "111954.008000", "111954.011000", "111954.014000", "111954.017000", "111954.020000", "111954.023000", "111954.026000", "111954.028000", "111954.031000", "111954.034000", "111954.037000", "111954.040000", "111954.042000", "111954.045000", "112033.971000", "112033.974000", "112033.977000", "112033.980000", "112033.983000", "112033.986000", "112033.988000", "112033.991000", "112033.994000", "112033.997000", "112034.000000", "112034.002000", "112034.005000", "112034.008000", "112034.011000", "112034.014000", "112034.017000", "112034.020000", "112034.023000", "112034.025000", "112034.028000", "112034.031000", "112034.034000", "112034.037000", "112034.040000", "112034.042000", "112034.045000", "112113.971000", "112113.974000", "112113.977000", "112113.980000", "112113.983000", "112113.986000", "112113.988000", "112113.991000", "112113.994000", "112113.997000", "112114.000000", "112114.003000", "112114.006000", "112114.008000", "112114.011000", "112114.014000", "112114.017000", "112114.020000", "112114.023000", "112114.026000", "112114.028000", "112114.031000", "112114.034000", "112114.037000", "112114.040000", "112114.043000", "112114.045000", "112153.971000", "112153.974000", "112153.977000", "112153.980000", "112153.983000", "112153.986000", "112153.988000", "112153.991000", "112153.994000", "112153.997000", "112154.001000", "112154.004000", "112154.006000", "112154.009000", "112154.012000", "112154.015000", "112154.018000", "112154.021000", "112154.024000", "112154.027000", "112154.030000", "112154.033000", "112154.036000", "112154.039000", "112154.042000", "112154.045000", "112203.021000", "112203.024000", "112203.027000", "112203.030000", "112203.032000", "112203.035000", "112203.038000"],
