{
  "AcquisitionMatrixPE": 104,
  "AcquisitionNumber": 1,
  "AcquisitionTime": "19:12:49.200000",
  "BandwidthPerPixelPhaseEncode": 17.17,
  "BaseResolution": 104,
  "BodyPartExamined": "BRAIN",
  "CoilCombinationMethod": "Sum of Squares",
  "ConsistencyInfo": "N4_VE11C_LATEST_20160120",
  "ConversionSoftware": "dcm2niix",
  "ConversionSoftwareVersion": "v1.0.20211006",
  "DerivedVendorReportedEchoSpacing": 0.000560011,
  "DeviceSerialNumber": "167006",
  "DwellTime": 2.1e-06,
  "EchoTime": 0.037,
  "EchoTrainLength": 104,
  "EffectiveEchoSpacing": 0.000560011,
  "FlipAngle": 52,
  "HeudiconvVersion": "0.11.3.post9+gc939bf8",
  "ImageComments": "Unaliased MB4/PE3/LB",
  "ImageOrientationPatientDICOM": [0.999161, -0.0371482, -0.0172581, 0.0273855, 0.919142, -0.392974],
  "ImageOrientationText": "Tra>Cor(-23.1)>Sag(-1.7)",
  "ImageType": [
    "ORIGINAL",
    "PRIMARY",
    "M",
    "MB",
    "ND",
    "MOSAIC"
],
  "ImagingFrequency": 123.259,
  "InPlanePhaseEncodingDirectionDICOM": "COL",
  "InstitutionAddress": "Chemin Queen-Mary 4565,Montreal,District,CA,H3W 1W5",
  "InstitutionName": "IUGM",
  "InstitutionalDepartmentName": "Department",
  "MRAcquisitionType": "2D",
  "MagneticFieldStrength": 3,
  "Manufacturer": "Siemens",
  "ManufacturersModelName": "Prisma_fit",
  "MatrixCoilMode": "SENSE",
  "Modality": "MR",
  "MultibandAccelerationFactor": 4,
  "PartialFourier": 1,
  "PatientPosition": "HFS",
  "PercentPhaseFOV": 100,
  "PercentSampling": 100,
  "PhaseEncodingDirection": "j",
  "PhaseEncodingSteps": 104,
  "PhaseResolution": 1,
  "PixelBandwidth": 2290,
  "ProcedureStepDescription": "video^friends",
  "ProtocolName": "func_task-friends-s06e19b",
  "PulseSequenceDetails": "%CustomerSeq%\\cmrr_mbep2d_bold",
  "ReceiveCoilActiveElements": "HC1-7;NC1,2",
  "ReceiveCoilName": "HeadNeck_64",
  "ReconMatrixPE": 104,
  "RepetitionTime": 1.49,
  "SAR": 0.0960786,
  "ScanOptions": "FS",
  "ScanningSequence": "EP",
  "SequenceName": "epfid2d1_104",
  "SequenceVariant": "SK\\SS",
  "SeriesDescription": "func_task-friends-s06e19b",
  "SeriesNumber": 16,
  "ShimSetting": [609, -7257, -8829, 375, 0, -419, -35, 31],
  "SliceThickness": 2,
  "SliceTiming": [0, 0.785, 0.0975, 0.8825, 0.1975, 0.98, 0.295, 1.0775, 0.3925, 1.1775, 0.49, 1.275, 0.5875, 1.3725, 0.6875, 0, 0.785, 0.0975, 0.8825, 0.1975, 0.98, 0.295, 1.0775, 0.3925, 1.1775, 0.49, 1.275, 0.5875, 1.3725, 0.6875, 0, 0.785, 0.0975, 0.8825, 0.1975, 0.98, 0.295, 1.0775, 0.3925, 1.1775, 0.49, 1.275, 0.5875, 1.3725, 0.6875, 0, 0.785, 0.0975, 0.8825, 0.1975, 0.98, 0.295, 1.0775, 0.3925, 1.1775, 0.49, 1.275, 0.5875, 1.3725, 0.6875],
  "SoftwareVersions": "syngo MR E11",
  "SpacingBetweenSlices": 2,
  "StationName": "MRC35049",
  "TaskName": "s06e19b",
  "TotalReadoutTime": 0.0576811,
  "TxRefAmp": 329.867,
  "WipMemBlock": "20b4d958-86ce-48be-bbcb-7d0d1fec916f||Sequence: R017 ve11c/master r/75a17815+; Jun 28 2022 16:32:11 by eja",
  "dcmmeta_affine": [
    [-1.9983214139938354, 0.054770998656749725, -0.060921914875507355, 97.97644805908203],
    [0.0742964893579483, 1.8382837772369385, -0.7843421697616577, -71.50912475585938],
    [-0.03451628237962723, 0.7859470844268799, 1.838775634765625, -68.57704162597656],
    [0.0, 0.0, 0.0, 1.0]
],
  "dcmmeta_reorient_transform": [
    [0.0, -1.0, 0.0, 103.0],
    [1.0, 0.0, 0.0, 0.0],
    [0.0, 0.0, 1.0, 0.0],
    [0.0, 0.0, 0.0, 1.0]
],
  "dcmmeta_shape": [104, 104, 60, 468],
  "dcmmeta_slice_dim": 2,
  "dcmmeta_version": 0.6,
  "global": {
    "const": {
      "AcquisitionMatrix": [104, 0, 0, 104],
      "AngioFlag": "N",
      "BitsAllocated": 16,
      "BitsStored": 16,
      "BodyPartExamined": "BRAIN",
      "Columns": 832,
      "EchoNumbers": 1,
      "EchoTime": 37.0,
      "EchoTrainLength": 104,
      "FlipAngle": 52.0,
      "HighBit": 15,
      "ImageOrientationPatient": [0.9991607300672, -0.0371482442871, -0.0172581412081, 0.02738549916741, 0.91914190422094, -0.3929735288037],
      "ImagePositionPatient": [-850.94351576465, -759.92549462673, 311.0241599723],
      "ImageType": [
        "ORIGINAL",
        "PRIMARY",
        "M",
        "MB",
        "ND",
        "MOSAIC"
],
      "ImagedNucleus": "1H",
      "ImagingFrequency": 123.258803,
      "InPlanePhaseEncodingDirection": "COL",
      "MRAcquisitionType": "2D",
      "MagneticFieldStrength": 3.0,
      "Manufacturer": "SIEMENS",
      "ManufacturerModelName": "Prisma_fit",
      "Modality": "MR",
      "NumberOfAverages": 1.0,
      "NumberOfPhaseEncodingSteps": 104,
      "PercentPhaseFieldOfView": 100.0,
      "PercentSampling": 100.0,
      "PerformedProcedureStepStartTime": "183128.056000",
      "PhotometricInterpretation": "MONOCHROME2",
      "PixelBandwidth": 2290.0,
      "PixelRepresentation": 0,
      "PixelSpacing": [2.0, 2.0],
      "ProtocolName": "func_task-friends-s06e19b",
      "RepetitionTime": 1490.0,
      "Rows": 832,
      "SAR": 0.09607859659691,
      "SamplesPerPixel": 1,
      "ScanOptions": "FS",
      "ScanningSequence": "EP",
      "SequenceName": "epfid2d1_104",
      "SequenceVariant": [
        "SK",
        "SS"
],
      "SeriesDescription": "func_task-friends-s06e19b",
      "SeriesNumber": 16,
      "SeriesTime": "191356.973000",
      "SliceLocation": -37.989543464247,
      "SliceThickness": 2.0,
      "SmallestImagePixelValue": 0,
      "SoftwareVersions": "syngo MR E11",
      "SpacingBetweenSlices": 1.9999999887082,
      "SpecificCharacterSet": "ISO_IR 100",
      "StudyID": "1",
      "StudyTime": "183127.971000",
      "TransmitCoilName": "Body",
      "VariableFlipAngleFlag": "N",
      "WindowCenterWidthExplanation": "Algo1",
      "dBdt": 0.0},
    "slices": {}
  },
  "time": {
    "samples": {
      "AcquisitionNumber": [1, 2, 3, 4, 5, 6, 7, 8, 9, 10, 11, 12, 13, 14, 15, 16, 17, 18, 19, 20, 21, 22, 23, 24, 25, 26, 27, 28, 29, 30, 31, 32, 33, 34, 35, 36, 37, 38, 39, 40, 41, 42, 43, 44, 45, 46, 47, 48, 49, 50, 51, 52, 53, 54, 55, 56, 57, 58, 59, 60, 61, 62, 63, 64, 65, 66, 67, 68, 69, 70, 71, 72, 73, 74, 75, 76, 77, 78, 79, 80, 81, 82, 83, 84, 85, 86, 87, 88, 89, 90, 91, 92, 93, 94, 95, 96, 97, 98, 99, 100, 101, 102, 103, 104, 105, 106, 107, 108, 109, 110, 111, 112, 113, 114, 115, 116, 117, 118, 119, 120, 121, 122, 123, 124, 125, 126, 127, 128, 129, 130, 131, 132, 133, 134, 135, 136, 137, 138, 139, 140, 141, 142, 143, 144, 145, 146, 147, 148, 149, 150, 151, 152, 153, 154, 155, 156, 157, 158, 159, 160, 161, 162, 163, 164, 165, 166, 167, 168, 169, 170, 171, 172, 173, 174, 175, 176, 177, 178, 179, 180, 181, 182, 183, 184, 185, 186, 187, 188, 189, 190, 191, 192, 193, 194, 195, 196, 197, 198, 199, 200, 201, 202, 203, 204, 205, 206, 207, 208, 209, 210, 211, 212, 213, 214, 215, 216, 217, 218, 219, 220, 221, 222, 223, 224, 225, 226, 227, 228, 229, 230, 231, 232, 233, 234, 235, 236, 237, 238, 239, 240, 241, 242, 243, 244, 245, 246, 247, 248, 249, 250, 251, 252, 253, 254, 255, 256, 257, 258, 259, 260, 261, 262, 263, 264, 265, 266, 267, 268, 269, 270, 271, 272, 273, 274, 275, 276, 277, 278, 279, 280, 281, 282, 283, 284, 285, 286, 287, 288, 289, 290, 291, 292, 293, 294, 295, 296, 297, 298, 299, 300, 301, 302, 303, 304, 305, 306, 307, 308, 309, 310, 311, 312, 313, 314, 315, 316, 317, 318, 319, 320, 321, 322, 323, 324, 325, 326, 327, 328, 329, 330, 331, 332, 333, 334, 335, 336, 337, 338, 339, 340, 341, 342, 343, 344, 345, 346, 347, 348, 349, 350, 351, 352, 353, 354, 355, 356, 357, 358, 359, 360, 361, 362, 363, 364, 365, 366, 367, 368, 369, 370, 371, 372, 373, 374, 375, 376, 377, 378, 379, 380, 381, 382, 383, 384, 385, 386, 387, 388, 389, 390, 391, 392, 393, 394, 395, 396, 397, 398, 399, 400, 401, 402, 403, 404, 405, 406, 407, 408, 409, 410, 411, 412, 413, 414, 415, 416, 417, 418, 419, 420, 421, 422, 423, 424, 425, 426, 427, 428, 429, 430, 431, 432, 433, 434, 435, 436, 437, 438, 439, 440, 441, 442, 443, 444, 445, 446, 447, 448, 449, 450, 451, 452, 453, 454, 455, 456, 457, 458, 459, 460, 461, 462, 463, 464, 465, 466, 467, 468],
      "AcquisitionTime": ["191249.200000", "191250.690000", "191252.180000", "191253.670000", "191255.160000", "191256.650000", "191258.140000", "191259.630000", "191301.120000", "191302.610000", "191304.100000", "191305.590000", "191307.080000", "191308.570000", "191310.060000", "191311.550000", "191313.040000", "191314.530000", "191316.020000", "191317.510000", "191319.000000", "191320.490000", "191321.980000", "191323.470000", "191324.960000", "191326.450000", "191327.940000", "191329.430000", "191330.920000", "191332.410000", "191333.900000", "191335.390000", "191336.880000", "191338.370000", "191339.860000", "191341.350000", "191342.840000", "191344.330000", "191345.820000", "191347.310000", "191348.800000", "191350.290000", "191351.780000", "191353.270000", "191354.760000", "191356.250000", "191357.740000", "191359.230000", "191400.720000", "191402.210000", "191403.700000", "191405.190000", "191406.680000", "191408.170000", "191409.660000", "191411.150000", "191412.640000", "191414.130000", "191415.620000", "191417.110000", "191418.600000", "191420.090000", "191421.580000", "191423.070000", "191424.560000", "191426.050000", "191427.540000", "191429.030000", "191430.520000", "191432.010000", "191433.500000", "191434.990000", "191436.480000", "191437.970000", "191439.460000", "191440.950000", "191442.440000", "191443.930000", "191445.420000", "191446.910000", "191448.400000", "191449.890000", "191451.380000", "191452.870000", "191454.360000", "191455.850000", "191457.340000", "191458.830000", "191500.320000", "191501.810000", "191503.300000", "191504.790000", "191506.280000", "191507.770000", "191509.260000", "191510.750000", "191512.240000", "191513.730000", "191515.220000", "191516.710000", "191518.200000", "191519.690000", "191521.180000", "191522.670000", "191524.160000", "191525.650000", "191527.140000", "191528.630000", "191530.120000", "191531.610000", "191533.100000", "191534.590000", "191536.080000", "191537.570000", "191539.060000", "191540.550000", "191542.040000", "191543.530000", "191545.020000", "191546.510000", "191548.000000", "191549.490000", "191550.980000", "191552.470000", "191553.960000", "191555.450000", "191556.940000", "191558.430000", "191559.920000", "191601.410000", "191602.900000", "191604.390000", "191605.880000", "191607.370000", "191608.860000", "191610.350000", "191611.840000", "191613.330000", "191614.820000", "191616.310000", "191617.800000", "191619.290000", "191620.780000", "191622.270000", "191623.760000", "191625.250000", "191626.740000", "191628.230000", "191629.720000", "191631.210000", "191632.700000", "191634.190000", "191635.680000", "191637.170000", "191638.660000", "191640.150000", "191641.640000", "191643.130000", "191644.620000", "191646.110000", "191647.600000", "191649.090000", "191650.580000", "191652.070000", "191653.560000", "191655.050000", "191656.540000", "191658.030000", "191659.520000", "191701.010000", "191702.500000", "191703.990000", "191705.480000", "191706.970000", "191708.460000", "191709.950000", "191711.440000", "191712.930000", "191714.420000", "191715.910000", "191717.400000", "191718.890000", "191720.380000", "191721.870000", "191723.360000", "191724.850000", "191726.340000", "191727.830000", "191729.320000", "191730.810000", "191732.300000", "191733.790000", "191735.280000", "191736.770000", "191738.260000", "191739.750000", "191741.240000", "191742.730000", "191744.220000", "191745.710000", "191747.200000", "191748.690000", "191750.180000", "191751.670000", "191753.160000", "191754.650000", "191756.140000", "191757.630000", "191759.120000", "191800.610000", "191802.100000", "191803.590000", "191805.080000", "191806.570000", "191808.060000", "191809.550000", "191811.040000", "191812.530000", "191814.020000", "191815.510000", "191817.000000", "191818.490000", "191819.980000", "191821.470000", "191822.960000", "191824.450000", "191825.940000", "191827.430000", "191828.920000", "191830.410000", "191831.900000", "191833.390000", "191834.880000", "191836.370000", "191837.860000", "191839.350000", "191840.840000", "191842.330000", "191843.820000", "191845.310000", "191846.800000", "191848.290000", "191849.780000", "191851.270000", "191852.760000", "191854.250000", "191855.740000", "191857.230000", "191858.720000", "191900.210000", "191901.700000", "191903.190000", "191904.680000", "191906.170000", "191907.660000", "191909.150000", "191910.640000", "191912.130000", "191913.620000", "191915.110000", "191916.600000", "191918.090000", "191919.580000", "191921.070000", "191922.560000", "191924.050000", "191925.540000", "191927.030000", "191928.520000", "191930.010000", "191931.500000", "191932.990000", "191934.480000", "191935.970000", "191937.460000", "191938.950000", "191940.440000", "191941.930000", "191943.420000", "191944.910000", "191946.400000", "191947.890000", "191949.380000", "191950.870000", "191952.360000", "191953.850000", "191955.340000", "191956.830000", "191958.320000", "191959.810000", "192001.300000", "192002.790000", "192004.280000", "192005.770000", "192007.260000", "192008.750000", "192010.240000", "192011.730000", "192013.220000", "192014.710000", "192016.200000", "192017.690000", "192019.180000", "192020.670000", "192022.160000", "192023.650000", "192025.140000", "192026.630000", "192028.120000", "192029.610000", "192031.100000", "192032.590000", "192034.080000", "192035.570000", "192037.060000", "192038.550000", "192040.040000", "192041.530000", "192043.020000", "192044.510000", "192046.000000", "192047.490000", "192048.980000", "192050.470000", "192051.960000", "192053.450000", "192054.940000", "192056.430000", "192057.920000", "192059.410000", "192100.900000", "192102.390000", "192103.880000", "192105.370000", "192106.860000", "192108.350000", "192109.840000", "192111.330000", "192112.820000", "192114.310000", "192115.800000", "192117.290000", "192118.780000", "192120.270000", "192121.760000", "192123.250000", "192124.740000", "192126.230000", "192127.720000", "192129.210000", "192130.700000", "192132.190000", "192133.680000", "192135.170000", "192136.660000", "192138.150000", "192139.640000", "192141.130000", "192142.620000", "192144.110000", "192145.600000", "192147.090000", "192148.580000", "192150.070000", "192151.560000", "192153.050000", "192154.540000", "192156.030000", "192157.520000", "192159.010000", "192200.500000", "192201.990000", "192203.480000", "192204.970000", "192206.460000", "192207.950000", "192209.440000", "192210.930000", "192212.420000", "192213.910000", "192215.400000", "192216.890000", "192218.380000", "192219.870000", "192221.360000", "192222.850000", "192224.340000", "192225.830000", "192227.320000", "192228.810000", "192230.300000", "192231.790000", "192233.280000", "192234.770000", "192236.260000", "192237.750000", "192239.240000", "192240.730000", "192242.220000", "192243.710000", "192245.200000", "192246.690000", "192248.180000", "192249.670000", "192251.160000", "192252.650000", "192254.140000", "192255.630000", "192257.120000", "192258.610000", "192300.100000", "192301.590000", "192303.080000", "192304.570000", "192306.060000", "192307.550000", "192309.040000", "192310.530000", "192312.020000", "192313.510000", "192315.000000", "192316.490000", "192317.980000", "192319.470000", "192320.960000", "192322.450000", "192323.940000", "192325.430000", "192326.920000", "192328.410000", "192329.900000", "192331.390000", "192332.880000", "192334.370000", "192335.860000", "192337.350000", "192338.840000", "192340.330000", "192341.820000", "192343.310000", "192344.800000", "192346.290000", "192347.780000", "192349.270000", "192350.760000", "192352.250000", "192353.740000", "192355.230000", "192356.720000", "192358.210000", "192359.700000", "192401.190000", "192402.680000", "192404.170000", "192405.660000", "192407.150000", "192408.640000", "192410.130000", "192411.620000", "192413.110000", "192414.600000", "192416.090000", "192417.580000", "192419.070000", "192420.560000", "192422.050000", "192423.540000", "192425.030000"],
      "ContentTime": ["191356.975000", "191356.979000", "191356.982000", "191356.984000", "191356.987000", "191356.990000", "191356.993000", "191357.002000", "191357.005000", "191357.007000", "191357.016000", "191357.019000", "191357.022000", "191357.029000", "191357.031000", "191357.034000", "191357.037000", "191357.040000", "191357.043000", "191357.046000", "191416.937000", "191416.940000", "191416.943000", "191416.946000", "191416.949000", "191416.952000", "191416.955000", "191416.957000", "191416.960000", "191416.963000", "191416.966000", "191416.969000", "191416.972000", "191416.975000", "191416.978000", "191416.980000", "191416.983000", "191416.986000", "191416.989000", "191416.992000", "191436.937000", "191436.940000", "191436.943000", "191436.946000", "191436.955000", "191436.958000", "191436.961000", "191436.964000", "191436.967000", "191436.969000", "191436.972000", "191436.975000", "191436.978000", "191436.981000", "191436.984000", "191436.987000", "191436.990000", "191436.993000", "191436.996000", "191436.998000", "191456.937000", "191456.940000", "191456.943000", "191456.946000", "191456.949000", "191456.952000", "191456.954000", "191456.957000", "191456.960000", "191456.963000", "191456.966000", "191456.969000", "191456.972000", "191456.975000", "191456.978000", "191456.980000", "191456.983000", "191456.986000", "191456.989000", "191456.992000", "191536.937000", "191536.940000", "191536.943000", "191536.946000", "191536.949000", "191536.952000", "191536.954000", "191536.957000", "191536.960000", "191536.963000", "191536.966000", "191536.969000", "191536.972000", "191536.975000", "191536.978000", "191536.980000", "191536.983000", "191536.986000", "191536.989000", "191536.992000", "191536.995000", "191536.998000", "191537.002000", "191537.004000", "191537.007000", "191537.010000", "191537.013000", "191537.016000", "191537.019000", "191537.022000", "191537.024000", "191537.027000", "191616.937000", "191616.940000", "191616.943000", "191616.946000", "191616.949000", "191616.952000", "191616.954000", "191616.972000", "191616.975000", "191616.978000", "191616.981000", "191616.984000", "191616.986000", "191616.989000", "191616.992000", "191616.995000", "191616.998000", "191617.002000", "191617.005000", "191617.007000", "191617.010000", "191617.013000", "191617.016000", "191617.019000", "191617.022000", "191617.025000", "191617.028000", "191656.937000", "191656.940000", "191656.943000", "191656.946000", "191656.949000", "191656.952000", "191656.954000", "191656.957000", "191656.960000", "191656.963000", "191656.966000", "191656.969000", "191656.972000", "191656.975000", "191656.978000", "191656.980000", "191656.983000", "191656.986000", "191656.989000", "191656.992000", "191656.995000", "191656.998000", "191657.002000", "191657.005000", "191657.007000", "191657.010000", "191657.013000", "191736.937000", "191736.940000", "191736.943000", "191736.946000", "191736.949000", "191736.951000", "191736.954000", "191736.957000", "191736.960000", "191736.963000", "191736.966000", "191736.969000", "191736.972000", "191736.975000", "191736.978000", "191736.980000", "191736.983000", "191736.986000", "191736.989000", "191736.992000", "191736.995000", "191736.998000", "191737.002000", "191737.004000", "191737.007000", "191737.010000", "191737.013000", "191816.937000", "191816.940000", "191816.943000", "191816.946000", "191816.949000", "191816.952000", "191816.954000", "191816.957000", "191816.960000", "191816.963000", "191816.966000", "191816.969000", "191816.972000", "191816.975000", "191816.978000", "191816.981000", "191816.983000", "191816.986000", "191816.989000", "191816.992000", "191816.995000", "191816.998000", "191817.002000", "191817.005000", "191817.008000", "191817.010000", "191856.936000", "191856.939000", "191856.942000", "191856.945000", "191856.948000", "191856.951000", "191856.954000", "191856.956000", "191856.959000", "191856.962000", "191856.965000", "191856.968000", "191856.971000", "191856.974000", "191856.977000", "191856.980000", "191856.982000", "191856.985000", "191856.988000", "191856.991000", "191856.994000", "191856.997000", "191857.001000", "191857.004000", "191857.006000", "191857.009000", "191857.012000", "191936.937000", "191936.940000", "191936.943000", "191936.946000", "191936.949000", "191936.952000", "191936.955000", "191936.957000", "191936.960000", "191936.963000", "191936.966000", "191936.969000", "191936.972000", "191936.975000", "191936.978000", "191936.981000", "191936.983000", "191936.986000", "191936.989000", "191936.992000", "191936.995000", "191936.998000", "191937.002000", "191937.005000", "191937.008000", "191937.011000", "191937.013000", "192016.937000", "192016.940000", "192016.943000", "192016.946000", "192016.949000", "192016.952000", "192016.955000", "192016.957000", "192016.960000", "192016.963000", "192016.966000", "192016.969000", "192016.972000", "192016.975000", "192016.978000", "192016.981000", "192016.984000", "192016.986000", "192016.989000", "192016.992000", "192016.995000", "192016.998000", "192017.002000", "192017.005000", "192017.008000", "192017.011000", "192017.013000", "192056.937000", "192056.940000", "192056.943000", "192056.946000", "192056.949000", "192056.952000", "192056.954000", "192056.957000", "192056.960000", "192056.963000", "192056.966000", "192056.969000", "192056.972000", "192056.975000", "192056.978000", "192056.980000", "192056.983000", "192056.986000", "192056.989000", "192056.992000", "192056.995000", "192057.010000", "192057.013000", "192057.016000", "192057.019000", "192057.022000", "192057.025000", "192136.937000", "192136.940000", "192136.943000", "192136.946000", "192136.949000", "192136.952000", "192136.955000", "192136.957000", "192136.960000", "192136.963000", "192136.966000", "192136.969000", "192136.972000", "192136.975000", "192136.977000", "192136.980000", "192136.983000", "192136.986000", "192136.989000", "192136.992000", "192136.995000", "192136.998000", "192137.002000", "192137.005000", "192137.007000", "192137.010000", "192137.013000", "192216.937000", "192216.940000", "192216.943000", "192216.946000", "192216.949000", "192216.952000", "192216.954000", "192216.957000", "192216.960000", "192216.963000", "192216.966000", "192216.969000", "192216.972000", "192216.975000", "192216.978000", "192216.981000", "192216.984000", "192216.986000", "192216.989000", "192216.992000", "192216.995000", "192216.998000", "192217.002000", "192217.005000", "192217.008000", "192217.011000", "192256.937000", "192256.940000", "192256.943000", "192256.946000", "192256.949000", "192256.952000", "192256.955000", "192256.957000", "192256.960000", "192256.963000", "192256.966000", "192256.969000", "192256.972000", "192256.975000", "192256.978000", "192256.981000", "192256.994000", "192256.997000", "192257.000000", "192257.003000", "192257.006000", "192257.009000", "192257.012000", "192257.015000", "192257.018000", "192257.020000", "192257.023000", "192336.940000", "192336.943000", "192336.946000", "192336.949000", "192336.952000", "192336.955000", "192336.958000", "192336.961000", "192336.964000", "192336.967000", "192336.970000", "192336.972000", "192336.975000", "192336.978000", "192336.981000", "192336.984000", "192336.987000", "192336.990000", "192336.993000", "192336.995000", "192336.998000", "192337.001000", "192337.004000", "192337.007000", "192337.010000", "192337.013000", "192337.016000", "192416.937000", "192416.940000", "192416.943000", "192416.946000", "192416.949000", "192416.952000", "192416.955000", "192416.957000", "192416.960000", "192416.963000", "192416.966000", "192416.969000", "192416.972000", "192416.975000", "192416.978000", "192416.981000", "192416.983000", "192416.986000", "192416.989000", "192416.992000", "192416.995000", "192416.998000", "192417.002000", "192417.005000", "192417.008000", "192417.011000", "192417.013000", "192426.712000", "192426.715000", "192426.718000", "192426.721000", "192426.724000", "192426.727000", "192426.730000"],
