{
  "AcquisitionMatrixPE": 104,
  "AcquisitionNumber": 1,
  "AcquisitionTime": "18:35:26.350000",
  "BandwidthPerPixelPhaseEncode": 17.17,
  "BaseResolution": 104,
  "BodyPartExamined": "BRAIN",
  "CoilCombinationMethod": "Sum of Squares",
  "ConsistencyInfo": "N4_VE11C_LATEST_20160120",
  "ConversionSoftware": "dcm2niix",
  "ConversionSoftwareVersion": "v1.0.20211006",
  "DerivedVendorReportedEchoSpacing": 0.000560011,
  "DeviceSerialNumber": "167006",
  "DwellTime": 2.1e-06,
  "EchoTime": 0.037,
  "EchoTrainLength": 104,
  "EffectiveEchoSpacing": 0.000560011,
  "FlipAngle": 52,
  "HeudiconvVersion": "0.11.3.post9+gc939bf8",
  "ImageComments": "Unaliased MB4/PE3/LB",
  "ImageOrientationPatientDICOM": [0.999161, -0.0371482, -0.0172581, 0.0273855, 0.919142, -0.392974],
  "ImageOrientationText": "Tra>Cor(-23.1)>Sag(-1.7)",
  "ImageType": [
    "ORIGINAL",
    "PRIMARY",
    "M",
    "MB",
    "ND",
    "MOSAIC"
],
  "ImagingFrequency": 123.259,
  "InPlanePhaseEncodingDirectionDICOM": "COL",
  "InstitutionAddress": "Chemin Queen-Mary 4565,Montreal,District,CA,H3W 1W5",
  "InstitutionName": "IUGM",
  "InstitutionalDepartmentName": "Department",
  "MRAcquisitionType": "2D",
  "MagneticFieldStrength": 3,
  "Manufacturer": "Siemens",
  "ManufacturersModelName": "Prisma_fit",
  "MatrixCoilMode": "SENSE",
  "Modality": "MR",
  "MultibandAccelerationFactor": 4,
  "PartialFourier": 1,
  "PatientPosition": "HFS",
  "PercentPhaseFOV": 100,
  "PercentSampling": 100,
  "PhaseEncodingDirection": "j",
  "PhaseEncodingSteps": 104,
  "PhaseResolution": 1,
  "PixelBandwidth": 2290,
  "ProcedureStepDescription": "video^friends",
  "ProtocolName": "func_task-friends-s06e18a",
  "PulseSequenceDetails": "%CustomerSeq%\\cmrr_mbep2d_bold",
  "ReceiveCoilActiveElements": "HC1-7;NC1,2",
  "ReceiveCoilName": "HeadNeck_64",
  "ReconMatrixPE": 104,
  "RepetitionTime": 1.49,
  "SAR": 0.0960786,
  "ScanOptions": "FS",
  "ScanningSequence": "EP",
  "SequenceName": "epfid2d1_104",
  "SequenceVariant": "SK\\SS",
  "SeriesDescription": "func_task-friends-s06e18a",
  "SeriesNumber": 10,
  "ShimSetting": [609, -7257, -8829, 375, 0, -419, -35, 31],
  "SliceThickness": 2,
  "SliceTiming": [0, 0.7825, 0.0975, 0.8825, 0.195, 0.98, 0.2925, 1.0775, 0.3925, 1.175, 0.49, 1.2725, 0.5875, 1.37, 0.685, 0, 0.7825, 0.0975, 0.8825, 0.195, 0.98, 0.2925, 1.0775, 0.3925, 1.175, 0.49, 1.2725, 0.5875, 1.37, 0.685, 0, 0.7825, 0.0975, 0.8825, 0.195, 0.98, 0.2925, 1.0775, 0.3925, 1.175, 0.49, 1.2725, 0.5875, 1.37, 0.685, 0, 0.7825, 0.0975, 0.8825, 0.195, 0.98, 0.2925, 1.0775, 0.3925, 1.175, 0.49, 1.2725, 0.5875, 1.37, 0.685],
  "SoftwareVersions": "syngo MR E11",
  "SpacingBetweenSlices": 2,
  "StationName": "MRC35049",
  "TaskName": "s06e18a",
  "TotalReadoutTime": 0.0576811,
  "TxRefAmp": 329.867,
  "WipMemBlock": "0b1c7900-f0dd-4bbd-bacb-78f73db74912||Sequence: R017 ve11c/master r/75a17815+; Jun 28 2022 16:32:11 by eja",
  "dcmmeta_affine": [
    [-1.9983214139938354, 0.054770998656749725, -0.060921914875507355, 97.97644805908203],
    [0.0742964893579483, 1.8382837772369385, -0.7843421697616577, -71.50912475585938],
    [-0.03451628237962723, 0.7859470844268799, 1.838775634765625, -68.57704162597656],
    [0.0, 0.0, 0.0, 1.0]
],
  "dcmmeta_reorient_transform": [
    [0.0, -1.0, 0.0, 103.0],
    [1.0, 0.0, 0.0, 0.0],
    [0.0, 0.0, 1.0, 0.0],
    [0.0, 0.0, 0.0, 1.0]
],
  "dcmmeta_shape": [104, 104, 60, 435],
  "dcmmeta_slice_dim": 2,
  "dcmmeta_version": 0.6,
  "global": {
    "const": {
      "AcquisitionMatrix": [104, 0, 0, 104],
      "AngioFlag": "N",
      "BitsAllocated": 16,
      "BitsStored": 16,
      "BodyPartExamined": "BRAIN",
      "Columns": 832,
      "EchoNumbers": 1,
      "EchoTime": 37.0,
      "EchoTrainLength": 104,
      "FlipAngle": 52.0,
      "HighBit": 15,
      "ImageOrientationPatient": [0.9991607300672, -0.0371482442871, -0.0172581412081, 0.02738549916741, 0.91914190422094, -0.3929735288037],
      "ImagePositionPatient": [-850.94351576465, -759.92549462673, 311.0241599723],
      "ImageType": [
        "ORIGINAL",
        "PRIMARY",
        "M",
        "MB",
        "ND",
        "MOSAIC"
],
      "ImagedNucleus": "1H",
      "ImagingFrequency": 123.258794,
      "InPlanePhaseEncodingDirection": "COL",
      "MRAcquisitionType": "2D",
      "MagneticFieldStrength": 3.0,
      "Manufacturer": "SIEMENS",
      "ManufacturerModelName": "Prisma_fit",
      "Modality": "MR",
      "NumberOfAverages": 1.0,
      "NumberOfPhaseEncodingSteps": 104,
      "PercentPhaseFieldOfView": 100.0,
      "PercentSampling": 100.0,
      "PerformedProcedureStepStartTime": "183128.056000",
      "PhotometricInterpretation": "MONOCHROME2",
      "PixelBandwidth": 2290.0,
      "PixelRepresentation": 0,
      "PixelSpacing": [2.0, 2.0],
      "ProtocolName": "func_task-friends-s06e18a",
      "RepetitionTime": 1490.0,
      "Rows": 832,
      "SAR": 0.09607859636141,
      "SamplesPerPixel": 1,
      "ScanOptions": "FS",
      "ScanningSequence": "EP",
      "SequenceName": "epfid2d1_104",
      "SequenceVariant": [
        "SK",
        "SS"
],
      "SeriesDescription": "func_task-friends-s06e18a",
      "SeriesNumber": 10,
      "SeriesTime": "183636.967000",
      "SliceLocation": -37.989543464247,
      "SliceThickness": 2.0,
      "SmallestImagePixelValue": 0,
      "SoftwareVersions": "syngo MR E11",
      "SpacingBetweenSlices": 1.9999999887082,
      "SpecificCharacterSet": "ISO_IR 100",
      "StudyID": "1",
      "StudyTime": "183127.971000",
      "TransmitCoilName": "Body",
      "VariableFlipAngleFlag": "N",
      "WindowCenterWidthExplanation": "Algo1",
      "dBdt": 0.0},
    "slices": {}
  },
  "time": {
    "samples": {
      "AcquisitionNumber": [1, 2, 3, 4, 5, 6, 7, 8, 9, 10, 11, 12, 13, 14, 15, 16, 17, 18, 19, 20, 21, 22, 23, 24, 25, 26, 27, 28, 29, 30, 31, 32, 33, 34, 35, 36, 37, 38, 39, 40, 41, 42, 43, 44, 45, 46, 47, 48, 49, 50, 51, 52, 53, 54, 55, 56, 57, 58, 59, 60, 61, 62, 63, 64, 65, 66, 67, 68, 69, 70, 71, 72, 73, 74, 75, 76, 77, 78, 79, 80, 81, 82, 83, 84, 85, 86, 87, 88, 89, 90, 91, 92, 93, 94, 95, 96, 97, 98, 99, 100, 101, 102, 103, 104, 105, 106, 107, 108, 109, 110, 111, 112, 113, 114, 115, 116, 117, 118, 119, 120, 121, 122, 123, 124, 125, 126, 127, 128, 129, 130, 131, 132, 133, 134, 135, 136, 137, 138, 139, 140, 141, 142, 143, 144, 145, 146, 147, 148, 149, 150, 151, 152, 153, 154, 155, 156, 157, 158, 159, 160, 161, 162, 163, 164, 165, 166, 167, 168, 169, 170, 171, 172, 173, 174, 175, 176, 177, 178, 179, 180, 181, 182, 183, 184, 185, 186, 187, 188, 189, 190, 191, 192, 193, 194, 195, 196, 197, 198, 199, 200, 201, 202, 203, 204, 205, 206, 207, 208, 209, 210, 211, 212, 213, 214, 215, 216, 217, 218, 219, 220, 221, 222, 223, 224, 225, 226, 227, 228, 229, 230, 231, 232, 233, 234, 235, 236, 237, 238, 239, 240, 241, 242, 243, 244, 245, 246, 247, 248, 249, 250, 251, 252, 253, 254, 255, 256, 257, 258, 259, 260, 261, 262, 263, 264, 265, 266, 267, 268, 269, 270, 271, 272, 273, 274, 275, 276, 277, 278, 279, 280, 281, 282, 283, 284, 285, 286, 287, 288, 289, 290, 291, 292, 293, 294, 295, 296, 297, 298, 299, 300, 301, 302, 303, 304, 305, 306, 307, 308, 309, 310, 311, 312, 313, 314, 315, 316, 317, 318, 319, 320, 321, 322, 323, 324, 325, 326, 327, 328, 329, 330, 331, 332, 333, 334, 335, 336, 337, 338, 339, 340, 341, 342, 343, 344, 345, 346, 347, 348, 349, 350, 351, 352, 353, 354, 355, 356, 357, 358, 359, 360, 361, 362, 363, 364, 365, 366, 367, 368, 369, 370, 371, 372, 373, 374, 375, 376, 377, 378, 379, 380, 381, 382, 383, 384, 385, 386, 387, 388, 389, 390, 391, 392, 393, 394, 395, 396, 397, 398, 399, 400, 401, 402, 403, 404, 405, 406, 407, 408, 409, 410, 411, 412, 413, 414, 415, 416, 417, 418, 419, 420, 421, 422, 423, 424, 425, 426, 427, 428, 429, 430, 431, 432, 433, 434, 435],
      "AcquisitionTime": ["183526.350000", "183527.840000", "183529.330000", "183530.820000", "183532.310000", "183533.800000", "183535.290000", "183536.780000", "183538.270000", "183539.760000", "183541.250000", "183542.740000", "183544.230000", "183545.720000", "183547.210000", "183548.700000", "183550.190000", "183551.680000", "183553.170000", "183554.660000", "183556.150000", "183557.640000", "183559.130000", "183600.620000", "183602.110000", "183603.600000", "183605.090000", "183606.580000", "183608.070000", "183609.560000", "183611.050000", "183612.540000", "183614.030000", "183615.520000", "183617.010000", "183618.500000", "183619.990000", "183621.480000", "183622.970000", "183624.460000", "183625.950000", "183627.440000", "183628.930000", "183630.420000", "183631.910000", "183633.400000", "183634.890000", "183636.380000", "183637.870000", "183639.360000", "183640.850000", "183642.340000", "183643.830000", "183645.320000", "183646.810000", "183648.300000", "183649.790000", "183651.280000", "183652.770000", "183654.260000", "183655.750000", "183657.240000", "183658.730000", "183700.220000", "183701.710000", "183703.200000", "183704.690000", "183706.180000", "183707.670000", "183709.160000", "183710.650000", "183712.140000", "183713.630000", "183715.120000", "183716.610000", "183718.100000", "183719.590000", "183721.080000", "183722.570000", "183724.060000", "183725.550000", "183727.040000", "183728.530000", "183730.020000", "183731.510000", "183733.000000", "183734.490000", "183735.980000", "183737.470000", "183738.960000", "183740.450000", "183741.940000", "183743.430000", "183744.920000", "183746.410000", "183747.900000", "183749.390000", "183750.880000", "183752.370000", "183753.860000", "183755.350000", "183756.840000", "183758.330000", "183759.820000", "183801.310000", "183802.800000", "183804.290000", "183805.780000", "183807.270000", "183808.760000", "183810.250000", "183811.740000", "183813.230000", "183814.720000", "183816.210000", "183817.700000", "183819.190000", "183820.680000", "183822.170000", "183823.660000", "183825.150000", "183826.640000", "183828.130000", "183829.620000", "183831.110000", "183832.600000", "183834.090000", "183835.580000", "183837.070000", "183838.560000", "183840.050000", "183841.540000", "183843.030000", "183844.520000", "183846.010000", "183847.500000", "183848.990000", "183850.480000", "183851.970000", "183853.460000", "183854.950000", "183856.440000", "183857.930000", "183859.420000", "183900.910000", "183902.400000", "183903.890000", "183905.380000", "183906.870000", "183908.360000", "183909.850000", "183911.340000", "183912.830000", "183914.320000", "183915.810000", "183917.300000", "183918.790000", "183920.280000", "183921.770000", "183923.260000", "183924.750000", "183926.240000", "183927.730000", "183929.220000", "183930.710000", "183932.200000", "183933.690000", "183935.180000", "183936.670000", "183938.160000", "183939.650000", "183941.140000", "183942.630000", "183944.120000", "183945.610000", "183947.100000", "183948.590000", "183950.080000", "183951.570000", "183953.060000", "183954.550000", "183956.040000", "183957.530000", "183959.020000", "184000.510000", "184002.000000", "184003.490000", "184004.980000", "184006.470000", "184007.960000", "184009.450000", "184010.940000", "184012.430000", "184013.920000", "184015.410000", "184016.900000", "184018.390000", "184019.880000", "184021.370000", "184022.860000", "184024.350000", "184025.840000", "184027.330000", "184028.820000", "184030.310000", "184031.800000", "184033.290000", "184034.780000", "184036.270000", "184037.760000", "184039.250000", "184040.740000", "184042.230000", "184043.720000", "184045.210000", "184046.700000", "184048.190000", "184049.680000", "184051.170000", "184052.660000", "184054.150000", "184055.640000", "184057.130000", "184058.620000", "184100.110000", "184101.600000", "184103.090000", "184104.580000", "184106.070000", "184107.560000", "184109.050000", "184110.540000", "184112.030000", "184113.520000", "184115.010000", "184116.500000", "184117.990000", "184119.480000", "184120.970000", "184122.460000", "184123.950000", "184125.440000", "184126.930000", "184128.420000", "184129.910000", "184131.400000", "184132.890000", "184134.380000", "184135.870000", "184137.360000", "184138.850000", "184140.340000", "184141.830000", "184143.320000", "184144.810000", "184146.300000", "184147.790000", "184149.280000", "184150.770000", "184152.260000", "184153.750000", "184155.240000", "184156.730000", "184158.220000", "184159.710000", "184201.200000", "184202.690000", "184204.180000", "184205.670000", "184207.160000", "184208.650000", "184210.140000", "184211.630000", "184213.120000", "184214.610000", "184216.100000", "184217.590000", "184219.080000", "184220.570000", "184222.060000", "184223.550000", "184225.040000", "184226.530000", "184228.020000", "184229.510000", "184231.000000", "184232.490000", "184233.980000", "184235.470000", "184236.960000", "184238.450000", "184239.940000", "184241.430000", "184242.920000", "184244.410000", "184245.900000", "184247.390000", "184248.880000", "184250.370000", "184251.860000", "184253.350000", "184254.840000", "184256.330000", "184257.820000", "184259.310000", "184300.800000", "184302.290000", "184303.780000", "184305.270000", "184306.760000", "184308.250000", "184309.740000", "184311.230000", "184312.720000", "184314.210000", "184315.700000", "184317.190000", "184318.680000", "184320.170000", "184321.660000", "184323.150000", "184324.640000", "184326.130000", "184327.620000", "184329.110000", "184330.600000", "184332.090000", "184333.580000", "184335.070000", "184336.560000", "184338.050000", "184339.540000", "184341.030000", "184342.520000", "184344.010000", "184345.500000", "184346.990000", "184348.480000", "184349.970000", "184351.460000", "184352.950000", "184354.440000", "184355.930000", "184357.420000", "184358.910000", "184400.400000", "184401.890000", "184403.380000", "184404.870000", "184406.360000", "184407.850000", "184409.340000", "184410.830000", "184412.320000", "184413.810000", "184415.300000", "184416.790000", "184418.280000", "184419.770000", "184421.260000", "184422.750000", "184424.240000", "184425.730000", "184427.220000", "184428.710000", "184430.200000", "184431.690000", "184433.180000", "184434.670000", "184436.160000", "184437.650000", "184439.140000", "184440.630000", "184442.120000", "184443.610000", "184445.100000", "184446.590000", "184448.080000", "184449.570000", "184451.060000", "184452.550000", "184454.040000", "184455.530000", "184457.020000", "184458.510000", "184500.000000", "184501.490000", "184502.980000", "184504.470000", "184505.960000", "184507.450000", "184508.940000", "184510.430000", "184511.920000", "184513.410000", "184514.900000", "184516.390000", "184517.880000", "184519.370000", "184520.860000", "184522.350000", "184523.840000", "184525.330000", "184526.820000", "184528.310000", "184529.800000", "184531.290000", "184532.780000", "184534.270000", "184535.760000", "184537.250000", "184538.740000", "184540.230000", "184541.720000", "184543.210000", "184544.700000", "184546.190000", "184547.680000", "184549.170000", "184550.660000", "184552.150000", "184553.640000", "184555.130000", "184556.620000", "184558.110000", "184559.600000", "184601.090000", "184602.580000", "184604.070000", "184605.560000", "184607.050000", "184608.540000", "184610.030000", "184611.520000", "184613.010000"],
      "ContentTime": ["183636.969000", "183636.973000", "183636.976000", "183636.979000", "183636.982000", "183636.984000", "183636.987000", "183636.990000", "183636.993000", "183637.005000", "183637.012000", "183637.015000", "183637.018000", "183637.021000", "183637.024000", "183637.026000", "183637.029000", "183637.032000", "183637.035000", "183637.038000", "183656.937000", "183656.940000", "183656.943000", "183656.946000", "183656.949000", "183656.952000", "183656.955000", "183656.959000", "183656.963000", "183656.966000", "183656.969000", "183656.972000", "183656.975000", "183656.978000", "183656.981000", "183656.983000", "183656.986000", "183656.989000", "183656.992000", "183656.995000", "183716.936000", "183716.939000", "183716.942000", "183716.945000", "183716.947000", "183716.950000", "183716.953000", "183716.956000", "183716.959000", "183716.962000", "183716.965000", "183716.969000", "183716.982000", "183716.985000", "183716.987000", "183716.990000", "183716.993000", "183716.996000", "183717.001000", "183717.003000", "183736.937000", "183736.940000", "183736.943000", "183736.946000", "183736.949000", "183736.952000", "183736.954000", "183736.957000", "183736.960000", "183736.963000", "183736.966000", "183736.969000", "183736.972000", "183736.974000", "183736.977000", "183736.980000", "183736.983000", "183736.986000", "183736.989000", "183736.991000", "183736.994000", "183816.937000", "183816.940000", "183816.943000", "183816.946000", "183816.948000", "183816.951000", "183816.954000", "183816.957000", "183816.960000", "183816.963000", "183816.965000", "183816.968000", "183816.971000", "183816.974000", "183816.982000", "183816.985000", "183816.988000", "183816.991000", "183816.994000", "183816.997000", "183817.000000", "183817.003000", "183817.006000", "183817.009000", "183817.012000", "183817.015000", "183817.018000", "183817.020000", "183817.023000", "183817.026000", "183817.029000", "183817.032000", "183817.035000", "183856.937000", "183856.940000", "183856.943000", "183856.946000", "183856.948000", "183856.951000", "183856.955000", "183856.958000", "183856.961000", "183856.963000", "183856.966000", "183856.969000", "183856.972000", "183856.975000", "183856.978000", "183856.981000", "183856.984000", "183856.987000", "183856.989000", "183856.992000", "183856.995000", "183857.003000", "183857.006000", "183857.009000", "183857.012000", "183857.015000", "183857.018000", "183936.938000", "183936.941000", "183936.944000", "183936.947000", "183936.950000", "183936.953000", "183936.956000", "183936.959000", "183936.962000", "183936.965000", "183936.967000", "183936.970000", "183936.973000", "183936.976000", "183936.979000", "183936.982000", "183936.985000", "183936.988000", "183936.990000", "183937.003000", "183937.006000", "183937.009000", "183937.011000", "183937.014000", "183937.017000", "183937.020000", "184016.937000", "184016.940000", "184016.943000", "184016.946000", "184016.949000", "184016.952000", "184016.955000", "184016.958000", "184016.961000", "184016.963000", "184016.966000", "184016.969000", "184016.972000", "184016.975000", "184016.978000", "184016.980000", "184016.983000", "184016.986000", "184016.989000", "184016.992000", "184016.995000", "184016.998000", "184017.002000", "184017.004000", "184017.007000", "184017.010000", "184017.013000", "184056.937000", "184056.940000", "184056.943000", "184056.946000", "184056.949000", "184056.951000", "184056.954000", "184056.957000", "184056.960000", "184056.963000", "184056.966000", "184056.969000", "184056.972000", "184056.975000", "184056.978000", "184056.981000", "184056.983000", "184056.986000", "184056.989000", "184056.992000", "184056.995000", "184056.998000", "184057.002000", "184057.005000", "184057.008000", "184057.011000", "184057.023000", "184136.937000", "184136.940000", "184136.943000", "184136.946000", "184136.949000", "184136.952000", "184136.955000", "184136.958000", "184136.961000", "184136.963000", "184136.966000", "184136.969000", "184136.972000", "184136.975000", "184136.978000", "184136.980000", "184136.983000", "184136.986000", "184136.989000", "184136.992000", "184136.995000", "184136.998000", "184137.002000", "184137.004000", "184137.007000", "184137.010000", "184137.013000", "184216.937000", "184216.940000", "184216.943000", "184216.946000", "184216.949000", "184216.952000", "184216.955000", "184216.958000", "184216.961000", "184216.964000", "184216.967000", "184216.969000", "184216.972000", "184216.975000", "184216.978000", "184216.981000", "184216.984000", "184216.987000", "184216.990000", "184216.993000", "184216.996000", "184216.998000", "184217.002000", "184217.005000", "184217.008000", "184217.011000", "184217.014000", "184256.937000", "184256.940000", "184256.943000", "184256.946000", "184256.949000", "184256.952000", "184256.955000", "184256.958000", "184256.960000", "184256.963000", "184256.966000", "184256.969000", "184256.972000", "184256.975000", "184256.978000", "184256.980000", "184256.983000", "184256.986000", "184256.989000", "184256.992000", "184256.995000", "184256.998000", "184257.002000", "184257.005000", "184257.007000", "184257.011000", "184257.013000", "184336.937000", "184336.940000", "184336.943000", "184336.946000", "184336.949000", "184336.952000", "184336.955000", "184336.958000", "184336.961000", "184336.963000", "184336.966000", "184336.969000", "184336.972000", "184336.975000", "184336.978000", "184336.981000", "184336.983000", "184336.986000", "184336.989000", "184336.992000", "184336.995000", "184336.998000", "184337.002000", "184337.005000", "184337.007000", "184337.010000", "184416.937000", "184416.940000", "184416.943000", "184416.946000", "184416.949000", "184416.951000", "184416.954000", "184416.957000", "184416.960000", "184416.963000", "184416.966000", "184416.969000", "184416.972000", "184416.974000", "184416.977000", "184416.980000", "184416.983000", "184416.986000", "184416.989000", "184416.992000", "184417.007000", "184417.010000", "184417.013000", "184417.016000", "184417.018000", "184417.021000", "184417.024000", "184456.937000", "184456.940000", "184456.943000", "184456.946000", "184456.949000", "184456.952000", "184456.954000", "184456.957000", "184456.960000", "184456.963000", "184456.966000", "184456.969000", "184456.972000", "184456.975000", "184456.977000", "184456.980000", "184456.983000", "184456.986000", "184456.989000", "184456.992000", "184456.995000", "184456.998000", "184457.001000", "184457.004000", "184457.007000", "184457.010000", "184457.013000", "184536.937000", "184536.940000", "184536.943000", "184536.946000", "184536.949000", "184536.952000", "184536.955000", "184536.958000", "184536.961000", "184536.964000", "184536.966000", "184536.969000", "184536.972000", "184536.975000", "184536.978000", "184536.981000", "184536.984000", "184536.987000", "184536.990000", "184536.993000", "184536.996000", "184537.000000", "184537.003000", "184537.006000", "184537.009000", "184537.012000", "184537.015000", "184614.960000", "184614.963000", "184614.967000", "184614.970000", "184614.974000", "184614.989000", "184614.993000", "184614.996000", "184615.001000", "184615.006000", "184615.010000", "184615.013000", "184615.017000", "184615.020000", "184615.024000", "184615.028000", "184615.032000", "184615.036000", "184615.039000", "184615.043000", "184615.047000", "184615.051000", "184615.055000", "184615.059000", "184615.062000", "184615.067000"],
