{
  "AcquisitionMatrixPE": 104,
  "AcquisitionNumber": 1,
  "AcquisitionTime": "18:47:40.090000",
  "BandwidthPerPixelPhaseEncode": 17.17,
  "BaseResolution": 104,
  "BodyPartExamined": "BRAIN",
  "CoilCombinationMethod": "Sum of Squares",
  "ConsistencyInfo": "N4_VE11C_LATEST_20160120",
  "ConversionSoftware": "dcm2niix",
  "ConversionSoftwareVersion": "v1.0.20211006",
  "DerivedVendorReportedEchoSpacing": 0.000560011,
  "DeviceSerialNumber": "167006",
  "DwellTime": 2.1e-06,
  "EchoTime": 0.037,
  "EchoTrainLength": 104,
  "EffectiveEchoSpacing": 0.000560011,
  "FlipAngle": 52,
  "HeudiconvVersion": "0.11.3.post9+gc939bf8",
  "ImageComments": "Unaliased MB4/PE3/LB",
  "ImageOrientationPatientDICOM": [0.999161, -0.0371482, -0.0172581, 0.0273855, 0.919142, -0.392974],
  "ImageOrientationText": "Tra>Cor(-23.1)>Sag(-1.7)",
  "ImageType": [
    "ORIGINAL",
    "PRIMARY",
    "M",
    "MB",
    "ND",
    "MOSAIC"
],
  "ImagingFrequency": 123.259,
  "InPlanePhaseEncodingDirectionDICOM": "COL",
  "InstitutionAddress": "Chemin Queen-Mary 4565,Montreal,District,CA,H3W 1W5",
  "InstitutionName": "IUGM",
  "InstitutionalDepartmentName": "Department",
  "MRAcquisitionType": "2D",
  "MagneticFieldStrength": 3,
  "Manufacturer": "Siemens",
  "ManufacturersModelName": "Prisma_fit",
  "MatrixCoilMode": "SENSE",
  "Modality": "MR",
  "MultibandAccelerationFactor": 4,
  "PartialFourier": 1,
  "PatientPosition": "HFS",
  "PercentPhaseFOV": 100,
  "PercentSampling": 100,
  "PhaseEncodingDirection": "j",
  "PhaseEncodingSteps": 104,
  "PhaseResolution": 1,
  "PixelBandwidth": 2290,
  "ProcedureStepDescription": "video^friends",
  "ProtocolName": "func_task-friends-s06e18b",
  "PulseSequenceDetails": "%CustomerSeq%\\cmrr_mbep2d_bold",
  "ReceiveCoilActiveElements": "HC1-7;NC1,2",
  "ReceiveCoilName": "HeadNeck_64",
  "ReconMatrixPE": 104,
  "RepetitionTime": 1.49,
  "SAR": 0.0960786,
  "ScanOptions": "FS",
  "ScanningSequence": "EP",
  "SequenceName": "epfid2d1_104",
  "SequenceVariant": "SK\\SS",
  "SeriesDescription": "func_task-friends-s06e18b",
  "SeriesNumber": 12,
  "ShimSetting": [609, -7257, -8829, 375, 0, -419, -35, 31],
  "SliceThickness": 2,
  "SliceTiming": [0, 0.785, 0.0975, 0.8825, 0.1975, 0.98, 0.295, 1.0775, 0.3925, 1.1775, 0.49, 1.275, 0.5875, 1.3725, 0.6875, 0, 0.785, 0.0975, 0.8825, 0.1975, 0.98, 0.295, 1.0775, 0.3925, 1.1775, 0.49, 1.275, 0.5875, 1.3725, 0.6875, 0, 0.785, 0.0975, 0.8825, 0.1975, 0.98, 0.295, 1.0775, 0.3925, 1.1775, 0.49, 1.275, 0.5875, 1.3725, 0.6875, 0, 0.785, 0.0975, 0.8825, 0.1975, 0.98, 0.295, 1.0775, 0.3925, 1.1775, 0.49, 1.275, 0.5875, 1.3725, 0.6875],
  "SoftwareVersions": "syngo MR E11",
  "SpacingBetweenSlices": 2,
  "StationName": "MRC35049",
  "TaskName": "s06e18b",
  "TotalReadoutTime": 0.0576811,
  "TxRefAmp": 329.867,
  "WipMemBlock": "5d930d97-3be4-4758-b312-76fbff399f10||Sequence: R017 ve11c/master r/75a17815+; Jun 28 2022 16:32:11 by eja",
  "dcmmeta_affine": [
    [-1.9983214139938354, 0.054770998656749725, -0.060921914875507355, 97.97644805908203],
    [0.0742964893579483, 1.8382837772369385, -0.7843421697616577, -71.50912475585938],
    [-0.03451628237962723, 0.7859470844268799, 1.838775634765625, -68.57704162597656],
    [0.0, 0.0, 0.0, 1.0]
],
  "dcmmeta_reorient_transform": [
    [0.0, -1.0, 0.0, 103.0],
    [1.0, 0.0, 0.0, 0.0],
    [0.0, 0.0, 1.0, 0.0],
    [0.0, 0.0, 0.0, 1.0]
],
  "dcmmeta_shape": [104, 104, 60, 470],
  "dcmmeta_slice_dim": 2,
  "dcmmeta_version": 0.6,
  "global": {
    "const": {
      "AcquisitionMatrix": [104, 0, 0, 104],
      "AngioFlag": "N",
      "BitsAllocated": 16,
      "BitsStored": 16,
      "BodyPartExamined": "BRAIN",
      "Columns": 832,
      "EchoNumbers": 1,
      "EchoTime": 37.0,
      "EchoTrainLength": 104,
      "FlipAngle": 52.0,
      "HighBit": 15,
      "ImageOrientationPatient": [0.9991607300672, -0.0371482442871, -0.0172581412081, 0.02738549916741, 0.91914190422094, -0.3929735288037],
      "ImagePositionPatient": [-850.94351576465, -759.92549462673, 311.0241599723],
      "ImageType": [
        "ORIGINAL",
        "PRIMARY",
        "M",
        "MB",
        "ND",
        "MOSAIC"
],
      "ImagedNucleus": "1H",
      "ImagingFrequency": 123.258797,
      "InPlanePhaseEncodingDirection": "COL",
      "MRAcquisitionType": "2D",
      "MagneticFieldStrength": 3.0,
      "Manufacturer": "SIEMENS",
      "ManufacturerModelName": "Prisma_fit",
      "Modality": "MR",
      "NumberOfAverages": 1.0,
      "NumberOfPhaseEncodingSteps": 104,
      "PercentPhaseFieldOfView": 100.0,
      "PercentSampling": 100.0,
      "PerformedProcedureStepStartTime": "183128.056000",
      "PhotometricInterpretation": "MONOCHROME2",
      "PixelBandwidth": 2290.0,
      "PixelRepresentation": 0,
      "PixelSpacing": [2.0, 2.0],
      "ProtocolName": "func_task-friends-s06e18b",
      "RepetitionTime": 1490.0,
      "Rows": 832,
      "SAR": 0.09607859443013,
      "SamplesPerPixel": 1,
      "ScanOptions": "FS",
      "ScanningSequence": "EP",
      "SequenceName": "epfid2d1_104",
      "SequenceVariant": [
        "SK",
        "SS"
],
      "SeriesDescription": "func_task-friends-s06e18b",
      "SeriesNumber": 12,
      "SeriesTime": "184836.944000",
      "SliceLocation": -37.989543464247,
      "SliceThickness": 2.0,
      "SmallestImagePixelValue": 0,
      "SoftwareVersions": "syngo MR E11",
      "SpacingBetweenSlices": 1.9999999887082,
      "SpecificCharacterSet": "ISO_IR 100",
      "StudyID": "1",
      "StudyTime": "183127.971000",
      "TransmitCoilName": "Body",
      "VariableFlipAngleFlag": "N",
      "WindowCenterWidthExplanation": "Algo1",
      "dBdt": 0.0},
    "slices": {}
  },
  "time": {
    "samples": {
      "AcquisitionNumber": [1, 2, 3, 4, 5, 6, 7, 8, 9, 10, 11, 12, 13, 14, 15, 16, 17, 18, 19, 20, 21, 22, 23, 24, 25, 26, 27, 28, 29, 30, 31, 32, 33, 34, 35, 36, 37, 38, 39, 40, 41, 42, 43, 44, 45, 46, 47, 48, 49, 50, 51, 52, 53, 54, 55, 56, 57, 58, 59, 60, 61, 62, 63, 64, 65, 66, 67, 68, 69, 70, 71, 72, 73, 74, 75, 76, 77, 78, 79, 80, 81, 82, 83, 84, 85, 86, 87, 88, 89, 90, 91, 92, 93, 94, 95, 96, 97, 98, 99, 100, 101, 102, 103, 104, 105, 106, 107, 108, 109, 110, 111, 112, 113, 114, 115, 116, 117, 118, 119, 120, 121, 122, 123, 124, 125, 126, 127, 128, 129, 130, 131, 132, 133, 134, 135, 136, 137, 138, 139, 140, 141, 142, 143, 144, 145, 146, 147, 148, 149, 150, 151, 152, 153, 154, 155, 156, 157, 158, 159, 160, 161, 162, 163, 164, 165, 166, 167, 168, 169, 170, 171, 172, 173, 174, 175, 176, 177, 178, 179, 180, 181, 182, 183, 184, 185, 186, 187, 188, 189, 190, 191, 192, 193, 194, 195, 196, 197, 198, 199, 200, 201, 202, 203, 204, 205, 206, 207, 208, 209, 210, 211, 212, 213, 214, 215, 216, 217, 218, 219, 220, 221, 222, 223, 224, 225, 226, 227, 228, 229, 230, 231, 232, 233, 234, 235, 236, 237, 238, 239, 240, 241, 242, 243, 244, 245, 246, 247, 248, 249, 250, 251, 252, 253, 254, 255, 256, 257, 258, 259, 260, 261, 262, 263, 264, 265, 266, 267, 268, 269, 270, 271, 272, 273, 274, 275, 276, 277, 278, 279, 280, 281, 282, 283, 284, 285, 286, 287, 288, 289, 290, 291, 292, 293, 294, 295, 296, 297, 298, 299, 300, 301, 302, 303, 304, 305, 306, 307, 308, 309, 310, 311, 312, 313, 314, 315, 316, 317, 318, 319, 320, 321, 322, 323, 324, 325, 326, 327, 328, 329, 330, 331, 332, 333, 334, 335, 336, 337, 338, 339, 340, 341, 342, 343, 344, 345, 346, 347, 348, 349, 350, 351, 352, 353, 354, 355, 356, 357, 358, 359, 360, 361, 362, 363, 364, 365, 366, 367, 368, 369, 370, 371, 372, 373, 374, 375, 376, 377, 378, 379, 380, 381, 382, 383, 384, 385, 386, 387, 388, 389, 390, 391, 392, 393, 394, 395, 396, 397, 398, 399, 400, 401, 402, 403, 404, 405, 406, 407, 408, 409, 410, 411, 412, 413, 414, 415, 416, 417, 418, 419, 420, 421, 422, 423, 424, 425, 426, 427, 428, 429, 430, 431, 432, 433, 434, 435, 436, 437, 438, 439, 440, 441, 442, 443, 444, 445, 446, 447, 448, 449, 450, 451, 452, 453, 454, 455, 456, 457, 458, 459, 460, 461, 462, 463, 464, 465, 466, 467, 468, 469, 470],
      "AcquisitionTime": ["184740.090000", "184741.580000", "184743.070000", "184744.560000", "184746.050000", "184747.540000", "184749.030000", "184750.520000", "184752.010000", "184753.500000", "184754.990000", "184756.480000", "184757.970000", "184759.460000", "184800.950000", "184802.440000", "184803.930000", "184805.420000", "184806.910000", "184808.400000", "184809.890000", "184811.380000", "184812.870000", "184814.360000", "184815.850000", "184817.340000", "184818.830000", "184820.320000", "184821.810000", "184823.300000", "184824.790000", "184826.280000", "184827.770000", "184829.260000", "184830.750000", "184832.240000", "184833.730000", "184835.220000", "184836.710000", "184838.200000", "184839.690000", "184841.180000", "184842.670000", "184844.160000", "184845.650000", "184847.140000", "184848.630000", "184850.120000", "184851.610000", "184853.100000", "184854.590000", "184856.080000", "184857.570000", "184859.060000", "184900.550000", "184902.040000", "184903.530000", "184905.020000", "184906.510000", "184908.000000", "184909.490000", "184910.980000", "184912.470000", "184913.960000", "184915.450000", "184916.940000", "184918.430000", "184919.920000", "184921.410000", "184922.900000", "184924.390000", "184925.880000", "184927.370000", "184928.860000", "184930.350000", "184931.840000", "184933.330000", "184934.820000", "184936.310000", "184937.800000", "184939.290000", "184940.780000", "184942.270000", "184943.760000", "184945.250000", "184946.740000", "184948.230000", "184949.720000", "184951.210000", "184952.700000", "184954.190000", "184955.680000", "184957.170000", "184958.660000", "185000.150000", "185001.640000", "185003.130000", "185004.620000", "185006.110000", "185007.600000", "185009.090000", "185010.580000", "185012.070000", "185013.560000", "185015.050000", "185016.540000", "185018.030000", "185019.520000", "185021.010000", "185022.500000", "185023.990000", "185025.480000", "185026.970000", "185028.460000", "185029.950000", "185031.440000", "185032.930000", "185034.420000", "185035.910000", "185037.400000", "185038.890000", "185040.380000", "185041.870000", "185043.360000", "185044.850000", "185046.340000", "185047.830000", "185049.320000", "185050.810000", "185052.300000", "185053.790000", "185055.280000", "185056.770000", "185058.260000", "185059.750000", "185101.240000", "185102.730000", "185104.220000", "185105.710000", "185107.200000", "185108.690000", "185110.180000", "185111.670000", "185113.160000", "185114.650000", "185116.140000", "185117.630000", "185119.120000", "185120.610000", "185122.100000", "185123.590000", "185125.080000", "185126.570000", "185128.060000", "185129.550000", "185131.040000", "185132.530000", "185134.020000", "185135.510000", "185137.000000", "185138.490000", "185139.980000", "185141.470000", "185142.960000", "185144.450000", "185145.940000", "185147.430000", "185148.920000", "185150.410000", "185151.900000", "185153.390000", "185154.880000", "185156.370000", "185157.860000", "185159.350000", "185200.840000", "185202.330000", "185203.820000", "185205.310000", "185206.800000", "185208.290000", "185209.780000", "185211.270000", "185212.760000", "185214.250000", "185215.740000", "185217.230000", "185218.720000", "185220.210000", "185221.700000", "185223.190000", "185224.680000", "185226.170000", "185227.660000", "185229.150000", "185230.640000", "185232.130000", "185233.620000", "185235.110000", "185236.600000", "185238.090000", "185239.580000", "185241.070000", "185242.560000", "185244.050000", "185245.540000", "185247.030000", "185248.520000", "185250.010000", "185251.500000", "185252.990000", "185254.480000", "185255.970000", "185257.460000", "185258.950000", "185300.440000", "185301.930000", "185303.420000", "185304.910000", "185306.400000", "185307.890000", "185309.380000", "185310.870000", "185312.360000", "185313.850000", "185315.340000", "185316.830000", "185318.320000", "185319.810000", "185321.300000", "185322.790000", "185324.280000", "185325.770000", "185327.260000", "185328.750000", "185330.240000", "185331.730000", "185333.220000", "185334.710000", "185336.200000", "185337.690000", "185339.180000", "185340.670000", "185342.160000", "185343.650000", "185345.140000", "185346.630000", "185348.120000", "185349.610000", "185351.100000", "185352.590000", "185354.080000", "185355.570000", "185357.060000", "185358.550000", "185400.040000", "185401.530000", "185403.020000", "185404.510000", "185406.000000", "185407.490000", "185408.980000", "185410.470000", "185411.960000", "185413.450000", "185414.940000", "185416.430000", "185417.920000", "185419.410000", "185420.900000", "185422.390000", "185423.880000", "185425.370000", "185426.860000", "185428.350000", "185429.840000", "185431.330000", "185432.820000", "185434.310000", "185435.800000", "185437.290000", "185438.780000", "185440.270000", "185441.760000", "185443.250000", "185444.740000", "185446.230000", "185447.720000", "185449.210000", "185450.700000", "185452.190000", "185453.680000", "185455.170000", "185456.660000", "185458.150000", "185459.640000", "185501.130000", "185502.620000", "185504.110000", "185505.600000", "185507.090000", "185508.580000", "185510.070000", "185511.560000", "185513.050000", "185514.540000", "185516.030000", "185517.520000", "185519.010000", "185520.500000", "185521.990000", "185523.480000", "185524.970000", "185526.460000", "185527.950000", "185529.440000", "185530.930000", "185532.420000", "185533.910000", "185535.400000", "185536.890000", "185538.380000", "185539.870000", "185541.360000", "185542.850000", "185544.340000", "185545.830000", "185547.320000", "185548.810000", "185550.300000", "185551.790000", "185553.280000", "185554.770000", "185556.260000", "185557.750000", "185559.240000", "185600.730000", "185602.220000", "185603.710000", "185605.200000", "185606.690000", "185608.180000", "185609.670000", "185611.160000", "185612.650000", "185614.140000", "185615.630000", "185617.120000", "185618.610000", "185620.100000", "185621.590000", "185623.080000", "185624.570000", "185626.060000", "185627.550000", "185629.040000", "185630.530000", "185632.020000", "185633.510000", "185635.000000", "185636.490000", "185637.980000", "185639.470000", "185640.960000", "185642.450000", "185643.940000", "185645.430000", "185646.920000", "185648.410000", "185649.900000", "185651.390000", "185652.880000", "185654.370000", "185655.860000", "185657.350000", "185658.840000", "185700.330000", "185701.820000", "185703.310000", "185704.800000", "185706.290000", "185707.780000", "185709.270000", "185710.760000", "185712.250000", "185713.740000", "185715.230000", "185716.720000", "185718.210000", "185719.700000", "185721.190000", "185722.680000", "185724.170000", "185725.660000", "185727.150000", "185728.640000", "185730.130000", "185731.620000", "185733.110000", "185734.600000", "185736.090000", "185737.580000", "185739.070000", "185740.560000", "185742.050000", "185743.540000", "185745.030000", "185746.520000", "185748.010000", "185749.500000", "185750.990000", "185752.480000", "185753.970000", "185755.460000", "185756.950000", "185758.440000", "185759.930000", "185801.420000", "185802.910000", "185804.400000", "185805.890000", "185807.380000", "185808.870000", "185810.360000", "185811.850000", "185813.340000", "185814.830000", "185816.320000", "185817.810000", "185819.300000", "185820.790000", "185822.280000", "185823.770000", "185825.260000", "185826.750000", "185828.240000", "185829.730000", "185831.220000", "185832.710000", "185834.200000", "185835.690000", "185837.180000", "185838.670000", "185840.160000", "185841.650000", "185843.140000", "185844.630000", "185846.120000", "185847.610000", "185849.100000", "185850.590000", "185852.080000", "185853.570000", "185855.060000", "185856.550000", "185858.040000", "185859.530000", "185901.020000", "185902.510000", "185904.000000", "185905.490000", "185906.980000", "185908.470000", "185909.960000", "185911.450000", "185912.940000", "185914.430000", "185915.920000", "185917.410000", "185918.900000"],
      "ContentTime": ["184836.947000", "184836.950000", "184836.953000", "184836.956000", "184836.967000", "184836.970000", "184836.973000", "184836.977000", "184836.980000", "184856.911000", "184856.914000", "184856.922000", "184856.925000", "184856.928000", "184856.931000", "184856.934000", "184856.937000", "184856.939000", "184856.942000", "184856.945000", "184856.948000", "184856.957000", "184856.960000", "184856.963000", "184856.966000", "184856.969000", "184856.971000", "184856.974000", "184856.977000", "184916.911000", "184916.914000", "184916.917000", "184916.920000", "184916.922000", "184916.925000", "184916.928000", "184916.931000", "184916.934000", "184916.937000", "184916.943000", "184916.946000", "184916.949000", "184916.952000", "184916.955000", "184916.958000", "184916.961000", "184916.964000", "184916.967000", "184916.969000", "184936.911000", "184936.914000", "184936.917000", "184936.920000", "184936.923000", "184936.926000", "184936.928000", "184936.931000", "184936.934000", "184936.937000", "184936.940000", "184936.943000", "184936.946000", "184936.949000", "184936.952000", "184936.955000", "184936.958000", "184936.961000", "184936.963000", "184936.966000", "184956.911000", "184956.914000", "184956.917000", "184956.920000", "184956.923000", "184956.926000", "184956.929000", "184956.931000", "184956.934000", "184956.937000", "184956.940000", "184956.943000", "184956.946000", "184956.949000", "184956.952000", "184956.955000", "184956.957000", "184956.961000", "184956.963000", "184956.966000", "185036.911000", "185036.914000", "185036.917000", "185036.920000", "185036.923000", "185036.926000", "185036.929000", "185036.932000", "185036.934000", "185036.937000", "185036.940000", "185036.943000", "185036.946000", "185036.949000", "185036.952000", "185036.955000", "185036.958000", "185036.975000", "185036.978000", "185036.981000", "185036.984000", "185036.987000", "185036.990000", "185036.993000", "185036.995000", "185036.998000", "185037.002000", "185037.005000", "185037.008000", "185116.911000", "185116.914000", "185116.917000", "185116.920000", "185116.923000", "185116.926000", "185116.928000", "185116.931000", "185116.934000", "185116.937000", "185116.940000", "185116.943000", "185116.946000", "185116.949000", "185116.952000", "185116.955000", "185116.958000", "185116.961000", "185116.964000", "185116.967000", "185116.970000", "185116.972000", "185116.975000", "185116.978000", "185116.981000", "185116.984000", "185116.987000", "185156.911000", "185156.914000", "185156.917000", "185156.920000", "185156.923000", "185156.926000", "185156.929000", "185156.932000", "185156.935000", "185156.937000", "185156.940000", "185156.943000", "185156.946000", "185156.949000", "185156.952000", "185156.955000", "185156.958000", "185156.961000", "185156.964000", "185156.967000", "185156.970000", "185156.973000", "185156.976000", "185156.979000", "185156.981000", "185156.984000", "185156.987000", "185236.911000", "185236.914000", "185236.917000", "185236.920000", "185236.923000", "185236.926000", "185236.929000", "185236.932000", "185236.935000", "185236.938000", "185236.941000", "185236.944000", "185236.947000", "185236.949000", "185236.952000", "185236.955000", "185236.958000", "185236.961000", "185236.964000", "185236.967000", "185236.970000", "185236.973000", "185236.976000", "185236.979000", "185236.982000", "185236.984000", "185316.910000", "185316.913000", "185316.924000", "185316.927000", "185316.930000", "185316.933000", "185316.936000", "185316.939000", "185316.942000", "185316.945000", "185316.948000", "185316.951000", "185316.954000", "185316.957000", "185316.960000", "185316.963000", "185316.966000", "185316.969000", "185316.972000", "185316.974000", "185316.978000", "185316.980000", "185316.983000", "185316.986000", "185316.989000", "185316.992000", "185316.995000", "185356.911000", "185356.914000", "185356.917000", "185356.920000", "185356.923000", "185356.926000", "185356.929000", "185356.932000", "185356.935000", "185356.937000", "185356.940000", "185356.943000", "185356.946000", "185356.949000", "185356.952000", "185356.955000", "185356.958000", "185356.961000", "185356.964000", "185356.967000", "185356.970000", "185356.972000", "185356.975000", "185356.978000", "185356.981000", "185356.984000", "185356.987000", "185436.911000", "185436.914000", "185436.917000", "185436.920000", "185436.923000", "185436.926000", "185436.929000", "185436.932000", "185436.934000", "185436.937000", "185436.940000", "185436.943000", "185436.946000", "185436.949000", "185436.952000", "185436.955000", "185436.958000", "185436.961000", "185436.964000", "185436.967000", "185436.969000", "185436.972000", "185436.975000", "185436.978000", "185436.981000", "185436.984000", "185436.987000", "185516.911000", "185516.914000", "185516.917000", "185516.920000", "185516.923000", "185516.926000", "185516.929000", "185516.931000", "185516.934000", "185516.937000", "185516.940000", "185516.943000", "185516.946000", "185516.949000", "185516.952000", "185516.967000", "185516.970000", "185516.973000", "185516.976000", "185516.979000", "185516.982000", "185516.985000", "185516.988000", "185516.990000", "185516.993000", "185516.996000", "185517.000000", "185556.911000", "185556.914000", "185556.917000", "185556.920000", "185556.923000", "185556.925000", "185556.928000", "185556.931000", "185556.934000", "185556.937000", "185556.940000", "185556.943000", "185556.946000", "185556.948000", "185556.951000", "185556.954000", "185556.957000", "185556.960000", "185556.963000", "185556.966000", "185556.969000", "185556.972000", "185556.974000", "185556.977000", "185556.980000", "185556.983000", "185556.986000", "185636.911000", "185636.914000", "185636.917000", "185636.920000", "185636.923000", "185636.926000", "185636.929000", "185636.932000", "185636.935000", "185636.937000", "185636.940000", "185636.943000", "185636.946000", "185636.949000", "185636.952000", "185636.955000", "185636.958000", "185636.961000", "185636.964000", "185636.967000", "185636.970000", "185636.973000", "185636.976000", "185636.979000", "185636.982000", "185636.985000", "185636.987000", "185716.911000", "185716.914000", "185716.917000", "185716.920000", "185716.923000", "185716.926000", "185716.929000", "185716.931000", "185716.935000", "185716.937000", "185716.940000", "185716.943000", "185716.946000", "185716.949000", "185716.952000", "185716.955000", "185716.958000", "185716.961000", "185716.964000", "185716.967000", "185716.970000", "185716.973000", "185716.976000", "185716.979000", "185716.982000", "185716.985000", "185736.911000", "185736.914000", "185736.917000", "185736.920000", "185736.923000", "185736.926000", "185736.929000", "185736.932000", "185736.935000", "185736.938000", "185736.941000", "185736.944000", "185736.946000", "185736.949000", "185816.911000", "185816.914000", "185816.917000", "185816.920000", "185816.923000", "185816.926000", "185816.929000", "185816.932000", "185816.934000", "185816.937000", "185816.940000", "185816.943000", "185816.946000", "185816.949000", "185816.952000", "185816.955000", "185816.958000", "185816.961000", "185816.964000", "185816.967000", "185816.970000", "185816.973000", "185816.976000", "185816.978000", "185816.981000", "185816.984000", "185816.987000", "185856.911000", "185856.914000", "185856.917000", "185856.920000", "185856.923000", "185856.926000", "185856.929000", "185856.932000", "185856.935000", "185856.938000", "185856.941000", "185856.944000", "185856.947000", "185856.950000", "185856.953000", "185856.956000", "185856.958000", "185856.962000", "185856.965000", "185856.968000", "185856.970000", "185856.974000", "185856.976000", "185856.979000", "185856.982000", "185856.985000", "185920.823000", "185920.826000", "185920.829000", "185920.832000", "185920.835000", "185920.838000", "185920.841000", "185920.844000", "185920.846000", "185920.849000", "185920.852000", "185920.855000", "185920.858000", "185920.861000", "185920.864000", "185920.868000", "185920.882000"],
