{
  "AcquisitionMatrixPE": 104,
  "AcquisitionNumber": 1,
  "AcquisitionTime": "19:00:37.205000",
  "BandwidthPerPixelPhaseEncode": 17.17,
  "BaseResolution": 104,
  "BodyPartExamined": "BRAIN",
  "CoilCombinationMethod": "Sum of Squares",
  "ConsistencyInfo": "N4_VE11C_LATEST_20160120",
  "ConversionSoftware": "dcm2niix",
  "ConversionSoftwareVersion": "v1.0.20211006",
  "DerivedVendorReportedEchoSpacing": 0.000560011,
  "DeviceSerialNumber": "167006",
  "DwellTime": 2.1e-06,
  "EchoTime": 0.037,
  "EchoTrainLength": 104,
  "EffectiveEchoSpacing": 0.000560011,
  "FlipAngle": 52,
  "HeudiconvVersion": "0.11.3.post9+gc939bf8",
  "ImageComments": "Unaliased MB4/PE3/LB",
  "ImageOrientationPatientDICOM": [0.999161, -0.0371482, -0.0172581, 0.0273855, 0.919142, -0.392974],
  "ImageOrientationText": "Tra>Cor(-23.1)>Sag(-1.7)",
  "ImageType": [
    "ORIGINAL",
    "PRIMARY",
    "M",
    "MB",
    "ND",
    "MOSAIC"
],
  "ImagingFrequency": 123.259,
  "InPlanePhaseEncodingDirectionDICOM": "COL",
  "InstitutionAddress": "Chemin Queen-Mary 4565,Montreal,District,CA,H3W 1W5",
  "InstitutionName": "IUGM",
  "InstitutionalDepartmentName": "Department",
  "MRAcquisitionType": "2D",
  "MagneticFieldStrength": 3,
  "Manufacturer": "Siemens",
  "ManufacturersModelName": "Prisma_fit",
  "MatrixCoilMode": "SENSE",
  "Modality": "MR",
  "MultibandAccelerationFactor": 4,
  "PartialFourier": 1,
  "PatientPosition": "HFS",
  "PercentPhaseFOV": 100,
  "PercentSampling": 100,
  "PhaseEncodingDirection": "j",
  "PhaseEncodingSteps": 104,
  "PhaseResolution": 1,
  "PixelBandwidth": 2290,
  "ProcedureStepDescription": "video^friends",
  "ProtocolName": "func_task-friends-s06e19a",
  "PulseSequenceDetails": "%CustomerSeq%\\cmrr_mbep2d_bold",
  "ReceiveCoilActiveElements": "HC1-7;NC1,2",
  "ReceiveCoilName": "HeadNeck_64",
  "ReconMatrixPE": 104,
  "RepetitionTime": 1.49,
  "SAR": 0.0960786,
  "ScanOptions": "FS",
  "ScanningSequence": "EP",
  "SequenceName": "epfid2d1_104",
  "SequenceVariant": "SK\\SS",
  "SeriesDescription": "func_task-friends-s06e19a",
  "SeriesNumber": 14,
  "ShimSetting": [609, -7257, -8829, 375, 0, -419, -35, 31],
  "SliceThickness": 2,
  "SliceTiming": [0, 0.785, 0.1, 0.8825, 0.1975, 0.98, 0.295, 1.08, 0.3925, 1.1775, 0.49, 1.275, 0.59, 1.3725, 0.6875, 0, 0.785, 0.1, 0.8825, 0.1975, 0.98, 0.295, 1.08, 0.3925, 1.1775, 0.49, 1.275, 0.59, 1.3725, 0.6875, 0, 0.785, 0.1, 0.8825, 0.1975, 0.98, 0.295, 1.08, 0.3925, 1.1775, 0.49, 1.275, 0.59, 1.3725, 0.6875, 0, 0.785, 0.1, 0.8825, 0.1975, 0.98, 0.295, 1.08, 0.3925, 1.1775, 0.49, 1.275, 0.59, 1.3725, 0.6875],
  "SoftwareVersions": "syngo MR E11",
  "SpacingBetweenSlices": 2,
  "StationName": "MRC35049",
  "TaskName": "s06e19a",
  "TotalReadoutTime": 0.0576811,
  "TxRefAmp": 329.867,
  "WipMemBlock": "88039142-75ad-4e1d-88c2-d77551a3a44a||Sequence: R017 ve11c/master r/75a17815+; Jun 28 2022 16:32:11 by eja",
  "dcmmeta_affine": [
    [-1.9983214139938354, 0.054770998656749725, -0.060921914875507355, 97.97644805908203],
    [0.0742964893579483, 1.8382837772369385, -0.7843421697616577, -71.50912475585938],
    [-0.03451628237962723, 0.7859470844268799, 1.838775634765625, -68.57704162597656],
    [0.0, 0.0, 0.0, 1.0]
],
  "dcmmeta_reorient_transform": [
    [0.0, -1.0, 0.0, 103.0],
    [1.0, 0.0, 0.0, 0.0],
    [0.0, 0.0, 1.0, 0.0],
    [0.0, 0.0, 0.0, 1.0]
],
  "dcmmeta_shape": [104, 104, 60, 434],
  "dcmmeta_slice_dim": 2,
  "dcmmeta_version": 0.6,
  "global": {
    "const": {
      "AcquisitionMatrix": [104, 0, 0, 104],
      "AngioFlag": "N",
      "BitsAllocated": 16,
      "BitsStored": 16,
      "BodyPartExamined": "BRAIN",
      "Columns": 832,
      "EchoNumbers": 1,
      "EchoTime": 37.0,
      "EchoTrainLength": 104,
      "FlipAngle": 52.0,
      "HighBit": 15,
      "ImageOrientationPatient": [0.9991607300672, -0.0371482442871, -0.0172581412081, 0.02738549916741, 0.91914190422094, -0.3929735288037],
      "ImagePositionPatient": [-850.94351576465, -759.92549462673, 311.0241599723],
      "ImageType": [
        "ORIGINAL",
        "PRIMARY",
        "M",
        "MB",
        "ND",
        "MOSAIC"
],
      "ImagedNucleus": "1H",
      "ImagingFrequency": 123.258806,
      "InPlanePhaseEncodingDirection": "COL",
      "MRAcquisitionType": "2D",
      "MagneticFieldStrength": 3.0,
      "Manufacturer": "SIEMENS",
      "ManufacturerModelName": "Prisma_fit",
      "Modality": "MR",
      "NumberOfAverages": 1.0,
      "NumberOfPhaseEncodingSteps": 104,
      "PercentPhaseFieldOfView": 100.0,
      "PercentSampling": 100.0,
      "PerformedProcedureStepStartTime": "183128.056000",
      "PhotometricInterpretation": "MONOCHROME2",
      "PixelBandwidth": 2290.0,
      "PixelRepresentation": 0,
      "PixelSpacing": [2.0, 2.0],
      "ProtocolName": "func_task-friends-s06e19a",
      "RepetitionTime": 1490.0,
      "Rows": 832,
      "SAR": 0.09607859303044,
      "SamplesPerPixel": 1,
      "ScanOptions": "FS",
      "ScanningSequence": "EP",
      "SequenceName": "epfid2d1_104",
      "SequenceVariant": [
        "SK",
        "SS"
],
      "SeriesDescription": "func_task-friends-s06e19a",
      "SeriesNumber": 14,
      "SeriesTime": "190151.588000",
      "SliceLocation": -37.989543464247,
      "SliceThickness": 2.0,
      "SmallestImagePixelValue": 0,
      "SoftwareVersions": "syngo MR E11",
      "SpacingBetweenSlices": 1.9999999887082,
      "SpecificCharacterSet": "ISO_IR 100",
      "StudyID": "1",
      "StudyTime": "183127.971000",
      "TransmitCoilName": "Body",
      "VariableFlipAngleFlag": "N",
      "WindowCenterWidthExplanation": "Algo1",
      "dBdt": 0.0},
    "slices": {}
  },
  "time": {
    "samples": {
      "AcquisitionNumber": [1, 2, 3, 4, 5, 6, 7, 8, 9, 10, 11, 12, 13, 14, 15, 16, 17, 18, 19, 20, 21, 22, 23, 24, 25, 26, 27, 28, 29, 30, 31, 32, 33, 34, 35, 36, 37, 38, 39, 40, 41, 42, 43, 44, 45, 46, 47, 48, 49, 50, 51, 52, 53, 54, 55, 56, 57, 58, 59, 60, 61, 62, 63, 64, 65, 66, 67, 68, 69, 70, 71, 72, 73, 74, 75, 76, 77, 78, 79, 80, 81, 82, 83, 84, 85, 86, 87, 88, 89, 90, 91, 92, 93, 94, 95, 96, 97, 98, 99, 100, 101, 102, 103, 104, 105, 106, 107, 108, 109, 110, 111, 112, 113, 114, 115, 116, 117, 118, 119, 120, 121, 122, 123, 124, 125, 126, 127, 128, 129, 130, 131, 132, 133, 134, 135, 136, 137, 138, 139, 140, 141, 142, 143, 144, 145, 146, 147, 148, 149, 150, 151, 152, 153, 154, 155, 156, 157, 158, 159, 160, 161, 162, 163, 164, 165, 166, 167, 168, 169, 170, 171, 172, 173, 174, 175, 176, 177, 178, 179, 180, 181, 182, 183, 184, 185, 186, 187, 188, 189, 190, 191, 192, 193, 194, 195, 196, 197, 198, 199, 200, 201, 202, 203, 204, 205, 206, 207, 208, 209, 210, 211, 212, 213, 214, 215, 216, 217, 218, 219, 220, 221, 222, 223, 224, 225, 226, 227, 228, 229, 230, 231, 232, 233, 234, 235, 236, 237, 238, 239, 240, 241, 242, 243, 244, 245, 246, 247, 248, 249, 250, 251, 252, 253, 254, 255, 256, 257, 258, 259, 260, 261, 262, 263, 264, 265, 266, 267, 268, 269, 270, 271, 272, 273, 274, 275, 276, 277, 278, 279, 280, 281, 282, 283, 284, 285, 286, 287, 288, 289, 290, 291, 292, 293, 294, 295, 296, 297, 298, 299, 300, 301, 302, 303, 304, 305, 306, 307, 308, 309, 310, 311, 312, 313, 314, 315, 316, 317, 318, 319, 320, 321, 322, 323, 324, 325, 326, 327, 328, 329, 330, 331, 332, 333, 334, 335, 336, 337, 338, 339, 340, 341, 342, 343, 344, 345, 346, 347, 348, 349, 350, 351, 352, 353, 354, 355, 356, 357, 358, 359, 360, 361, 362, 363, 364, 365, 366, 367, 368, 369, 370, 371, 372, 373, 374, 375, 376, 377, 378, 379, 380, 381, 382, 383, 384, 385, 386, 387, 388, 389, 390, 391, 392, 393, 394, 395, 396, 397, 398, 399, 400, 401, 402, 403, 404, 405, 406, 407, 408, 409, 410, 411, 412, 413, 414, 415, 416, 417, 418, 419, 420, 421, 422, 423, 424, 425, 426, 427, 428, 429, 430, 431, 432, 433, 434],
      "AcquisitionTime": ["190037.205000", "190038.695000", "190040.185000", "190041.675000", "190043.165000", "190044.655000", "190046.145000", "190047.635000", "190049.125000", "190050.615000", "190052.105000", "190053.595000", "190055.085000", "190056.575000", "190058.065000", "190059.555000", "190101.045000", "190102.535000", "190104.025000", "190105.515000", "190107.005000", "190108.495000", "190109.985000", "190111.475000", "190112.965000", "190114.455000", "190115.945000", "190117.435000", "190118.925000", "190120.415000", "190121.905000", "190123.395000", "190124.885000", "190126.375000", "190127.865000", "190129.355000", "190130.845000", "190132.335000", "190133.825000", "190135.315000", "190136.805000", "190138.295000", "190139.785000", "190141.275000", "190142.765000", "190144.255000", "190145.745000", "190147.235000", "190148.725000", "190150.215000", "190151.705000", "190153.195000", "190154.685000", "190156.175000", "190157.665000", "190159.155000", "190200.645000", "190202.135000", "190203.625000", "190205.115000", "190206.605000", "190208.095000", "190209.585000", "190211.075000", "190212.565000", "190214.055000", "190215.545000", "190217.035000", "190218.525000", "190220.015000", "190221.505000", "190222.995000", "190224.485000", "190225.975000", "190227.465000", "190228.955000", "190230.445000", "190231.935000", "190233.425000", "190234.915000", "190236.405000", "190237.895000", "190239.385000", "190240.875000", "190242.365000", "190243.855000", "190245.345000", "190246.835000", "190248.325000", "190249.815000", "190251.305000", "190252.795000", "190254.285000", "190255.775000", "190257.265000", "190258.755000", "190300.245000", "190301.735000", "190303.225000", "190304.715000", "190306.205000", "190307.695000", "190309.185000", "190310.675000", "190312.165000", "190313.655000", "190315.145000", "190316.635000", "190318.125000", "190319.615000", "190321.105000", "190322.595000", "190324.085000", "190325.575000", "190327.065000", "190328.555000", "190330.045000", "190331.535000", "190333.025000", "190334.515000", "190336.005000", "190337.495000", "190338.985000", "190340.475000", "190341.965000", "190343.455000", "190344.945000", "190346.435000", "190347.925000", "190349.415000", "190350.905000", "190352.395000", "190353.885000", "190355.375000", "190356.865000", "190358.355000", "190359.845000", "190401.335000", "190402.825000", "190404.315000", "190405.805000", "190407.295000", "190408.785000", "190410.275000", "190411.765000", "190413.255000", "190414.745000", "190416.235000", "190417.725000", "190419.215000", "190420.705000", "190422.195000", "190423.685000", "190425.175000", "190426.665000", "190428.155000", "190429.645000", "190431.135000", "190432.625000", "190434.115000", "190435.605000", "190437.095000", "190438.585000", "190440.075000", "190441.565000", "190443.055000", "190444.545000", "190446.035000", "190447.525000", "190449.015000", "190450.505000", "190451.995000", "190453.485000", "190454.975000", "190456.465000", "190457.955000", "190459.445000", "190500.935000", "190502.425000", "190503.915000", "190505.405000", "190506.895000", "190508.385000", "190509.875000", "190511.365000", "190512.855000", "190514.345000", "190515.835000", "190517.325000", "190518.815000", "190520.305000", "190521.795000", "190523.285000", "190524.775000", "190526.265000", "190527.755000", "190529.245000", "190530.735000", "190532.225000", "190533.715000", "190535.205000", "190536.695000", "190538.185000", "190539.675000", "190541.165000", "190542.655000", "190544.145000", "190545.635000", "190547.125000", "190548.615000", "190550.105000", "190551.595000", "190553.085000", "190554.575000", "190556.065000", "190557.555000", "190559.045000", "190600.535000", "190602.025000", "190603.515000", "190605.005000", "190606.495000", "190607.985000", "190609.475000", "190610.965000", "190612.455000", "190613.945000", "190615.435000", "190616.925000", "190618.415000", "190619.905000", "190621.395000", "190622.885000", "190624.375000", "190625.865000", "190627.355000", "190628.845000", "190630.335000", "190631.825000", "190633.315000", "190634.805000", "190636.295000", "190637.785000", "190639.275000", "190640.765000", "190642.255000", "190643.745000", "190645.235000", "190646.725000", "190648.215000", "190649.705000", "190651.195000", "190652.685000", "190654.175000", "190655.665000", "190657.155000", "190658.645000", "190700.135000", "190701.625000", "190703.115000", "190704.605000", "190706.095000", "190707.585000", "190709.075000", "190710.565000", "190712.055000", "190713.545000", "190715.035000", "190716.525000", "190718.015000", "190719.505000", "190720.995000", "190722.485000", "190723.975000", "190725.465000", "190726.955000", "190728.445000", "190729.935000", "190731.425000", "190732.915000", "190734.405000", "190735.895000", "190737.385000", "190738.875000", "190740.365000", "190741.855000", "190743.345000", "190744.835000", "190746.325000", "190747.815000", "190749.305000", "190750.795000", "190752.285000", "190753.775000", "190755.265000", "190756.755000", "190758.245000", "190759.735000", "190801.225000", "190802.715000", "190804.205000", "190805.695000", "190807.185000", "190808.675000", "190810.165000", "190811.655000", "190813.145000", "190814.635000", "190816.125000", "190817.615000", "190819.105000", "190820.595000", "190822.085000", "190823.575000", "190825.065000", "190826.555000", "190828.045000", "190829.535000", "190831.025000", "190832.515000", "190834.005000", "190835.495000", "190836.985000", "190838.475000", "190839.965000", "190841.455000", "190842.945000", "190844.435000", "190845.925000", "190847.415000", "190848.905000", "190850.395000", "190851.885000", "190853.375000", "190854.865000", "190856.355000", "190857.845000", "190859.335000", "190900.825000", "190902.315000", "190903.805000", "190905.295000", "190906.785000", "190908.275000", "190909.765000", "190911.255000", "190912.745000", "190914.235000", "190915.725000", "190917.215000", "190918.705000", "190920.195000", "190921.685000", "190923.175000", "190924.665000", "190926.155000", "190927.645000", "190929.135000", "190930.625000", "190932.115000", "190933.605000", "190935.095000", "190936.585000", "190938.075000", "190939.565000", "190941.055000", "190942.545000", "190944.035000", "190945.525000", "190947.015000", "190948.505000", "190949.995000", "190951.485000", "190952.975000", "190954.465000", "190955.955000", "190957.445000", "190958.935000", "191000.425000", "191001.915000", "191003.405000", "191004.895000", "191006.385000", "191007.875000", "191009.365000", "191010.855000", "191012.345000", "191013.835000", "191015.325000", "191016.815000", "191018.305000", "191019.795000", "191021.285000", "191022.775000", "191024.265000", "191025.755000", "191027.245000", "191028.735000", "191030.225000", "191031.715000", "191033.205000", "191034.695000", "191036.185000", "191037.675000", "191039.165000", "191040.655000", "191042.145000", "191043.635000", "191045.125000", "191046.615000", "191048.105000", "191049.595000", "191051.085000", "191052.575000", "191054.065000", "191055.555000", "191057.045000", "191058.535000", "191100.025000", "191101.515000", "191103.005000", "191104.495000", "191105.985000", "191107.475000", "191108.965000", "191110.455000", "191111.945000", "191113.435000", "191114.925000", "191116.415000", "191117.905000", "191119.395000", "191120.885000", "191122.375000"],
      "ContentTime": ["190151.591000", "190151.597000", "190151.600000", "190151.603000", "190151.606000", "190151.609000", "190151.612000", "190151.615000", "190151.617000", "190151.620000", "190151.631000", "190151.634000", "190151.637000", "190151.640000", "190151.643000", "190151.646000", "190151.649000", "190151.652000", "190151.655000", "190151.658000", "190151.663000", "190151.666000", "190151.669000", "190151.672000", "190151.675000", "190211.542000", "190211.545000", "190211.548000", "190211.551000", "190211.554000", "190211.557000", "190211.560000", "190211.563000", "190211.565000", "190211.568000", "190211.571000", "190211.575000", "190211.577000", "190211.580000", "190211.583000", "190211.586000", "190211.589000", "190211.594000", "190211.596000", "190211.600000", "190211.602000", "190231.542000", "190231.545000", "190231.548000", "190231.551000", "190231.554000", "190231.557000", "190231.560000", "190231.563000", "190231.565000", "190231.568000", "190231.572000", "190231.574000", "190231.577000", "190231.580000", "190231.583000", "190231.589000", "190231.592000", "190231.595000", "190231.598000", "190231.601000", "190251.542000", "190251.545000", "190251.548000", "190251.551000", "190251.554000", "190251.558000", "190251.561000", "190251.564000", "190251.567000", "190251.570000", "190251.573000", "190251.575000", "190251.578000", "190251.581000", "190251.584000", "190251.587000", "190251.590000", "190251.593000", "190251.596000", "190251.599000", "190331.543000", "190331.546000", "190331.549000", "190331.552000", "190331.555000", "190331.558000", "190331.561000", "190331.564000", "190331.567000", "190331.570000", "190331.573000", "190331.575000", "190331.578000", "190331.581000", "190331.584000", "190331.587000", "190331.590000", "190331.593000", "190331.596000", "190331.599000", "190331.602000", "190331.605000", "190331.608000", "190331.610000", "190331.613000", "190331.616000", "190331.619000", "190331.622000", "190331.625000", "190331.629000", "190411.542000", "190411.545000", "190411.548000", "190411.551000", "190411.554000", "190411.557000", "190411.560000", "190411.563000", "190411.565000", "190411.568000", "190411.572000", "190411.574000", "190411.577000", "190411.580000", "190411.583000", "190411.586000", "190411.589000", "190411.592000", "190411.595000", "190411.598000", "190411.601000", "190411.604000", "190411.607000", "190411.610000", "190411.612000", "190411.615000", "190411.618000", "190451.542000", "190451.545000", "190451.548000", "190451.551000", "190451.554000", "190451.556000", "190451.559000", "190451.575000", "190451.579000", "190451.582000", "190451.585000", "190451.588000", "190451.591000", "190451.594000", "190451.597000", "190451.599000", "190451.602000", "190451.605000", "190451.608000", "190451.611000", "190451.614000", "190451.617000", "190451.620000", "190451.623000", "190451.626000", "190451.628000", "190451.631000", "190531.542000", "190531.545000", "190531.548000", "190531.565000", "190531.568000", "190531.571000", "190531.573000", "190531.576000", "190531.579000", "190531.582000", "190531.585000", "190531.588000", "190531.591000", "190531.594000", "190531.596000", "190531.599000", "190531.602000", "190531.605000", "190531.608000", "190531.611000", "190531.615000", "190531.618000", "190531.621000", "190531.624000", "190531.627000", "190531.629000", "190611.542000", "190611.545000", "190611.548000", "190611.551000", "190611.554000", "190611.556000", "190611.559000", "190611.562000", "190611.565000", "190611.568000", "190611.571000", "190611.574000", "190611.577000", "190611.580000", "190611.583000", "190611.586000", "190611.589000", "190611.591000", "190611.594000", "190611.597000", "190611.600000", "190611.603000", "190611.614000", "190611.617000", "190611.620000", "190611.623000", "190611.626000", "190651.542000", "190651.545000", "190651.548000", "190651.551000", "190651.554000", "190651.557000", "190651.559000", "190651.562000", "190651.565000", "190651.568000", "190651.571000", "190651.574000", "190651.577000", "190651.580000", "190651.583000", "190651.586000", "190651.588000", "190651.591000", "190651.594000", "190651.597000", "190651.600000", "190651.603000", "190651.606000", "190651.610000", "190651.613000", "190651.616000", "190651.619000", "190731.542000", "190731.545000", "190731.548000", "190731.551000", "190731.554000", "190731.557000", "190731.560000", "190731.563000", "190731.566000", "190731.568000", "190731.571000", "190731.574000", "190731.577000", "190731.580000", "190731.583000", "190731.586000", "190731.589000", "190731.592000", "190731.594000", "190731.597000", "190731.600000", "190731.603000", "190731.606000", "190731.609000", "190731.612000", "190731.614000", "190731.617000", "190751.542000", "190751.545000", "190751.548000", "190751.551000", "190751.554000", "190751.556000", "190751.559000", "190751.562000", "190751.565000", "190751.568000", "190751.571000", "190751.574000", "190751.577000", "190831.542000", "190831.545000", "190831.548000", "190831.551000", "190831.554000", "190831.557000", "190831.559000", "190831.562000", "190831.565000", "190831.568000", "190831.571000", "190831.574000", "190831.577000", "190831.580000", "190831.582000", "190831.585000", "190831.588000", "190831.591000", "190831.594000", "190831.597000", "190831.600000", "190831.603000", "190831.606000", "190831.608000", "190831.611000", "190831.614000", "190831.617000", "190911.542000", "190911.545000", "190911.548000", "190911.551000", "190911.554000", "190911.557000", "190911.560000", "190911.562000", "190911.565000", "190911.568000", "190911.571000", "190911.574000", "190911.577000", "190911.580000", "190911.583000", "190911.586000", "190911.589000", "190911.591000", "190911.594000", "190911.597000", "190911.600000", "190911.603000", "190911.606000", "190911.609000", "190911.612000", "190911.614000", "190911.617000", "190951.542000", "190951.545000", "190951.548000", "190951.551000", "190951.554000", "190951.557000", "190951.560000", "190951.563000", "190951.565000", "190951.568000", "190951.571000", "190951.574000", "190951.577000", "190951.580000", "190951.586000", "190951.589000", "190951.592000", "190951.607000", "190951.611000", "190951.613000", "190951.616000", "190951.619000", "190951.622000", "190951.625000", "190951.628000", "190951.631000", "190951.634000", "191031.542000", "191031.545000", "191031.548000", "191031.551000", "191031.554000", "191031.557000", "191031.560000", "191031.563000", "191031.565000", "191031.568000", "191031.571000", "191031.574000", "191031.577000", "191031.580000", "191031.583000", "191031.586000", "191031.589000", "191031.592000", "191031.595000", "191031.597000", "191031.600000", "191031.603000", "191031.606000", "191031.609000", "191031.612000", "191031.615000", "191031.618000", "191111.542000", "191111.545000", "191111.548000", "191111.551000", "191111.554000", "191111.557000", "191111.559000", "191111.562000", "191111.565000", "191111.568000", "191111.571000", "191111.574000", "191111.577000", "191111.580000", "191111.583000", "191111.586000", "191111.589000", "191111.592000", "191111.594000", "191111.597000", "191111.600000", "191111.603000", "191111.606000", "191111.609000", "191111.612000", "191111.615000", "191111.617000", "191124.925000", "191124.928000", "191124.931000", "191124.934000", "191124.937000", "191124.940000", "191124.943000", "191124.946000", "191124.949000"],
      "InstanceCreationTime": ["190151.591000", "190151.597000", "190151.600000", "190151.603000", "190151.606000", "190151.609000", "190151.612000", "190151.615000", "190151.617000", "190151.620000", "190151.631000", "190151.634000", "190151.637000", "190151.640000", "190151.643000", "190151.646000", "190151.649000", "190151.652000", "190151.655000", "190151.658000", "190151.663000", "190151.666000", "190151.669000", "190151.672000", "190151.675000", "190211.542000", "190211.545000", "190211.548000", "190211.551000", "190211.554000", "190211.557000", "190211.560000", "190211.563000", "190211.565000", "190211.568000", "190211.571000", "190211.575000", "190211.577000", "190211.580000", "190211.583000", "190211.586000", "190211.589000", "190211.594000", "190211.596000", "190211.600000", "190211.602000", "190231.542000", "190231.545000", "190231.548000", "190231.551000", "190231.554000", "190231.557000", "190231.560000", "190231.563000", "190231.565000", "190231.568000", "190231.572000", "190231.574000", "190231.577000", "190231.580000", "190231.583000", "190231.589000", "190231.592000", "190231.595000", "190231.598000", "190231.601000", "190251.542000", "190251.545000", "190251.548000", "190251.551000", "190251.554000", "190251.558000", "190251.561000", "190251.564000", "190251.567000", "190251.570000", "190251.573000", "190251.575000", "190251.578000", "190251.581000", "190251.584000", "190251.587000", "190251.590000", "190251.593000", "190251.596000", "190251.599000", "190331.543000", "190331.546000", "190331.549000", "190331.552000", "190331.555000", "190331.558000", "190331.561000", "190331.564000", "190331.567000", "190331.570000", "190331.573000", "190331.575000", "190331.578000", "190331.581000", "190331.584000", "190331.587000", "190331.590000", "190331.593000", "190331.596000", "190331.599000", "190331.602000", "190331.605000", "190331.608000", "190331.610000", "190331.613000", "190331.616000", "190331.619000", "190331.622000", "190331.625000", "190331.629000", "190411.542000", "190411.545000", "190411.548000", "190411.551000", "190411.554000", "190411.557000", "190411.560000", "190411.563000", "190411.565000", "190411.568000", "190411.572000", "190411.574000", "190411.577000", "190411.580000", "190411.583000", "190411.586000", "190411.589000", "190411.592000", "190411.595000", "190411.598000", "190411.601000", "190411.604000", "190411.607000", "190411.610000", "190411.612000", "190411.615000", "190411.618000", "190451.542000", "190451.545000", "190451.548000", "190451.551000", "190451.554000", "190451.556000", "190451.559000", "190451.575000", "190451.579000", "190451.582000", "190451.585000", "190451.588000", "190451.591000", "190451.594000", "190451.597000", "190451.599000", "190451.602000", "190451.605000", "190451.608000", "190451.611000", "190451.614000", "190451.617000", "190451.620000", "190451.623000", "190451.626000", "190451.628000", "190451.631000", "190531.542000", "190531.545000", "190531.548000", "190531.565000", "190531.568000", "190531.571000", "190531.573000", "190531.576000", "190531.579000", "190531.582000", "190531.585000", "190531.588000", "190531.591000", "190531.594000", "190531.596000", "190531.599000", "190531.602000", "190531.605000", "190531.608000", "190531.611000", "190531.615000", "190531.618000", "190531.621000", "190531.624000", "190531.627000", "190531.629000", "190611.542000", "190611.545000", "190611.548000", "190611.551000", "190611.554000", "190611.556000", "190611.559000", "190611.562000", "190611.565000", "190611.568000", "190611.571000", "190611.574000", "190611.577000", "190611.580000", "190611.583000", "190611.586000", "190611.589000", "190611.591000", "190611.594000", "190611.597000", "190611.600000", "190611.603000", "190611.614000", "190611.617000", "190611.620000", "190611.623000", "190611.626000", "190651.542000", "190651.545000", "190651.548000", "190651.551000", "190651.554000", "190651.557000", "190651.559000", "190651.562000", "190651.565000", "190651.568000", "190651.571000", "190651.574000", "190651.577000", "190651.580000", "190651.583000", "190651.586000", "190651.588000", "190651.591000", "190651.594000", "190651.597000", "190651.600000", "190651.603000", "190651.606000", "190651.610000", "190651.613000", "190651.616000", "190651.619000", "190731.542000", "190731.545000", "190731.548000", "190731.551000", "190731.554000", "190731.557000", "190731.560000", "190731.563000", "190731.566000", "190731.568000", "190731.571000", "190731.574000", "190731.577000", "190731.580000", "190731.583000", "190731.586000", "190731.589000", "190731.592000", "190731.594000", "190731.597000", "190731.600000", "190731.603000", "190731.606000", "190731.609000", "190731.612000", "190731.614000", "190731.617000", "190751.542000", "190751.545000", "190751.548000", "190751.551000", "190751.554000", "190751.556000", "190751.559000", "190751.562000", "190751.565000", "190751.568000", "190751.571000", "190751.574000", "190751.577000", "190831.542000", "190831.545000", "190831.548000", "190831.551000", "190831.554000", "190831.557000", "190831.559000", "190831.562000", "190831.565000", "190831.568000", "190831.571000", "190831.574000", "190831.577000", "190831.580000", "190831.582000", "190831.585000", "190831.588000", "190831.591000", "190831.594000", "190831.597000", "190831.600000", "190831.603000", "190831.606000", "190831.608000", "190831.611000", "190831.614000", "190831.617000", "190911.542000", "190911.545000", "190911.548000", "190911.551000", "190911.554000", "190911.557000", "190911.560000", "190911.562000", "190911.565000", "190911.568000", "190911.571000", "190911.574000", "190911.577000", "190911.580000", "190911.583000", "190911.586000", "190911.589000", "190911.591000", "190911.594000", "190911.597000", "190911.600000", "190911.603000", "190911.606000", "190911.609000", "190911.612000", "190911.614000", "190911.617000", "190951.542000", "190951.545000", "190951.548000", "190951.551000", "190951.554000", "190951.557000", "190951.560000", "190951.563000", "190951.565000", "190951.568000", "190951.571000", "190951.574000", "190951.577000", "190951.580000", "190951.586000", "190951.589000", "190951.592000", "190951.607000", "190951.611000", "190951.613000", "190951.616000", "190951.619000", "190951.622000", "190951.625000", "190951.628000", "190951.631000", "190951.634000", "191031.542000", "191031.545000", "191031.548000", "191031.551000", "191031.554000", "191031.557000", "191031.560000", "191031.563000", "191031.565000", "191031.568000", "191031.571000", "191031.574000", "191031.577000", "191031.580000", "191031.583000", "191031.586000", "191031.589000", "191031.592000", "191031.595000", "191031.597000", "191031.600000", "191031.603000", "191031.606000", "191031.609000", "191031.612000", "191031.615000", "191031.618000", "191111.542000", "191111.545000", "191111.548000", "191111.551000", "191111.554000", "191111.557000", "191111.559000", "191111.562000", "191111.565000", "191111.568000", "191111.571000", "191111.574000", "191111.577000", "191111.580000", "191111.583000", "191111.586000", "191111.589000", "191111.592000", "191111.594000", "191111.597000", "191111.600000", "191111.603000", "191111.606000", "191111.609000", "191111.612000", "191111.615000", "191111.617000", "191124.925000", "191124.928000", "191124.931000", "191124.934000", "191124.937000", "191124.940000", "191124.943000", "191124.946000", "191124.949000"],
