{
  "AcquisitionMatrixPE": 104,
  "AcquisitionNumber": 1,
  "AcquisitionTime": "18:09:1.677500",
  "BandwidthPerPixelPhaseEncode": 17.17,
  "BaseResolution": 104,
  "BodyPartExamined": "BRAIN",
  "CoilCombinationMethod": "Sum of Squares",
  "ConsistencyInfo": "N4_VE11C_LATEST_20160120",
  "ConversionSoftware": "dcm2niix",
  "ConversionSoftwareVersion": "v1.0.20211006",
  "DerivedVendorReportedEchoSpacing": 0.000560011,
  "DeviceSerialNumber": "167006",
  "DwellTime": 2.1e-06,
  "EchoTime": 0.037,
  "EchoTrainLength": 104,
  "EffectiveEchoSpacing": 0.000560011,
  "FlipAngle": 52,
  "HeudiconvVersion": "0.5.3.post569+g418601f",
  "ImageComments": "Unaliased MB4/PE3/LB",
  "ImageOrientationPatientDICOM": [0.996882, 0.0741351, 0.0270278, -0.0574799, 0.916907, -0.394939],
  "ImageOrientationText": "Tra>Cor(-23.1)>Sag(3.1)",
  "ImageType": [
    "ORIGINAL",
    "PRIMARY",
    "M",
    "MB",
    "ND",
    "MOSAIC"
],
  "ImagingFrequency": 123.259,
  "InPlanePhaseEncodingDirectionDICOM": "COL",
  "InstitutionAddress": "Chemin Queen-Mary 4565,Montreal,District,CA,H3W 1W5",
  "InstitutionName": "IUGM",
  "InstitutionalDepartmentName": "Department",
  "MRAcquisitionType": "2D",
  "MagneticFieldStrength": 3,
  "Manufacturer": "Siemens",
  "ManufacturersModelName": "Prisma_fit",
  "MatrixCoilMode": "SENSE",
  "Modality": "MR",
  "MultibandAccelerationFactor": 4,
  "PartialFourier": 1,
  "PatientPosition": "HFS",
  "PercentPhaseFOV": 100,
  "PercentSampling": 100,
  "PhaseEncodingDirection": "j",
  "PhaseEncodingSteps": 104,
  "PhaseResolution": 1,
  "PixelBandwidth": 2290,
  "ProcedureStepDescription": "video^friends",
  "ProtocolName": "func_task-friends-s06e01b",
  "PulseSequenceDetails": "%CustomerSeq%\\cmrr_mbep2d_bold",
  "ReceiveCoilActiveElements": "HC1-7;NC1,2",
  "ReceiveCoilName": "HeadNeck_64",
  "ReconMatrixPE": 104,
  "RepetitionTime": 1.49,
  "SAR": 0.036697,
  "ScanOptions": "FS",
  "ScanningSequence": "EP",
  "SequenceName": "epfid2d1_104",
  "SequenceVariant": "SK\\SS",
  "SeriesDescription": "func_task-friends-s06e01b",
  "SeriesNumber": 15,
  "ShimSetting": [638, -7171, -8829, 621, 56, -25, -97, 2],
  "SliceThickness": 2,
  "SliceTiming": [0, 0.785, 0.0975, 0.8825, 0.1975, 0.98, 0.295, 1.0775, 0.3925, 1.1775, 0.49, 1.275, 0.5875, 1.3725, 0.6875, 0, 0.785, 0.0975, 0.8825, 0.1975, 0.98, 0.295, 1.0775, 0.3925, 1.1775, 0.49, 1.275, 0.5875, 1.3725, 0.6875, 0, 0.785, 0.0975, 0.8825, 0.1975, 0.98, 0.295, 1.0775, 0.3925, 1.1775, 0.49, 1.275, 0.5875, 1.3725, 0.6875, 0, 0.785, 0.0975, 0.8825, 0.1975, 0.98, 0.295, 1.0775, 0.3925, 1.1775, 0.49, 1.275, 0.5875, 1.3725, 0.6875],
  "SoftwareVersions": "syngo MR E11",
  "SpacingBetweenSlices": 2,
  "StationName": "MRC35049",
  "TaskName": "s06e01b",
  "TotalReadoutTime": 0.0576811,
  "TxRefAmp": 243.753,
  "WipMemBlock": "08524683-aa41-4a78-86a3-d99f9d657431||Sequence: R016 ve11c/master r/e634e98; Dec 19 2017 11:00:25 by eja",
  "dcmmeta_affine": [
    [-1.99376380443573, -0.114959716796875, 0.10812172293663025, 106.42078399658203],
    [-0.1482701152563095, 1.8338147401809692, -0.7843083739280701, -58.65919876098633],
    [0.05405566468834877, 0.7898784279823303, 1.8366191387176514, -73.0577392578125],
    [0.0, 0.0, 0.0, 1.0]
],
  "dcmmeta_reorient_transform": [
    [0.0, -1.0, 0.0, 103.0],
    [1.0, 0.0, 0.0, 0.0],
    [0.0, 0.0, 1.0, 0.0],
    [0.0, 0.0, 0.0, 1.0]
],
  "dcmmeta_shape": [104, 104, 60, 499],
  "dcmmeta_slice_dim": 2,
  "dcmmeta_version": 0.6,
  "global": {
    "const": {
      "AcquisitionMatrix": [104, 0, 0, 104],
      "AngioFlag": "N",
      "BitsAllocated": 16,
      "BitsStored": 16,
      "BodyPartExamined": "BRAIN",
      "Columns": 832,
      "EchoNumbers": 1,
      "EchoTime": 37.0,
      "EchoTrainLength": 104,
      "FlipAngle": 52.0,
      "HighBit": 15,
      "ImageOrientationPatient": [0.99688188325395, 0.07413506002098, 0.02702783224274, -0.0574798585337, 0.91690734149958, -0.3949392269288],
      "ImagePositionPatient": [-778.46460493812, -851.70258202018, 276.13923525857],
      "ImageType": [
        "ORIGINAL",
        "PRIMARY",
        "M",
        "MB",
        "ND",
        "MOSAIC"
],
      "ImagedNucleus": "1H",
      "ImagingFrequency": 123.258547,
      "InPlanePhaseEncodingDirection": "COL",
      "MRAcquisitionType": "2D",
      "MagneticFieldStrength": 3.0,
      "Manufacturer": "SIEMENS",
      "ManufacturerModelName": "Prisma_fit",
      "Modality": "MR",
      "NumberOfAverages": 1.0,
      "NumberOfPhaseEncodingSteps": 104,
      "PercentPhaseFieldOfView": 100.0,
      "PercentSampling": 100.0,
      "PerformedProcedureStepStartTime": "170753.507000",
      "PhotometricInterpretation": "MONOCHROME2",
      "PixelBandwidth": 2290.0,
      "PixelRepresentation": 0,
      "PixelSpacing": [2.0, 2.0],
      "ProtocolName": "func_task-friends-s06e01b",
      "RepetitionTime": 1490.0,
      "Rows": 832,
      "SAR": 0.03669701158742,
      "SamplesPerPixel": 1,
      "ScanOptions": "FS",
      "ScanningSequence": "EP",
      "SequenceName": "epfid2d1_104",
      "SequenceVariant": [
        "SK",
        "SS"
],
      "SeriesDescription": "func_task-friends-s06e01b",
      "SeriesNumber": 15,
      "SeriesTime": "181019.826000",
      "SliceLocation": -38.332973556907,
      "SliceThickness": 2.0,
      "SmallestImagePixelValue": 0,
      "SoftwareVersions": "syngo MR E11",
      "SpacingBetweenSlices": 1.9999999742469,
      "SpecificCharacterSet": "ISO_IR 100",
      "StudyID": "1",
      "StudyTime": "170753.395000",
      "TransmitCoilName": "Body",
      "VariableFlipAngleFlag": "N",
      "WindowCenterWidthExplanation": "Algo1",
      "dBdt": 0.0},
    "slices": {}
  },
  "time": {
    "samples": {
      "AcquisitionNumber": [1, 2, 3, 4, 5, 6, 7, 8, 9, 10, 11, 12, 13, 14, 15, 16, 17, 18, 19, 20, 21, 22, 23, 24, 25, 26, 27, 28, 29, 30, 31, 32, 33, 34, 35, 36, 37, 38, 39, 40, 41, 42, 43, 44, 45, 46, 47, 48, 49, 50, 51, 52, 53, 54, 55, 56, 57, 58, 59, 60, 61, 62, 63, 64, 65, 66, 67, 68, 69, 70, 71, 72, 73, 74, 75, 76, 77, 78, 79, 80, 81, 82, 83, 84, 85, 86, 87, 88, 89, 90, 91, 92, 93, 94, 95, 96, 97, 98, 99, 100, 101, 102, 103, 104, 105, 106, 107, 108, 109, 110, 111, 112, 113, 114, 115, 116, 117, 118, 119, 120, 121, 122, 123, 124, 125, 126, 127, 128, 129, 130, 131, 132, 133, 134, 135, 136, 137, 138, 139, 140, 141, 142, 143, 144, 145, 146, 147, 148, 149, 150, 151, 152, 153, 154, 155, 156, 157, 158, 159, 160, 161, 162, 163, 164, 165, 166, 167, 168, 169, 170, 171, 172, 173, 174, 175, 176, 177, 178, 179, 180, 181, 182, 183, 184, 185, 186, 187, 188, 189, 190, 191, 192, 193, 194, 195, 196, 197, 198, 199, 200, 201, 202, 203, 204, 205, 206, 207, 208, 209, 210, 211, 212, 213, 214, 215, 216, 217, 218, 219, 220, 221, 222, 223, 224, 225, 226, 227, 228, 229, 230, 231, 232, 233, 234, 235, 236, 237, 238, 239, 240, 241, 242, 243, 244, 245, 246, 247, 248, 249, 250, 251, 252, 253, 254, 255, 256, 257, 258, 259, 260, 261, 262, 263, 264, 265, 266, 267, 268, 269, 270, 271, 272, 273, 274, 275, 276, 277, 278, 279, 280, 281, 282, 283, 284, 285, 286, 287, 288, 289, 290, 291, 292, 293, 294, 295, 296, 297, 298, 299, 300, 301, 302, 303, 304, 305, 306, 307, 308, 309, 310, 311, 312, 313, 314, 315, 316, 317, 318, 319, 320, 321, 322, 323, 324, 325, 326, 327, 328, 329, 330, 331, 332, 333, 334, 335, 336, 337, 338, 339, 340, 341, 342, 343, 344, 345, 346, 347, 348, 349, 350, 351, 352, 353, 354, 355, 356, 357, 358, 359, 360, 361, 362, 363, 364, 365, 366, 367, 368, 369, 370, 371, 372, 373, 374, 375, 376, 377, 378, 379, 380, 381, 382, 383, 384, 385, 386, 387, 388, 389, 390, 391, 392, 393, 394, 395, 396, 397, 398, 399, 400, 401, 402, 403, 404, 405, 406, 407, 408, 409, 410, 411, 412, 413, 414, 415, 416, 417, 418, 419, 420, 421, 422, 423, 424, 425, 426, 427, 428, 429, 430, 431, 432, 433, 434, 435, 436, 437, 438, 439, 440, 441, 442, 443, 444, 445, 446, 447, 448, 449, 450, 451, 452, 453, 454, 455, 456, 457, 458, 459, 460, 461, 462, 463, 464, 465, 466, 467, 468, 469, 470, 471, 472, 473, 474, 475, 476, 477, 478, 479, 480, 481, 482, 483, 484, 485, 486, 487, 488, 489, 490, 491, 492, 493, 494, 495, 496, 497, 498, 499],
      "AcquisitionTime": ["180901.677500", "180903.167500", "180904.657500", "180906.147500", "180907.637500", "180909.127500", "180910.617500", "180912.107500", "180913.597500", "180915.087500", "180916.577500", "180918.067500", "180919.557500", "180921.047500", "180922.537500", "180924.027500", "180925.517500", "180927.007500", "180928.497500", "180929.987500", "180931.477500", "180932.967500", "180934.457500", "180935.947500", "180937.437500", "180938.927500", "180940.417500", "180941.907500", "180943.397500", "180944.887500", "180946.377500", "180947.867500", "180949.357500", "180950.847500", "180952.337500", "180953.827500", "180955.317500", "180956.807500", "180958.297500", "180959.787500", "181001.277500", "181002.767500", "181004.257500", "181005.747500", "181007.237500", "181008.727500", "181010.217500", "181011.707500", "181013.197500", "181014.687500", "181016.177500", "181017.667500", "181019.157500", "181020.647500", "181022.137500", "181023.627500", "181025.117500", "181026.607500", "181028.097500", "181029.587500", "181031.077500", "181032.567500", "181034.057500", "181035.547500", "181037.037500", "181038.527500", "181040.017500", "181041.507500", "181042.997500", "181044.487500", "181045.977500", "181047.467500", "181048.957500", "181050.447500", "181051.937500", "181053.427500", "181054.917500", "181056.407500", "181057.897500", "181059.387500", "181100.877500", "181102.367500", "181103.857500", "181105.347500", "181106.837500", "181108.327500", "181109.817500", "181111.307500", "181112.797500", "181114.287500", "181115.777500", "181117.267500", "181118.757500", "181120.247500", "181121.737500", "181123.227500", "181124.717500", "181126.207500", "181127.697500", "181129.187500", "181130.677500", "181132.167500", "181133.657500", "181135.147500", "181136.637500", "181138.127500", "181139.617500", "181141.107500", "181142.597500", "181144.087500", "181145.577500", "181147.067500", "181148.557500", "181150.047500", "181151.537500", "181153.027500", "181154.517500", "181156.007500", "181157.497500", "181158.987500", "181200.477500", "181201.967500", "181203.457500", "181204.947500", "181206.437500", "181207.927500", "181209.417500", "181210.907500", "181212.397500", "181213.887500", "181215.377500", "181216.867500", "181218.357500", "181219.847500", "181221.337500", "181222.827500", "181224.317500", "181225.807500", "181227.297500", "181228.787500", "181230.277500", "181231.767500", "181233.257500", "181234.747500", "181236.237500", "181237.727500", "181239.217500", "181240.707500", "181242.197500", "181243.687500", "181245.177500", "181246.667500", "181248.157500", "181249.647500", "181251.137500", "181252.627500", "181254.117500", "181255.607500", "181257.097500", "181258.587500", "181300.077500", "181301.567500", "181303.057500", "181304.547500", "181306.037500", "181307.527500", "181309.017500", "181310.507500", "181311.997500", "181313.487500", "181314.977500", "181316.467500", "181317.957500", "181319.447500", "181320.937500", "181322.427500", "181323.917500", "181325.407500", "181326.897500", "181328.387500", "181329.877500", "181331.367500", "181332.857500", "181334.347500", "181335.837500", "181337.327500", "181338.817500", "181340.307500", "181341.797500", "181343.287500", "181344.777500", "181346.267500", "181347.757500", "181349.247500", "181350.737500", "181352.227500", "181353.717500", "181355.207500", "181356.697500", "181358.187500", "181359.677500", "181401.167500", "181402.657500", "181404.147500", "181405.637500", "181407.127500", "181408.617500", "181410.107500", "181411.597500", "181413.087500", "181414.577500", "181416.067500", "181417.557500", "181419.047500", "181420.537500", "181422.027500", "181423.517500", "181425.007500", "181426.497500", "181427.987500", "181429.477500", "181430.967500", "181432.457500", "181433.947500", "181435.437500", "181436.927500", "181438.417500", "181439.907500", "181441.397500", "181442.887500", "181444.377500", "181445.867500", "181447.357500", "181448.847500", "181450.337500", "181451.827500", "181453.317500", "181454.807500", "181456.297500", "181457.787500", "181459.277500", "181500.767500", "181502.257500", "181503.747500", "181505.237500", "181506.727500", "181508.217500", "181509.707500", "181511.197500", "181512.687500", "181514.177500", "181515.667500", "181517.157500", "181518.647500", "181520.137500", "181521.627500", "181523.117500", "181524.607500", "181526.097500", "181527.587500", "181529.077500", "181530.567500", "181532.057500", "181533.547500", "181535.037500", "181536.527500", "181538.017500", "181539.507500", "181540.997500", "181542.487500", "181543.977500", "181545.467500", "181546.957500", "181548.447500", "181549.937500", "181551.427500", "181552.917500", "181554.407500", "181555.897500", "181557.387500", "181558.877500", "181600.367500", "181601.857500", "181603.347500", "181604.837500", "181606.327500", "181607.817500", "181609.307500", "181610.797500", "181612.287500", "181613.777500", "181615.267500", "181616.757500", "181618.247500", "181619.737500", "181621.227500", "181622.717500", "181624.207500", "181625.697500", "181627.187500", "181628.677500", "181630.167500", "181631.657500", "181633.147500", "181634.637500", "181636.127500", "181637.617500", "181639.107500", "181640.597500", "181642.087500", "181643.577500", "181645.067500", "181646.557500", "181648.047500", "181649.537500", "181651.027500", "181652.517500", "181654.007500", "181655.497500", "181656.987500", "181658.477500", "181659.967500", "181701.457500", "181702.947500", "181704.437500", "181705.927500", "181707.417500", "181708.907500", "181710.397500", "181711.887500", "181713.377500", "181714.867500", "181716.357500", "181717.847500", "181719.337500", "181720.827500", "181722.317500", "181723.807500", "181725.297500", "181726.787500", "181728.277500", "181729.767500", "181731.257500", "181732.747500", "181734.237500", "181735.727500", "181737.217500", "181738.707500", "181740.197500", "181741.687500", "181743.177500", "181744.667500", "181746.157500", "181747.647500", "181749.137500", "181750.627500", "181752.117500", "181753.607500", "181755.097500", "181756.587500", "181758.077500", "181759.567500", "181801.057500", "181802.547500", "181804.037500", "181805.527500", "181807.017500", "181808.507500", "181809.997500", "181811.487500", "181812.977500", "181814.467500", "181815.957500", "181817.447500", "181818.937500", "181820.427500", "181821.917500", "181823.407500", "181824.897500", "181826.387500", "181827.877500", "181829.367500", "181830.857500", "181832.347500", "181833.837500", "181835.327500", "181836.817500", "181838.307500", "181839.797500", "181841.287500", "181842.777500", "181844.267500", "181845.757500", "181847.247500", "181848.737500", "181850.227500", "181851.717500", "181853.207500", "181854.697500", "181856.187500", "181857.677500", "181859.167500", "181900.657500", "181902.147500", "181903.637500", "181905.127500", "181906.617500", "181908.107500", "181909.597500", "181911.087500", "181912.577500", "181914.067500", "181915.557500", "181917.047500", "181918.537500", "181920.027500", "181921.517500", "181923.007500", "181924.497500", "181925.987500", "181927.477500", "181928.967500", "181930.457500", "181931.947500", "181933.437500", "181934.927500", "181936.417500", "181937.907500", "181939.397500", "181940.887500", "181942.377500", "181943.867500", "181945.357500", "181946.847500", "181948.337500", "181949.827500", "181951.317500", "181952.807500", "181954.297500", "181955.787500", "181957.277500", "181958.767500", "182000.257500", "182001.747500", "182003.237500", "182004.727500", "182006.217500", "182007.707500", "182009.197500", "182010.687500", "182012.177500", "182013.667500", "182015.157500", "182016.647500", "182018.137500", "182019.627500", "182021.117500", "182022.607500", "182024.097500", "182025.587500", "182027.077500", "182028.567500", "182030.057500", "182031.547500", "182033.037500", "182034.527500", "182036.017500", "182037.507500", "182038.997500", "182040.487500", "182041.977500", "182043.467500", "182044.957500", "182046.447500", "182047.937500", "182049.427500", "182050.917500", "182052.407500", "182053.897500", "182055.387500", "182056.877500", "182058.367500", "182059.857500", "182101.347500", "182102.837500", "182104.327500", "182105.817500", "182107.307500", "182108.797500", "182110.287500", "182111.777500", "182113.267500", "182114.757500", "182116.247500", "182117.737500", "182119.227500", "182120.717500", "182122.207500", "182123.697500"],
      "ContentTime": ["181019.829000", "181019.832000", "181019.835000", "181019.838000", "181019.850000", "181019.853000", "181019.856000", "181019.858000", "181019.861000", "181019.864000", "181019.867000", "181019.870000", "181019.876000", "181019.878000", "181019.881000", "181019.884000", "181019.887000", "181019.890000", "181019.893000", "181019.895000", "181019.898000", "181019.901000", "181019.904000", "181019.907000", "181019.910000", "181039.789000", "181039.792000", "181039.795000", "181039.798000", "181039.800000", "181039.803000", "181039.806000", "181039.809000", "181039.811000", "181039.814000", "181039.817000", "181039.820000", "181039.823000", "181039.826000", "181039.829000", "181039.831000", "181039.834000", "181039.837000", "181039.846000", "181039.849000", "181059.789000", "181059.792000", "181059.795000", "181059.798000", "181059.800000", "181059.803000", "181059.806000", "181059.809000", "181059.812000", "181059.815000", "181059.817000", "181059.820000", "181059.823000", "181059.826000", "181059.829000", "181059.832000", "181059.834000", "181059.837000", "181059.840000", "181059.843000", "181119.789000", "181119.792000", "181119.795000", "181119.797000", "181119.800000", "181119.803000", "181119.806000", "181119.809000", "181119.812000", "181119.815000", "181119.818000", "181119.834000", "181119.837000", "181119.840000", "181119.843000", "181119.846000", "181119.849000", "181119.851000", "181119.854000", "181119.857000", "181139.789000", "181139.792000", "181139.794000", "181139.797000", "181139.800000", "181139.803000", "181139.806000", "181139.809000", "181139.812000", "181139.814000", "181139.817000", "181139.820000", "181139.823000", "181139.826000", "181139.828000", "181139.831000", "181139.834000", "181139.837000", "181139.840000", "181139.843000", "181139.845000", "181219.789000", "181219.792000", "181219.795000", "181219.798000", "181219.800000", "181219.803000", "181219.806000", "181219.809000", "181219.812000", "181219.815000", "181219.817000", "181219.820000", "181219.823000", "181219.826000", "181219.829000", "181219.832000", "181219.834000", "181219.847000", "181219.850000", "181219.853000", "181219.856000", "181219.859000", "181219.861000", "181219.864000", "181219.867000", "181219.870000", "181259.789000", "181259.792000", "181259.795000", "181259.798000", "181259.800000", "181259.803000", "181259.806000", "181259.809000", "181259.812000", "181259.815000", "181259.818000", "181259.820000", "181259.823000", "181259.826000", "181259.829000", "181259.832000", "181259.835000", "181259.837000", "181259.840000", "181259.843000", "181259.846000", "181259.849000", "181259.851000", "181259.854000", "181259.857000", "181259.860000", "181259.863000", "181339.789000", "181339.792000", "181339.795000", "181339.798000", "181339.800000", "181339.803000", "181339.806000", "181339.809000", "181339.812000", "181339.815000", "181339.817000", "181339.820000", "181339.823000", "181339.826000", "181339.829000", "181339.832000", "181339.835000", "181339.837000", "181339.840000", "181339.843000", "181339.846000", "181339.849000", "181339.852000", "181339.854000", "181339.857000", "181339.860000", "181339.863000", "181419.789000", "181419.792000", "181419.795000", "181419.798000", "181419.801000", "181419.803000", "181419.806000", "181419.809000", "181419.812000", "181419.815000", "181419.818000", "181419.821000", "181419.823000", "181419.826000", "181419.829000", "181419.832000", "181419.835000", "181419.838000", "181419.841000", "181419.843000", "181419.846000", "181419.849000", "181419.852000", "181419.855000", "181419.857000", "181419.860000", "181419.863000", "181459.788000", "181459.791000", "181459.794000", "181459.797000", "181459.800000", "181459.802000", "181459.805000", "181459.808000", "181459.811000", "181459.814000", "181459.817000", "181459.820000", "181459.822000", "181459.825000", "181459.828000", "181459.831000", "181459.834000", "181459.837000", "181459.840000", "181459.843000", "181459.845000", "181459.848000", "181459.851000", "181459.854000", "181459.857000", "181459.860000", "181459.863000", "181539.789000", "181539.792000", "181539.795000", "181539.798000", "181539.801000", "181539.803000", "181539.806000", "181539.809000", "181539.812000", "181539.815000", "181539.818000", "181539.827000", "181539.830000", "181539.833000", "181539.836000", "181539.839000", "181539.842000", "181539.845000", "181539.847000", "181539.850000", "181539.853000", "181539.856000", "181539.859000", "181539.862000", "181539.865000", "181539.868000", "181539.870000", "181559.789000", "181559.792000", "181559.795000", "181559.798000", "181559.801000", "181559.803000", "181559.806000", "181559.809000", "181559.812000", "181559.815000", "181559.818000", "181559.821000", "181559.823000", "181639.789000", "181639.792000", "181639.795000", "181639.798000", "181639.801000", "181639.804000", "181639.807000", "181639.809000", "181639.812000", "181639.815000", "181639.818000", "181639.821000", "181639.824000", "181639.827000", "181639.829000", "181639.832000", "181639.835000", "181639.838000", "181639.841000", "181639.844000", "181639.847000", "181639.850000", "181639.852000", "181639.855000", "181639.858000", "181639.861000", "181639.864000", "181719.788000", "181719.791000", "181719.794000", "181719.797000", "181719.800000", "181719.803000", "181719.805000", "181719.808000", "181719.811000", "181719.814000", "181719.817000", "181719.820000", "181719.822000", "181719.825000", "181719.848000", "181719.851000", "181719.854000", "181719.857000", "181719.859000", "181719.862000", "181719.865000", "181719.868000", "181719.871000", "181719.874000", "181719.876000", "181719.879000", "181719.882000", "181759.789000", "181759.792000", "181759.795000", "181759.798000", "181759.800000", "181759.803000", "181759.806000", "181759.809000", "181759.812000", "181759.815000", "181759.818000", "181759.820000", "181759.823000", "181759.826000", "181759.829000", "181759.832000", "181759.835000", "181759.838000", "181759.841000", "181759.843000", "181759.846000", "181759.849000", "181759.852000", "181759.855000", "181759.858000", "181759.860000", "181759.863000", "181839.789000", "181839.793000", "181839.796000", "181839.798000", "181839.801000", "181839.804000", "181839.807000", "181839.810000", "181839.813000", "181839.816000", "181839.818000", "181839.821000", "181839.824000", "181839.827000", "181839.830000", "181839.833000", "181839.836000", "181839.839000", "181839.841000", "181839.844000", "181839.847000", "181839.850000", "181839.853000", "181839.856000", "181839.859000", "181839.861000", "181919.789000", "181919.792000", "181919.795000", "181919.798000", "181919.801000", "181919.803000", "181919.806000", "181919.809000", "181919.812000", "181919.815000", "181919.818000", "181919.821000", "181919.824000", "181919.826000", "181919.829000", "181919.832000", "181919.835000", "181919.838000", "181919.841000", "181919.843000", "181919.846000", "181919.849000", "181919.852000", "181919.855000", "181919.858000", "181919.860000", "181919.863000", "181959.789000", "181959.792000", "181959.795000", "181959.798000", "181959.801000", "181959.803000", "181959.806000", "181959.809000", "181959.812000", "181959.815000", "181959.818000", "181959.821000", "181959.824000", "181959.826000", "181959.829000", "181959.832000", "181959.835000", "181959.838000", "181959.841000", "181959.844000", "181959.846000", "181959.849000", "181959.852000", "181959.855000", "181959.858000", "181959.861000", "181959.864000", "182039.789000", "182039.792000", "182039.795000", "182039.798000", "182039.801000", "182039.803000", "182039.806000", "182039.809000", "182039.812000", "182039.815000", "182039.818000", "182039.821000", "182039.823000", "182039.826000", "182039.829000", "182039.832000", "182039.835000", "182039.838000", "182039.841000", "182039.844000", "182039.846000", "182039.849000", "182039.852000", "182039.855000", "182039.858000", "182039.861000", "182039.864000", "182119.789000", "182119.792000", "182119.795000", "182119.798000", "182119.801000", "182119.804000", "182119.807000", "182119.809000", "182119.812000", "182119.815000", "182119.818000", "182119.821000", "182119.824000", "182119.827000", "182119.829000", "182119.832000", "182119.835000", "182119.838000", "182119.841000", "182119.844000", "182119.847000", "182119.850000", "182119.852000", "182119.855000", "182119.858000", "182119.861000", "182119.864000", "182125.358000", "182125.372000", "182125.375000", "182125.378000"],
