{
  "AcquisitionMatrixPE": 104,
  "AcquisitionNumber": 1,
  "AcquisitionTime": "17:28:29.442500",
  "BandwidthPerPixelPhaseEncode": 17.17,
  "BaseResolution": 104,
  "BodyPartExamined": "BRAIN",
  "CoilCombinationMethod": "Sum of Squares",
  "ConsistencyInfo": "N4_VE11C_LATEST_20160120",
  "ConversionSoftware": "dcm2niix",
  "ConversionSoftwareVersion": "v1.0.20211006",
  "DerivedVendorReportedEchoSpacing": 0.000560011,
  "DeviceSerialNumber": "167006",
  "DwellTime": 2.1e-06,
  "EchoTime": 0.037,
  "EchoTrainLength": 104,
  "EffectiveEchoSpacing": 0.000560011,
  "FlipAngle": 52,
  "HeudiconvVersion": "0.5.3.post569+g418601f",
  "ImageComments": "Unaliased MB4/PE3/LB",
  "ImageOrientationPatientDICOM": [0.996882, 0.0741351, 0.0270278, -0.0574799, 0.916907, -0.394939],
  "ImageOrientationText": "Tra>Cor(-23.1)>Sag(3.1)",
  "ImageType": [
    "ORIGINAL",
    "PRIMARY",
    "M",
    "MB",
    "ND",
    "MOSAIC"
],
  "ImagingFrequency": 123.259,
  "InPlanePhaseEncodingDirectionDICOM": "COL",
  "InstitutionAddress": "Chemin Queen-Mary 4565,Montreal,District,CA,H3W 1W5",
  "InstitutionName": "IUGM",
  "InstitutionalDepartmentName": "Department",
  "MRAcquisitionType": "2D",
  "MagneticFieldStrength": 3,
  "Manufacturer": "Siemens",
  "ManufacturersModelName": "Prisma_fit",
  "MatrixCoilMode": "SENSE",
  "Modality": "MR",
  "MultibandAccelerationFactor": 4,
  "PartialFourier": 1,
  "PatientPosition": "HFS",
  "PercentPhaseFOV": 100,
  "PercentSampling": 100,
  "PhaseEncodingDirection": "j",
  "PhaseEncodingSteps": 104,
  "PhaseResolution": 1,
  "PixelBandwidth": 2290,
  "ProcedureStepDescription": "video^friends",
  "ProtocolName": "func_task-friends-s05e23c",
  "PulseSequenceDetails": "%CustomerSeq%\\cmrr_mbep2d_bold",
  "ReceiveCoilActiveElements": "HC1-7;NC1,2",
  "ReceiveCoilName": "HeadNeck_64",
  "ReconMatrixPE": 104,
  "RepetitionTime": 1.49,
  "SAR": 0.036684,
  "ScanOptions": "FS",
  "ScanningSequence": "EP",
  "SequenceName": "epfid2d1_104",
  "SequenceVariant": "SK\\SS",
  "SeriesDescription": "func_task-friends-s05e23c",
  "SeriesNumber": 9,
  "ShimSetting": [638, -7171, -8829, 621, 56, -25, -97, 2],
  "SliceThickness": 2,
  "SliceTiming": [0, 0.785, 0.1, 0.8825, 0.1975, 0.98, 0.295, 1.08, 0.3925, 1.1775, 0.49, 1.275, 0.59, 1.3725, 0.6875, 0, 0.785, 0.1, 0.8825, 0.1975, 0.98, 0.295, 1.08, 0.3925, 1.1775, 0.49, 1.275, 0.59, 1.3725, 0.6875, 0, 0.785, 0.1, 0.8825, 0.1975, 0.98, 0.295, 1.08, 0.3925, 1.1775, 0.49, 1.275, 0.59, 1.3725, 0.6875, 0, 0.785, 0.1, 0.8825, 0.1975, 0.98, 0.295, 1.08, 0.3925, 1.1775, 0.49, 1.275, 0.59, 1.3725, 0.6875],
  "SoftwareVersions": "syngo MR E11",
  "SpacingBetweenSlices": 2,
  "StationName": "MRC35049",
  "TaskName": "s05e23c",
  "TotalReadoutTime": 0.0576811,
  "TxRefAmp": 243.753,
  "WipMemBlock": "f4f6ae48-be2c-445b-9e1b-eb49ec6cfb42||Sequence: R016 ve11c/master r/e634e98; Dec 19 2017 11:00:25 by eja",
  "dcmmeta_affine": [
    [-1.99376380443573, -0.114959716796875, 0.10812172293663025, 106.42078399658203],
    [-0.1482701152563095, 1.8338147401809692, -0.7843083739280701, -58.65919876098633],
    [0.05405566468834877, 0.7898784279823303, 1.8366191387176514, -73.0577392578125],
    [0.0, 0.0, 0.0, 1.0]
],
  "dcmmeta_reorient_transform": [
    [0.0, -1.0, 0.0, 103.0],
    [1.0, 0.0, 0.0, 0.0],
    [0.0, 0.0, 1.0, 0.0],
    [0.0, 0.0, 0.0, 1.0]
],
  "dcmmeta_shape": [104, 104, 60, 458],
  "dcmmeta_slice_dim": 2,
  "dcmmeta_version": 0.6,
  "global": {
    "const": {
      "AcquisitionMatrix": [104, 0, 0, 104],
      "AngioFlag": "N",
      "BitsAllocated": 16,
      "BitsStored": 16,
      "BodyPartExamined": "BRAIN",
      "Columns": 832,
      "EchoNumbers": 1,
      "EchoTime": 37.0,
      "EchoTrainLength": 104,
      "FlipAngle": 52.0,
      "HighBit": 15,
      "ImageOrientationPatient": [0.99688188325395, 0.07413506002098, 0.02702783224274, -0.0574798585337, 0.91690734149958, -0.3949392269288],
      "ImagePositionPatient": [-778.46460493812, -851.70258202018, 276.13923525857],
      "ImageType": [
        "ORIGINAL",
        "PRIMARY",
        "M",
        "MB",
        "ND",
        "MOSAIC"
],
      "ImagedNucleus": "1H",
      "ImagingFrequency": 123.258528,
      "InPlanePhaseEncodingDirection": "COL",
      "MRAcquisitionType": "2D",
      "MagneticFieldStrength": 3.0,
      "Manufacturer": "SIEMENS",
      "ManufacturerModelName": "Prisma_fit",
      "Modality": "MR",
      "NumberOfAverages": 1.0,
      "NumberOfPhaseEncodingSteps": 104,
      "PercentPhaseFieldOfView": 100.0,
      "PercentSampling": 100.0,
      "PerformedProcedureStepStartTime": "170753.507000",
      "PhotometricInterpretation": "MONOCHROME2",
      "PixelBandwidth": 2290.0,
      "PixelRepresentation": 0,
      "PixelSpacing": [2.0, 2.0],
      "ProtocolName": "func_task-friends-s05e23c",
      "RepetitionTime": 1490.0,
      "Rows": 832,
      "SAR": 0.03668400087524,
      "SamplesPerPixel": 1,
      "ScanOptions": "FS",
      "ScanningSequence": "EP",
      "SequenceName": "epfid2d1_104",
      "SequenceVariant": [
        "SK",
        "SS"
],
      "SeriesDescription": "func_task-friends-s05e23c",
      "SeriesNumber": 9,
      "SeriesTime": "172939.821000",
      "SliceLocation": -38.332973556907,
      "SliceThickness": 2.0,
      "SmallestImagePixelValue": 0,
      "SoftwareVersions": "syngo MR E11",
      "SpacingBetweenSlices": 1.9999999742469,
      "SpecificCharacterSet": "ISO_IR 100",
      "StudyID": "1",
      "StudyTime": "170753.395000",
      "TransmitCoilName": "Body",
      "VariableFlipAngleFlag": "N",
      "WindowCenterWidthExplanation": "Algo1",
      "dBdt": 0.0},
    "slices": {}
  },
  "time": {
    "samples": {
      "AcquisitionNumber": [1, 2, 3, 4, 5, 6, 7, 8, 9, 10, 11, 12, 13, 14, 15, 16, 17, 18, 19, 20, 21, 22, 23, 24, 25, 26, 27, 28, 29, 30, 31, 32, 33, 34, 35, 36, 37, 38, 39, 40, 41, 42, 43, 44, 45, 46, 47, 48, 49, 50, 51, 52, 53, 54, 55, 56, 57, 58, 59, 60, 61, 62, 63, 64, 65, 66, 67, 68, 69, 70, 71, 72, 73, 74, 75, 76, 77, 78, 79, 80, 81, 82, 83, 84, 85, 86, 87, 88, 89, 90, 91, 92, 93, 94, 95, 96, 97, 98, 99, 100, 101, 102, 103, 104, 105, 106, 107, 108, 109, 110, 111, 112, 113, 114, 115, 116, 117, 118, 119, 120, 121, 122, 123, 124, 125, 126, 127, 128, 129, 130, 131, 132, 133, 134, 135, 136, 137, 138, 139, 140, 141, 142, 143, 144, 145, 146, 147, 148, 149, 150, 151, 152, 153, 154, 155, 156, 157, 158, 159, 160, 161, 162, 163, 164, 165, 166, 167, 168, 169, 170, 171, 172, 173, 174, 175, 176, 177, 178, 179, 180, 181, 182, 183, 184, 185, 186, 187, 188, 189, 190, 191, 192, 193, 194, 195, 196, 197, 198, 199, 200, 201, 202, 203, 204, 205, 206, 207, 208, 209, 210, 211, 212, 213, 214, 215, 216, 217, 218, 219, 220, 221, 222, 223, 224, 225, 226, 227, 228, 229, 230, 231, 232, 233, 234, 235, 236, 237, 238, 239, 240, 241, 242, 243, 244, 245, 246, 247, 248, 249, 250, 251, 252, 253, 254, 255, 256, 257, 258, 259, 260, 261, 262, 263, 264, 265, 266, 267, 268, 269, 270, 271, 272, 273, 274, 275, 276, 277, 278, 279, 280, 281, 282, 283, 284, 285, 286, 287, 288, 289, 290, 291, 292, 293, 294, 295, 296, 297, 298, 299, 300, 301, 302, 303, 304, 305, 306, 307, 308, 309, 310, 311, 312, 313, 314, 315, 316, 317, 318, 319, 320, 321, 322, 323, 324, 325, 326, 327, 328, 329, 330, 331, 332, 333, 334, 335, 336, 337, 338, 339, 340, 341, 342, 343, 344, 345, 346, 347, 348, 349, 350, 351, 352, 353, 354, 355, 356, 357, 358, 359, 360, 361, 362, 363, 364, 365, 366, 367, 368, 369, 370, 371, 372, 373, 374, 375, 376, 377, 378, 379, 380, 381, 382, 383, 384, 385, 386, 387, 388, 389, 390, 391, 392, 393, 394, 395, 396, 397, 398, 399, 400, 401, 402, 403, 404, 405, 406, 407, 408, 409, 410, 411, 412, 413, 414, 415, 416, 417, 418, 419, 420, 421, 422, 423, 424, 425, 426, 427, 428, 429, 430, 431, 432, 433, 434, 435, 436, 437, 438, 439, 440, 441, 442, 443, 444, 445, 446, 447, 448, 449, 450, 451, 452, 453, 454, 455, 456, 457, 458],
      "AcquisitionTime": ["172829.442500", "172830.932500", "172832.422500", "172833.912500", "172835.402500", "172836.892500", "172838.382500", "172839.872500", "172841.362500", "172842.852500", "172844.342500", "172845.832500", "172847.322500", "172848.812500", "172850.302500", "172851.792500", "172853.282500", "172854.772500", "172856.262500", "172857.752500", "172859.242500", "172900.732500", "172902.222500", "172903.712500", "172905.202500", "172906.692500", "172908.182500", "172909.672500", "172911.162500", "172912.652500", "172914.142500", "172915.632500", "172917.122500", "172918.612500", "172920.102500", "172921.592500", "172923.082500", "172924.572500", "172926.062500", "172927.552500", "172929.042500", "172930.532500", "172932.022500", "172933.512500", "172935.002500", "172936.492500", "172937.982500", "172939.472500", "172940.962500", "172942.452500", "172943.942500", "172945.432500", "172946.922500", "172948.412500", "172949.902500", "172951.392500", "172952.882500", "172954.372500", "172955.862500", "172957.352500", "172958.842500", "173000.332500", "173001.822500", "173003.312500", "173004.802500", "173006.292500", "173007.782500", "173009.272500", "173010.762500", "173012.252500", "173013.742500", "173015.232500", "173016.722500", "173018.212500", "173019.702500", "173021.192500", "173022.682500", "173024.172500", "173025.662500", "173027.152500", "173028.642500", "173030.132500", "173031.622500", "173033.112500", "173034.602500", "173036.092500", "173037.582500", "173039.072500", "173040.562500", "173042.052500", "173043.542500", "173045.032500", "173046.522500", "173048.012500", "173049.502500", "173050.992500", "173052.482500", "173053.972500", "173055.462500", "173056.952500", "173058.442500", "173059.932500", "173101.422500", "173102.912500", "173104.402500", "173105.892500", "173107.382500", "173108.872500", "173110.362500", "173111.852500", "173113.342500", "173114.832500", "173116.322500", "173117.812500", "173119.302500", "173120.792500", "173122.282500", "173123.772500", "173125.262500", "173126.752500", "173128.242500", "173129.732500", "173131.222500", "173132.712500", "173134.202500", "173135.692500", "173137.182500", "173138.672500", "173140.162500", "173141.652500", "173143.142500", "173144.632500", "173146.122500", "173147.612500", "173149.102500", "173150.592500", "173152.082500", "173153.572500", "173155.062500", "173156.552500", "173158.042500", "173159.532500", "173201.022500", "173202.512500", "173204.002500", "173205.492500", "173206.982500", "173208.472500", "173209.962500", "173211.452500", "173212.942500", "173214.432500", "173215.922500", "173217.412500", "173218.902500", "173220.392500", "173221.882500", "173223.372500", "173224.862500", "173226.352500", "173227.842500", "173229.332500", "173230.822500", "173232.312500", "173233.802500", "173235.292500", "173236.782500", "173238.272500", "173239.762500", "173241.252500", "173242.742500", "173244.232500", "173245.722500", "173247.212500", "173248.702500", "173250.192500", "173251.682500", "173253.172500", "173254.662500", "173256.152500", "173257.642500", "173259.132500", "173300.622500", "173302.112500", "173303.602500", "173305.092500", "173306.582500", "173308.072500", "173309.562500", "173311.052500", "173312.542500", "173314.032500", "173315.522500", "173317.012500", "173318.502500", "173319.992500", "173321.482500", "173322.972500", "173324.462500", "173325.952500", "173327.442500", "173328.932500", "173330.422500", "173331.912500", "173333.402500", "173334.892500", "173336.382500", "173337.872500", "173339.362500", "173340.852500", "173342.342500", "173343.832500", "173345.322500", "173346.812500", "173348.302500", "173349.792500", "173351.282500", "173352.772500", "173354.262500", "173355.752500", "173357.242500", "173358.732500", "173400.222500", "173401.712500", "173403.202500", "173404.692500", "173406.182500", "173407.672500", "173409.162500", "173410.652500", "173412.142500", "173413.632500", "173415.122500", "173416.612500", "173418.102500", "173419.592500", "173421.082500", "173422.572500", "173424.062500", "173425.552500", "173427.042500", "173428.532500", "173430.022500", "173431.512500", "173433.002500", "173434.492500", "173435.982500", "173437.472500", "173438.962500", "173440.452500", "173441.942500", "173443.432500", "173444.922500", "173446.412500", "173447.902500", "173449.392500", "173450.882500", "173452.372500", "173453.862500", "173455.352500", "173456.842500", "173458.332500", "173459.822500", "173501.312500", "173502.802500", "173504.292500", "173505.782500", "173507.272500", "173508.762500", "173510.252500", "173511.742500", "173513.232500", "173514.722500", "173516.212500", "173517.702500", "173519.192500", "173520.682500", "173522.172500", "173523.662500", "173525.152500", "173526.642500", "173528.132500", "173529.622500", "173531.112500", "173532.602500", "173534.092500", "173535.582500", "173537.072500", "173538.562500", "173540.052500", "173541.542500", "173543.032500", "173544.522500", "173546.012500", "173547.502500", "173548.992500", "173550.482500", "173551.972500", "173553.462500", "173554.952500", "173556.442500", "173557.932500", "173559.422500", "173600.912500", "173602.402500", "173603.892500", "173605.382500", "173606.872500", "173608.362500", "173609.852500", "173611.342500", "173612.832500", "173614.322500", "173615.812500", "173617.302500", "173618.792500", "173620.282500", "173621.772500", "173623.262500", "173624.752500", "173626.242500", "173627.732500", "173629.222500", "173630.712500", "173632.202500", "173633.692500", "173635.182500", "173636.672500", "173638.162500", "173639.652500", "173641.142500", "173642.632500", "173644.122500", "173645.612500", "173647.102500", "173648.592500", "173650.082500", "173651.572500", "173653.062500", "173654.552500", "173656.042500", "173657.532500", "173659.022500", "173700.512500", "173702.002500", "173703.492500", "173704.982500", "173706.472500", "173707.962500", "173709.452500", "173710.942500", "173712.432500", "173713.922500", "173715.412500", "173716.902500", "173718.392500", "173719.882500", "173721.372500", "173722.862500", "173724.352500", "173725.842500", "173727.332500", "173728.822500", "173730.312500", "173731.802500", "173733.292500", "173734.782500", "173736.272500", "173737.762500", "173739.252500", "173740.742500", "173742.232500", "173743.722500", "173745.212500", "173746.702500", "173748.192500", "173749.682500", "173751.172500", "173752.662500", "173754.152500", "173755.642500", "173757.132500", "173758.622500", "173800.112500", "173801.602500", "173803.092500", "173804.582500", "173806.072500", "173807.562500", "173809.052500", "173810.542500", "173812.032500", "173813.522500", "173815.012500", "173816.502500", "173817.992500", "173819.482500", "173820.972500", "173822.462500", "173823.952500", "173825.442500", "173826.932500", "173828.422500", "173829.912500", "173831.402500", "173832.892500", "173834.382500", "173835.872500", "173837.362500", "173838.852500", "173840.342500", "173841.832500", "173843.322500", "173844.812500", "173846.302500", "173847.792500", "173849.282500", "173850.772500", "173852.262500", "173853.752500", "173855.242500", "173856.732500", "173858.222500", "173859.712500", "173901.202500", "173902.692500", "173904.182500", "173905.672500", "173907.162500", "173908.652500", "173910.142500", "173911.632500", "173913.122500", "173914.612500", "173916.102500", "173917.592500", "173919.082500", "173920.572500", "173922.062500", "173923.552500", "173925.042500", "173926.532500", "173928.022500", "173929.512500", "173931.002500", "173932.492500", "173933.982500", "173935.472500", "173936.962500", "173938.452500", "173939.942500", "173941.432500", "173942.922500", "173944.412500", "173945.902500", "173947.392500", "173948.882500", "173950.372500"],
      "ContentTime": ["172939.823000", "172939.827000", "172939.830000", "172939.839000", "172939.842000", "172939.845000", "172939.848000", "172939.851000", "172939.853000", "172939.856000", "172939.859000", "172939.862000", "172939.865000", "172939.868000", "172939.870000", "172939.873000", "172959.789000", "172959.792000", "172959.795000", "172959.798000", "172959.800000", "172959.803000", "172959.806000", "172959.809000", "172959.811000", "172959.814000", "172959.817000", "172959.820000", "172959.823000", "172959.826000", "172959.839000", "172959.841000", "172959.844000", "172959.847000", "172959.850000", "172959.853000", "173019.789000", "173019.792000", "173019.795000", "173019.798000", "173019.800000", "173019.803000", "173019.806000", "173019.809000", "173019.811000", "173019.814000", "173019.817000", "173019.820000", "173019.823000", "173019.826000", "173019.828000", "173019.831000", "173019.846000", "173019.849000", "173019.851000", "173019.855000", "173039.789000", "173039.792000", "173039.795000", "173039.797000", "173039.800000", "173039.803000", "173039.806000", "173039.809000", "173039.811000", "173039.814000", "173039.817000", "173039.820000", "173039.823000", "173039.826000", "173039.828000", "173039.831000", "173039.834000", "173039.837000", "173039.840000", "173039.842000", "173059.788000", "173059.791000", "173059.794000", "173059.797000", "173059.799000", "173059.802000", "173059.805000", "173059.808000", "173059.811000", "173059.814000", "173059.816000", "173059.819000", "173059.822000", "173059.825000", "173059.828000", "173059.830000", "173059.833000", "173059.836000", "173059.839000", "173059.842000", "173139.789000", "173139.792000", "173139.795000", "173139.797000", "173139.800000", "173139.803000", "173139.806000", "173139.809000", "173139.812000", "173139.814000", "173139.817000", "173139.820000", "173139.823000", "173139.826000", "173139.828000", "173139.831000", "173139.834000", "173139.837000", "173139.840000", "173139.843000", "173139.846000", "173139.848000", "173139.851000", "173139.854000", "173139.857000", "173139.865000", "173139.868000", "173139.871000", "173139.874000", "173139.877000", "173139.880000", "173219.789000", "173219.792000", "173219.795000", "173219.797000", "173219.800000", "173219.803000", "173219.806000", "173219.809000", "173219.812000", "173219.815000", "173219.827000", "173219.830000", "173219.833000", "173219.836000", "173219.839000", "173219.842000", "173219.844000", "173219.847000", "173219.850000", "173219.853000", "173219.856000", "173219.859000", "173219.862000", "173219.864000", "173219.867000", "173219.870000", "173219.873000", "173259.789000", "173259.792000", "173259.795000", "173259.798000", "173259.801000", "173259.803000", "173259.806000", "173259.809000", "173259.812000", "173259.826000", "173259.829000", "173259.832000", "173259.834000", "173259.837000", "173259.840000", "173259.843000", "173259.846000", "173259.849000", "173259.859000", "173259.862000", "173259.865000", "173259.867000", "173259.870000", "173259.873000", "173259.876000", "173259.879000", "173339.789000", "173339.792000", "173339.795000", "173339.798000", "173339.801000", "173339.803000", "173339.806000", "173339.809000", "173339.812000", "173339.815000", "173339.818000", "173339.821000", "173339.823000", "173339.826000", "173339.829000", "173339.832000", "173339.835000", "173339.838000", "173339.840000", "173339.843000", "173339.846000", "173339.849000", "173339.852000", "173339.855000", "173339.858000", "173339.860000", "173339.863000", "173419.789000", "173419.792000", "173419.795000", "173419.798000", "173419.801000", "173419.810000", "173419.813000", "173419.816000", "173419.819000", "173419.822000", "173419.825000", "173419.828000", "173419.830000", "173419.841000", "173419.844000", "173419.847000", "173419.850000", "173419.853000", "173419.856000", "173419.858000", "173419.861000", "173419.864000", "173419.867000", "173419.870000", "173419.873000", "173419.876000", "173419.878000", "173459.789000", "173459.792000", "173459.795000", "173459.798000", "173459.801000", "173459.803000", "173459.806000", "173459.809000", "173459.812000", "173459.815000", "173459.818000", "173459.821000", "173459.823000", "173459.826000", "173459.829000", "173459.832000", "173459.835000", "173459.838000", "173459.840000", "173459.843000", "173459.857000", "173459.860000", "173459.863000", "173459.865000", "173459.868000", "173459.871000", "173459.874000", "173539.788000", "173539.791000", "173539.794000", "173539.797000", "173539.799000", "173539.802000", "173539.805000", "173539.808000", "173539.811000", "173539.814000", "173539.817000", "173539.820000", "173539.823000", "173539.825000", "173539.828000", "173539.831000", "173539.834000", "173539.837000", "173539.840000", "173539.842000", "173539.845000", "173539.848000", "173539.851000", "173539.854000", "173539.857000", "173539.860000", "173539.862000", "173559.789000", "173559.792000", "173559.795000", "173559.798000", "173559.801000", "173559.804000", "173559.807000", "173559.809000", "173559.812000", "173559.815000", "173559.818000", "173559.821000", "173559.824000", "173639.789000", "173639.792000", "173639.795000", "173639.798000", "173639.801000", "173639.804000", "173639.807000", "173639.810000", "173639.813000", "173639.815000", "173639.818000", "173639.821000", "173639.824000", "173639.827000", "173639.830000", "173639.833000", "173639.835000", "173639.838000", "173639.841000", "173639.844000", "173639.847000", "173639.850000", "173639.853000", "173639.856000", "173639.858000", "173639.861000", "173639.864000", "173719.789000", "173719.792000", "173719.795000", "173719.798000", "173719.801000", "173719.804000", "173719.806000", "173719.809000", "173719.812000", "173719.815000", "173719.818000", "173719.821000", "173719.824000", "173719.827000", "173719.829000", "173719.832000", "173719.835000", "173719.838000", "173719.841000", "173719.844000", "173719.846000", "173719.849000", "173719.852000", "173719.855000", "173719.858000", "173719.861000", "173719.864000", "173759.788000", "173759.791000", "173759.794000", "173759.797000", "173759.800000", "173759.802000", "173759.805000", "173759.808000", "173759.811000", "173759.814000", "173759.817000", "173759.820000", "173759.822000", "173759.825000", "173759.828000", "173759.831000", "173759.834000", "173759.837000", "173759.840000", "173759.843000", "173759.846000", "173759.848000", "173759.851000", "173759.854000", "173759.857000", "173759.860000", "173759.863000", "173839.789000", "173839.792000", "173839.795000", "173839.798000", "173839.801000", "173839.804000", "173839.807000", "173839.809000", "173839.812000", "173839.815000", "173839.818000", "173839.821000", "173839.824000", "173839.827000", "173839.829000", "173839.832000", "173839.835000", "173839.838000", "173839.844000", "173839.847000", "173839.850000", "173839.853000", "173839.856000", "173839.859000", "173839.862000", "173839.864000", "173839.867000", "173919.789000", "173919.792000", "173919.795000", "173919.798000", "173919.801000", "173919.804000", "173919.807000", "173919.810000", "173919.813000", "173919.815000", "173919.818000", "173919.821000", "173919.824000", "173919.827000", "173919.830000", "173919.833000", "173919.835000", "173919.838000", "173919.841000", "173919.844000", "173919.847000", "173919.850000", "173919.853000", "173919.855000", "173919.858000", "173919.861000", "173952.632000", "173952.635000", "173952.638000", "173952.641000", "173952.645000", "173952.648000", "173952.651000", "173952.654000", "173952.657000", "173952.660000", "173952.663000", "173952.666000", "173952.669000", "173952.671000", "173952.675000", "173952.678000", "173952.681000", "173952.684000", "173952.687000", "173952.690000", "173952.692000", "173952.695000", "173952.698000"],
