{
  "AcquisitionMatrixPE": 104,
  "AcquisitionNumber": 1,
  "AcquisitionTime": "16:17:41.250000",
  "BandwidthPerPixelPhaseEncode": 17.17,
  "BaseResolution": 104,
  "BodyPartExamined": "BRAIN",
  "CoilString": "HC1-7;NC1_2",
  "ConsistencyInfo": "N4_VE11C_LATEST_20160120",
  "ConversionSoftware": "dcm2niix",
  "ConversionSoftwareVersion": "v1.0.20190902",
  "DerivedVendorReportedEchoSpacing": 0.000560011,
  "DeviceSerialNumber": "167006",
  "DwellTime": 2.1e-06,
  "EchoTime": 0.037,
  "EchoTrainLength": 104,
  "EffectiveEchoSpacing": 0.000560011,
  "FlipAngle": 52,
  "ImageComments": "Unaliased_MB4_PE3_LB",
  "ImageOrientationPatientDICOM": [0.998353, -0.0561877, 0.011625, 0.056341, 0.921644, -0.383926],
  "ImageType": [
    "ORIGINAL",
    "PRIMARY",
    "M",
    "MB",
    "ND",
    "MOSAIC"
],
  "ImagingFrequency": 123.259,
  "InPlanePhaseEncodingDirectionDICOM": "COL",
  "InstitutionAddress": "Chemin_Queen-Mary_4565_Montreal_District_CA_H3W_1W5",
  "InstitutionName": "IUGM",
  "InstitutionalDepartmentName": "Department",
  "MRAcquisitionType": "2D",
  "MagneticFieldStrength": 3,
  "Manufacturer": "Siemens",
  "ManufacturersModelName": "Prisma_fit",
  "Modality": "MR",
  "MultibandAccelerationFactor": 4,
  "PartialFourier": 1,
  "PatientPosition": "HFS",
  "PercentPhaseFOV": 100,
  "PhaseEncodingDirection": "j",
  "PhaseEncodingSteps": 104,
  "PhaseResolution": 1,
  "PixelBandwidth": 2290,
  "ProcedureStepDescription": "video_friends",
  "ProtocolName": "func_task-friends-s05e14b",
  "PulseSequenceDetails": "%CustomerSeq%_cmrr_mbep2d_bold",
  "ReceiveCoilActiveElements": "HC1-7;NC1,2",
  "ReceiveCoilName": "HeadNeck_64",
  "ReconMatrixPE": 104,
  "RepetitionTime": 1.49,
  "SAR": 0.0286344,
  "ScanOptions": "FS",
  "ScanningSequence": "EP",
  "SequenceName": "epfid2d1_104",
  "SequenceVariant": "SK_SS",
  "SeriesDescription": "func_task-friends-s05e14b",
  "SeriesNumber": 19,
  "ShimSetting": [631, -7254, -8848, 583, -5, -223, -97, 0],
  "SliceThickness": 2,
  "SliceTiming": [0, 0.7825, 0.0975, 0.8825, 0.195, 0.98, 0.2925, 1.0775, 0.3925, 1.175, 0.49, 1.2725, 0.5875, 1.3725, 0.685, 0, 0.7825, 0.0975, 0.8825, 0.195, 0.98, 0.2925, 1.0775, 0.3925, 1.175, 0.49, 1.2725, 0.5875, 1.3725, 0.685, 0, 0.7825, 0.0975, 0.8825, 0.195, 0.98, 0.2925, 1.0775, 0.3925, 1.175, 0.49, 1.2725, 0.5875, 1.3725, 0.685, 0, 0.7825, 0.0975, 0.8825, 0.195, 0.98, 0.2925, 1.0775, 0.3925, 1.175, 0.49, 1.2725, 0.5875, 1.3725, 0.685],
  "SoftwareVersions": "syngo_MR_E11",
  "SpacingBetweenSlices": 2,
  "StationName": "MRC35049",
  "TaskName": "s05e14b",
  "TotalReadoutTime": 0.0576811,
  "TxRefAmp": 217.302,
  "WipMemBlock": "da235e4b-70bb-4177-8759-092b2dfd71e3||Sequence: R016 ve11c/master r/e634e98; Dec 19 2017 11:00:25 by eja",
  "dcmmeta_affine": [
    [-1.9967050552368164, 0.11268190294504166, -0.021715590730309486, 96.42598724365234],
    [0.11237534135580063, 1.8432871103286743, -0.7678959965705872, -75.69476318359375],
    [0.023249955847859383, 0.7678510546684265, 1.8465816974639893, -78.23782348632812],
    [0.0, 0.0, 0.0, 1.0]
],
  "dcmmeta_reorient_transform": [
    [0.0, -1.0, 0.0, 103.0],
    [1.0, 0.0, 0.0, 0.0],
    [0.0, 0.0, 1.0, 0.0],
    [0.0, 0.0, 0.0, 1.0]
],
  "dcmmeta_shape": [104, 104, 60, 520],
  "dcmmeta_slice_dim": 2,
  "dcmmeta_version": 0.6,
  "global": {
    "const": {
      "AcquisitionMatrix": [104, 0, 0, 104],
      "AngioFlag": "N",
      "BitsAllocated": 16,
      "BitsStored": 16,
      "BodyPartExamined": "BRAIN",
      "Columns": 832,
      "EchoNumbers": 1,
      "EchoTime": 37.0,
      "EchoTrainLength": 104,
      "FlipAngle": 52.0,
      "HighBit": 15,
      "ImageOrientationPatient": [0.9983525456393, -0.0561876721864, 0.01162497784048, 0.05634095211904, 0.92164357675881, -0.3839255325367],
      "ImagePositionPatient": [-875.84909001421, -744.21571328476, 271.88564186],
      "ImageType": [
        "ORIGINAL",
        "PRIMARY",
        "M",
        "MB",
        "ND",
        "MOSAIC"
],
      "ImagedNucleus": "1H",
      "ImagingFrequency": 123.258982,
      "InPlanePhaseEncodingDirection": "COL",
      "MRAcquisitionType": "2D",
      "MagneticFieldStrength": 3.0,
      "Manufacturer": "SIEMENS",
      "ManufacturerModelName": "Prisma_fit",
      "Modality": "MR",
      "NumberOfAverages": 1.0,
      "NumberOfPhaseEncodingSteps": 104,
      "PercentPhaseFieldOfView": 100.0,
      "PercentSampling": 100.0,
      "PerformedProcedureStepStartTime": "150424.183000",
      "PhotometricInterpretation": "MONOCHROME2",
      "PixelBandwidth": 2290.0,
      "PixelRepresentation": 0,
      "PixelSpacing": [2.0, 2.0],
      "ProtocolName": "func_task-friends-s05e14b",
      "RepetitionTime": 1490.0,
      "Rows": 832,
      "SAR": 0.0286344454141,
      "SamplesPerPixel": 1,
      "ScanOptions": "FS",
      "ScanningSequence": "EP",
      "SequenceName": "epfid2d1_104",
      "SequenceVariant": [
        "SK",
        "SS"
],
      "SeriesDescription": "func_task-friends-s05e14b",
      "SeriesNumber": 19,
      "SeriesTime": "161910.583000",
      "SliceLocation": -44.220388607563,
      "SliceThickness": 2.0,
      "SmallestImagePixelValue": 0,
      "SoftwareVersions": "syngo MR E11",
      "SpacingBetweenSlices": 1.9999999852641,
      "SpecificCharacterSet": "ISO_IR 100",
      "StudyID": "1",
      "StudyTime": "150424.010000",
      "TransmitCoilName": "Body",
      "VariableFlipAngleFlag": "N",
      "WindowCenterWidthExplanation": "Algo1",
      "dBdt": 0.0},
    "slices": {}
  },
  "time": {
    "samples": {
      "AcquisitionNumber": [1, 2, 3, 4, 5, 6, 7, 8, 9, 10, 11, 12, 13, 14, 15, 16, 17, 18, 19, 20, 21, 22, 23, 24, 25, 26, 27, 28, 29, 30, 31, 32, 33, 34, 35, 36, 37, 38, 39, 40, 41, 42, 43, 44, 45, 46, 47, 48, 49, 50, 51, 52, 53, 54, 55, 56, 57, 58, 59, 60, 61, 62, 63, 64, 65, 66, 67, 68, 69, 70, 71, 72, 73, 74, 75, 76, 77, 78, 79, 80, 81, 82, 83, 84, 85, 86, 87, 88, 89, 90, 91, 92, 93, 94, 95, 96, 97, 98, 99, 100, 101, 102, 103, 104, 105, 106, 107, 108, 109, 110, 111, 112, 113, 114, 115, 116, 117, 118, 119, 120, 121, 122, 123, 124, 125, 126, 127, 128, 129, 130, 131, 132, 133, 134, 135, 136, 137, 138, 139, 140, 141, 142, 143, 144, 145, 146, 147, 148, 149, 150, 151, 152, 153, 154, 155, 156, 157, 158, 159, 160, 161, 162, 163, 164, 165, 166, 167, 168, 169, 170, 171, 172, 173, 174, 175, 176, 177, 178, 179, 180, 181, 182, 183, 184, 185, 186, 187, 188, 189, 190, 191, 192, 193, 194, 195, 196, 197, 198, 199, 200, 201, 202, 203, 204, 205, 206, 207, 208, 209, 210, 211, 212, 213, 214, 215, 216, 217, 218, 219, 220, 221, 222, 223, 224, 225, 226, 227, 228, 229, 230, 231, 232, 233, 234, 235, 236, 237, 238, 239, 240, 241, 242, 243, 244, 245, 246, 247, 248, 249, 250, 251, 252, 253, 254, 255, 256, 257, 258, 259, 260, 261, 262, 263, 264, 265, 266, 267, 268, 269, 270, 271, 272, 273, 274, 275, 276, 277, 278, 279, 280, 281, 282, 283, 284, 285, 286, 287, 288, 289, 290, 291, 292, 293, 294, 295, 296, 297, 298, 299, 300, 301, 302, 303, 304, 305, 306, 307, 308, 309, 310, 311, 312, 313, 314, 315, 316, 317, 318, 319, 320, 321, 322, 323, 324, 325, 326, 327, 328, 329, 330, 331, 332, 333, 334, 335, 336, 337, 338, 339, 340, 341, 342, 343, 344, 345, 346, 347, 348, 349, 350, 351, 352, 353, 354, 355, 356, 357, 358, 359, 360, 361, 362, 363, 364, 365, 366, 367, 368, 369, 370, 371, 372, 373, 374, 375, 376, 377, 378, 379, 380, 381, 382, 383, 384, 385, 386, 387, 388, 389, 390, 391, 392, 393, 394, 395, 396, 397, 398, 399, 400, 401, 402, 403, 404, 405, 406, 407, 408, 409, 410, 411, 412, 413, 414, 415, 416, 417, 418, 419, 420, 421, 422, 423, 424, 425, 426, 427, 428, 429, 430, 431, 432, 433, 434, 435, 436, 437, 438, 439, 440, 441, 442, 443, 444, 445, 446, 447, 448, 449, 450, 451, 452, 453, 454, 455, 456, 457, 458, 459, 460, 461, 462, 463, 464, 465, 466, 467, 468, 469, 470, 471, 472, 473, 474, 475, 476, 477, 478, 479, 480, 481, 482, 483, 484, 485, 486, 487, 488, 489, 490, 491, 492, 493, 494, 495, 496, 497, 498, 499, 500, 501, 502, 503, 504, 505, 506, 507, 508, 509, 510, 511, 512, 513, 514, 515, 516, 517, 518, 519, 520],
      "AcquisitionTime": ["161741.250000", "161742.740000", "161744.230000", "161745.720000", "161747.210000", "161748.700000", "161750.190000", "161751.680000", "161753.170000", "161754.660000", "161756.150000", "161757.640000", "161759.130000", "161800.620000", "161802.110000", "161803.600000", "161805.090000", "161806.580000", "161808.070000", "161809.560000", "161811.050000", "161812.540000", "161814.030000", "161815.520000", "161817.010000", "161818.500000", "161819.990000", "161821.480000", "161822.970000", "161824.460000", "161825.950000", "161827.440000", "161828.930000", "161830.420000", "161831.910000", "161833.400000", "161834.890000", "161836.380000", "161837.870000", "161839.360000", "161840.850000", "161842.340000", "161843.830000", "161845.320000", "161846.810000", "161848.300000", "161849.790000", "161851.280000", "161852.770000", "161854.260000", "161855.750000", "161857.240000", "161858.730000", "161900.220000", "161901.710000", "161903.200000", "161904.690000", "161906.180000", "161907.670000", "161909.160000", "161910.650000", "161912.140000", "161913.630000", "161915.120000", "161916.610000", "161918.100000", "161919.590000", "161921.080000", "161922.570000", "161924.060000", "161925.550000", "161927.040000", "161928.530000", "161930.020000", "161931.510000", "161933.000000", "161934.490000", "161935.980000", "161937.470000", "161938.960000", "161940.450000", "161941.940000", "161943.430000", "161944.920000", "161946.410000", "161947.900000", "161949.390000", "161950.880000", "161952.370000", "161953.860000", "161955.350000", "161956.840000", "161958.330000", "161959.820000", "162001.310000", "162002.800000", "162004.290000", "162005.780000", "162007.270000", "162008.760000", "162010.250000", "162011.740000", "162013.230000", "162014.720000", "162016.210000", "162017.700000", "162019.190000", "162020.680000", "162022.170000", "162023.660000", "162025.150000", "162026.640000", "162028.130000", "162029.620000", "162031.110000", "162032.600000", "162034.090000", "162035.580000", "162037.070000", "162038.560000", "162040.050000", "162041.540000", "162043.030000", "162044.520000", "162046.010000", "162047.500000", "162048.990000", "162050.480000", "162051.970000", "162053.460000", "162054.950000", "162056.440000", "162057.930000", "162059.420000", "162100.910000", "162102.400000", "162103.890000", "162105.380000", "162106.870000", "162108.360000", "162109.850000", "162111.340000", "162112.830000", "162114.320000", "162115.810000", "162117.300000", "162118.790000", "162120.280000", "162121.770000", "162123.260000", "162124.750000", "162126.240000", "162127.730000", "162129.220000", "162130.710000", "162132.200000", "162133.690000", "162135.180000", "162136.670000", "162138.160000", "162139.650000", "162141.140000", "162142.630000", "162144.120000", "162145.610000", "162147.100000", "162148.590000", "162150.080000", "162151.570000", "162153.060000", "162154.550000", "162156.040000", "162157.530000", "162159.020000", "162200.510000", "162202.000000", "162203.490000", "162204.980000", "162206.470000", "162207.960000", "162209.450000", "162210.940000", "162212.430000", "162213.920000", "162215.410000", "162216.900000", "162218.390000", "162219.880000", "162221.370000", "162222.860000", "162224.350000", "162225.840000", "162227.330000", "162228.820000", "162230.310000", "162231.800000", "162233.290000", "162234.780000", "162236.270000", "162237.760000", "162239.250000", "162240.740000", "162242.230000", "162243.720000", "162245.210000", "162246.700000", "162248.190000", "162249.680000", "162251.170000", "162252.660000", "162254.150000", "162255.640000", "162257.130000", "162258.620000", "162300.110000", "162301.600000", "162303.090000", "162304.580000", "162306.070000", "162307.560000", "162309.050000", "162310.540000", "162312.030000", "162313.520000", "162315.010000", "162316.500000", "162317.990000", "162319.480000", "162320.970000", "162322.460000", "162323.950000", "162325.440000", "162326.930000", "162328.420000", "162329.910000", "162331.400000", "162332.890000", "162334.380000", "162335.870000", "162337.360000", "162338.850000", "162340.340000", "162341.830000", "162343.320000", "162344.810000", "162346.300000", "162347.790000", "162349.280000", "162350.770000", "162352.260000", "162353.750000", "162355.240000", "162356.730000", "162358.220000", "162359.710000", "162401.200000", "162402.690000", "162404.180000", "162405.670000", "162407.160000", "162408.650000", "162410.140000", "162411.630000", "162413.120000", "162414.610000", "162416.100000", "162417.590000", "162419.080000", "162420.570000", "162422.060000", "162423.550000", "162425.040000", "162426.530000", "162428.020000", "162429.510000", "162431.000000", "162432.490000", "162433.980000", "162435.470000", "162436.960000", "162438.450000", "162439.940000", "162441.430000", "162442.920000", "162444.410000", "162445.900000", "162447.390000", "162448.880000", "162450.370000", "162451.860000", "162453.350000", "162454.840000", "162456.330000", "162457.820000", "162459.310000", "162500.800000", "162502.290000", "162503.780000", "162505.270000", "162506.760000", "162508.250000", "162509.740000", "162511.230000", "162512.720000", "162514.210000", "162515.700000", "162517.190000", "162518.680000", "162520.170000", "162521.660000", "162523.150000", "162524.640000", "162526.130000", "162527.620000", "162529.110000", "162530.600000", "162532.090000", "162533.580000", "162535.070000", "162536.560000", "162538.050000", "162539.540000", "162541.030000", "162542.520000", "162544.010000", "162545.500000", "162546.990000", "162548.480000", "162549.970000", "162551.460000", "162552.950000", "162554.440000", "162555.930000", "162557.420000", "162558.910000", "162600.400000", "162601.890000", "162603.380000", "162604.870000", "162606.360000", "162607.850000", "162609.340000", "162610.830000", "162612.320000", "162613.810000", "162615.300000", "162616.790000", "162618.280000", "162619.770000", "162621.260000", "162622.750000", "162624.240000", "162625.730000", "162627.220000", "162628.710000", "162630.200000", "162631.690000", "162633.180000", "162634.670000", "162636.160000", "162637.650000", "162639.140000", "162640.630000", "162642.120000", "162643.610000", "162645.100000", "162646.590000", "162648.080000", "162649.570000", "162651.060000", "162652.550000", "162654.040000", "162655.530000", "162657.020000", "162658.510000", "162700.000000", "162701.490000", "162702.980000", "162704.470000", "162705.960000", "162707.450000", "162708.940000", "162710.430000", "162711.920000", "162713.410000", "162714.900000", "162716.390000", "162717.880000", "162719.370000", "162720.860000", "162722.350000", "162723.840000", "162725.330000", "162726.820000", "162728.310000", "162729.800000", "162731.290000", "162732.780000", "162734.270000", "162735.760000", "162737.250000", "162738.740000", "162740.230000", "162741.720000", "162743.210000", "162744.700000", "162746.190000", "162747.680000", "162749.170000", "162750.660000", "162752.150000", "162753.640000", "162755.130000", "162756.620000", "162758.110000", "162759.600000", "162801.090000", "162802.580000", "162804.070000", "162805.560000", "162807.050000", "162808.540000", "162810.030000", "162811.520000", "162813.010000", "162814.500000", "162815.990000", "162817.480000", "162818.970000", "162820.460000", "162821.950000", "162823.440000", "162824.930000", "162826.420000", "162827.910000", "162829.400000", "162830.890000", "162832.380000", "162833.870000", "162835.360000", "162836.850000", "162838.340000", "162839.830000", "162841.320000", "162842.810000", "162844.300000", "162845.790000", "162847.280000", "162848.770000", "162850.260000", "162851.750000", "162853.240000", "162854.730000", "162856.220000", "162857.710000", "162859.200000", "162900.690000", "162902.180000", "162903.670000", "162905.160000", "162906.650000", "162908.140000", "162909.630000", "162911.120000", "162912.610000", "162914.100000", "162915.590000", "162917.080000", "162918.570000", "162920.060000", "162921.550000", "162923.040000", "162924.530000", "162926.020000", "162927.510000", "162929.000000", "162930.490000", "162931.980000", "162933.470000", "162934.960000", "162936.450000", "162937.940000", "162939.430000", "162940.920000", "162942.410000", "162943.900000", "162945.390000", "162946.880000", "162948.370000", "162949.860000", "162951.350000", "162952.840000", "162954.330000", "162955.820000", "162957.310000", "162958.800000", "163000.290000", "163001.780000", "163003.270000", "163004.760000", "163006.250000", "163007.740000", "163009.230000", "163010.720000", "163012.210000", "163013.700000", "163015.190000", "163016.680000", "163018.170000", "163019.660000", "163021.150000", "163022.640000", "163024.130000", "163025.620000", "163027.110000", "163028.600000", "163030.090000", "163031.580000", "163033.070000", "163034.560000"],
      "ContentTime": ["161910.586000", "161910.589000", "161910.592000", "161910.595000", "161910.598000", "161910.601000", "161910.603000", "161910.606000", "161910.609000", "161910.612000", "161910.615000", "161910.618000", "161910.621000", "161910.623000", "161910.626000", "161910.629000", "161910.632000", "161910.635000", "161910.637000", "161910.640000", "161910.643000", "161910.646000", "161910.649000", "161910.662000", "161910.665000", "161910.667000", "161910.670000", "161910.673000", "161910.676000", "161910.679000", "161910.682000", "161910.684000", "161910.687000", "161910.698000", "161930.543000", "161930.546000", "161930.549000", "161930.551000", "161930.554000", "161930.557000", "161930.560000", "161930.563000", "161930.566000", "161930.568000", "161930.571000", "161930.574000", "161930.577000", "161930.579000", "161930.582000", "161930.585000", "161930.588000", "161930.591000", "161930.594000", "161930.596000", "161930.599000", "161950.543000", "161950.548000", "161950.551000", "161950.554000", "161950.556000", "161950.559000", "161950.562000", "161950.565000", "161950.568000", "161950.571000", "161950.573000", "161950.576000", "161950.579000", "161950.582000", "161950.585000", "161950.588000", "161950.591000", "161950.594000", "161950.596000", "161950.599000", "162010.543000", "162010.546000", "162010.549000", "162010.553000", "162010.556000", "162010.559000", "162010.562000", "162010.564000", "162010.567000", "162010.570000", "162010.573000", "162010.576000", "162010.578000", "162010.581000", "162010.584000", "162010.587000", "162010.590000", "162010.593000", "162010.595000", "162010.598000", "162050.543000", "162050.546000", "162050.549000", "162050.552000", "162050.554000", "162050.557000", "162050.560000", "162050.563000", "162050.566000", "162050.568000", "162050.571000", "162050.574000", "162050.577000", "162050.580000", "162050.583000", "162050.585000", "162050.588000", "162050.591000", "162050.594000", "162050.597000", "162050.600000", "162050.602000", "162050.606000", "162050.609000", "162050.612000", "162050.615000", "162050.618000", "162050.621000", "162050.623000", "162050.626000", "162050.629000", "162130.543000", "162130.546000", "162130.549000", "162130.551000", "162130.554000", "162130.557000", "162130.560000", "162130.573000", "162130.576000", "162130.578000", "162130.581000", "162130.584000", "162130.587000", "162130.590000", "162130.592000", "162130.595000", "162130.598000", "162130.601000", "162130.604000", "162130.606000", "162130.609000", "162130.612000", "162130.615000", "162130.618000", "162130.621000", "162130.623000", "162130.626000", "162210.543000", "162210.546000", "162210.549000", "162210.552000", "162210.554000", "162210.557000", "162210.560000", "162210.563000", "162210.566000", "162210.569000", "162210.571000", "162210.574000", "162210.577000", "162210.580000", "162210.583000", "162210.585000", "162210.588000", "162210.591000", "162210.594000", "162210.597000", "162210.600000", "162210.603000", "162210.605000", "162210.608000", "162210.611000", "162210.614000", "162210.616000", "162250.543000", "162250.547000", "162250.550000", "162250.553000", "162250.555000", "162250.558000", "162250.561000", "162250.564000", "162250.567000", "162250.570000", "162250.573000", "162250.576000", "162250.578000", "162250.581000", "162250.584000", "162250.587000", "162250.590000", "162250.592000", "162250.595000", "162250.598000", "162250.601000", "162250.604000", "162250.606000", "162250.609000", "162250.612000", "162250.615000", "162250.618000", "162310.543000", "162310.546000", "162310.549000", "162310.552000", "162310.554000", "162310.557000", "162310.560000", "162310.570000", "162310.573000", "162310.576000", "162310.579000", "162310.581000", "162310.584000", "162350.543000", "162350.546000", "162350.549000", "162350.552000", "162350.554000", "162350.557000", "162350.560000", "162350.563000", "162350.566000", "162350.569000", "162350.572000", "162350.575000", "162350.577000", "162350.580000", "162350.583000", "162350.586000", "162350.589000", "162350.591000", "162350.594000", "162350.597000", "162350.600000", "162350.603000", "162350.606000", "162350.608000", "162350.611000", "162350.614000", "162350.617000", "162430.543000", "162430.546000", "162430.549000", "162430.552000", "162430.554000", "162430.557000", "162430.560000", "162430.563000", "162430.566000", "162430.569000", "162430.572000", "162430.574000", "162430.577000", "162430.580000", "162430.583000", "162430.586000", "162430.588000", "162430.591000", "162430.594000", "162430.597000", "162430.600000", "162430.603000", "162430.606000", "162430.608000", "162430.611000", "162430.614000", "162430.617000", "162510.543000", "162510.546000", "162510.549000", "162510.552000", "162510.554000", "162510.557000", "162510.560000", "162510.563000", "162510.566000", "162510.569000", "162510.571000", "162510.574000", "162510.577000", "162510.580000", "162510.583000", "162510.585000", "162510.588000", "162510.591000", "162510.594000", "162510.597000", "162510.600000", "162510.602000", "162510.605000", "162510.608000", "162510.611000", "162510.614000", "162510.617000", "162550.543000", "162550.546000", "162550.549000", "162550.551000", "162550.554000", "162550.557000", "162550.560000", "162550.563000", "162550.566000", "162550.569000", "162550.572000", "162550.575000", "162550.578000", "162550.580000", "162550.583000", "162550.586000", "162550.589000", "162550.592000", "162550.594000", "162550.597000", "162550.600000", "162550.603000", "162550.606000", "162550.609000", "162550.611000", "162550.614000", "162550.617000", "162630.543000", "162630.546000", "162630.549000", "162630.552000", "162630.554000", "162630.557000", "162630.560000", "162630.582000", "162630.585000", "162630.587000", "162630.590000", "162630.593000", "162630.596000", "162630.598000", "162630.601000", "162630.604000", "162630.607000", "162630.610000", "162630.612000", "162630.615000", "162630.618000", "162630.621000", "162630.624000", "162630.627000", "162630.629000", "162630.632000", "162630.635000", "162710.543000", "162710.546000", "162710.549000", "162710.552000", "162710.555000", "162710.557000", "162710.560000", "162710.563000", "162710.566000", "162710.569000", "162710.572000", "162710.575000", "162710.577000", "162710.580000", "162710.583000", "162710.586000", "162710.589000", "162710.592000", "162710.595000", "162710.598000", "162710.601000", "162710.604000", "162710.607000", "162710.610000", "162710.613000", "162710.615000", "162750.543000", "162750.546000", "162750.549000", "162750.552000", "162750.554000", "162750.557000", "162750.560000", "162750.563000", "162750.566000", "162750.569000", "162750.572000", "162750.575000", "162750.577000", "162750.580000", "162750.583000", "162750.586000", "162750.589000", "162750.592000", "162750.594000", "162750.597000", "162750.600000", "162750.603000", "162750.606000", "162750.609000", "162750.612000", "162750.615000", "162750.617000", "162830.543000", "162830.546000", "162830.549000", "162830.551000", "162830.554000", "162830.557000", "162830.560000", "162830.563000", "162830.566000", "162830.569000", "162830.571000", "162830.574000", "162830.577000", "162830.580000", "162830.583000", "162830.585000", "162830.588000", "162830.591000", "162830.594000", "162830.597000", "162830.600000", "162830.602000", "162830.605000", "162830.608000", "162830.611000", "162830.614000", "162830.617000", "162910.543000", "162910.546000", "162910.549000", "162910.552000", "162910.554000", "162910.557000", "162910.560000", "162910.563000", "162910.566000", "162910.569000", "162910.572000", "162910.575000", "162910.577000", "162910.580000", "162910.583000", "162910.586000", "162910.589000", "162910.592000", "162910.594000", "162910.597000", "162910.600000", "162910.603000", "162910.606000", "162910.609000", "162910.612000", "162910.614000", "162910.617000", "162950.543000", "162950.546000", "162950.549000", "162950.552000", "162950.554000", "162950.557000", "162950.560000", "162950.563000", "162950.566000", "162950.569000", "162950.572000", "162950.575000", "162950.577000", "162950.580000", "162950.583000", "162950.586000", "162950.589000", "162950.591000", "162950.594000", "162950.597000", "162950.600000", "162950.603000", "162950.606000", "162950.609000", "162950.611000", "162950.614000", "162950.617000", "163030.543000", "163030.546000", "163030.549000", "163030.552000", "163030.554000", "163030.557000", "163030.560000", "163030.563000", "163030.566000", "163030.569000", "163030.571000", "163030.574000", "163030.577000", "163030.580000", "163030.583000", "163030.585000", "163030.588000", "163030.591000", "163030.594000", "163030.597000", "163030.614000", "163030.617000", "163030.619000", "163030.622000", "163030.625000", "163030.628000", "163030.631000", "163036.392000", "163036.396000", "163036.399000", "163036.401000"],
