{
  "AcquisitionMatrixPE": 104,
  "AcquisitionNumber": 1,
  "AcquisitionTime": "15:51:53.405000",
  "BandwidthPerPixelPhaseEncode": 17.17,
  "BaseResolution": 104,
  "BodyPartExamined": "BRAIN",
  "CoilString": "HC1-7;NC1_2",
  "ConsistencyInfo": "N4_VE11C_LATEST_20160120",
  "ConversionSoftware": "dcm2niix",
  "ConversionSoftwareVersion": "v1.0.20190902",
  "DerivedVendorReportedEchoSpacing": 0.000560011,
  "DeviceSerialNumber": "167006",
  "DwellTime": 2.1e-06,
  "EchoTime": 0.037,
  "EchoTrainLength": 104,
  "EffectiveEchoSpacing": 0.000560011,
  "FlipAngle": 52,
  "ImageComments": "Unaliased_MB4_PE3_LB",
  "ImageOrientationPatientDICOM": [0.998353, -0.0561877, 0.011625, 0.056341, 0.921644, -0.383926],
  "ImageType": [
    "ORIGINAL",
    "PRIMARY",
    "M",
    "MB",
    "ND",
    "MOSAIC"
],
  "ImagingFrequency": 123.259,
  "InPlanePhaseEncodingDirectionDICOM": "COL",
  "InstitutionAddress": "Chemin_Queen-Mary_4565_Montreal_District_CA_H3W_1W5",
  "InstitutionName": "IUGM",
  "InstitutionalDepartmentName": "Department",
  "MRAcquisitionType": "2D",
  "MagneticFieldStrength": 3,
  "Manufacturer": "Siemens",
  "ManufacturersModelName": "Prisma_fit",
  "Modality": "MR",
  "MultibandAccelerationFactor": 4,
  "PartialFourier": 1,
  "PatientPosition": "HFS",
  "PercentPhaseFOV": 100,
  "PhaseEncodingDirection": "j",
  "PhaseEncodingSteps": 104,
  "PhaseResolution": 1,
  "PixelBandwidth": 2290,
  "ProcedureStepDescription": "video_friends",
  "ProtocolName": "func_task-friends-s05e13b",
  "PulseSequenceDetails": "%CustomerSeq%_cmrr_mbep2d_bold",
  "ReceiveCoilActiveElements": "HC1-7;NC1,2",
  "ReceiveCoilName": "HeadNeck_64",
  "ReconMatrixPE": 104,
  "RepetitionTime": 1.49,
  "SAR": 0.0286287,
  "ScanOptions": "FS",
  "ScanningSequence": "EP",
  "SequenceName": "epfid2d1_104",
  "SequenceVariant": "SK_SS",
  "SeriesDescription": "func_task-friends-s05e13b",
  "SeriesNumber": 15,
  "ShimSetting": [631, -7254, -8848, 583, -5, -223, -97, 0],
  "SliceThickness": 2,
  "SliceTiming": [0, 0.785, 0.0975, 0.8825, 0.1975, 0.98, 0.295, 1.0775, 0.3925, 1.1775, 0.49, 1.275, 0.5875, 1.3725, 0.6875, 0, 0.785, 0.0975, 0.8825, 0.1975, 0.98, 0.295, 1.0775, 0.3925, 1.1775, 0.49, 1.275, 0.5875, 1.3725, 0.6875, 0, 0.785, 0.0975, 0.8825, 0.1975, 0.98, 0.295, 1.0775, 0.3925, 1.1775, 0.49, 1.275, 0.5875, 1.3725, 0.6875, 0, 0.785, 0.0975, 0.8825, 0.1975, 0.98, 0.295, 1.0775, 0.3925, 1.1775, 0.49, 1.275, 0.5875, 1.3725, 0.6875],
  "SoftwareVersions": "syngo_MR_E11",
  "SpacingBetweenSlices": 2,
  "StationName": "MRC35049",
  "TaskName": "s05e13b",
  "TotalReadoutTime": 0.0576811,
  "TxRefAmp": 217.302,
  "WipMemBlock": "fd4fadf8-cb8c-4614-8ad7-7107078cbe65||Sequence: R016 ve11c/master r/e634e98; Dec 19 2017 11:00:25 by eja",
  "dcmmeta_affine": [
    [-1.9967050552368164, 0.11268190294504166, -0.021715590730309486, 96.42598724365234],
    [0.11237534135580063, 1.8432871103286743, -0.7678959965705872, -75.69476318359375],
    [0.023249955847859383, 0.7678510546684265, 1.8465816974639893, -78.23782348632812],
    [0.0, 0.0, 0.0, 1.0]
],
  "dcmmeta_reorient_transform": [
    [0.0, -1.0, 0.0, 103.0],
    [1.0, 0.0, 0.0, 0.0],
    [0.0, 0.0, 1.0, 0.0],
    [0.0, 0.0, 0.0, 1.0]
],
  "dcmmeta_shape": [104, 104, 60, 494],
  "dcmmeta_slice_dim": 2,
  "dcmmeta_version": 0.6,
  "global": {
    "const": {
      "AcquisitionMatrix": [104, 0, 0, 104],
      "AngioFlag": "N",
      "BitsAllocated": 16,
      "BitsStored": 16,
      "BodyPartExamined": "BRAIN",
      "Columns": 832,
      "EchoNumbers": 1,
      "EchoTime": 37.0,
      "EchoTrainLength": 104,
      "FlipAngle": 52.0,
      "HighBit": 15,
      "ImageOrientationPatient": [0.9983525456393, -0.0561876721864, 0.01162497784048, 0.05634095211904, 0.92164357675881, -0.3839255325367],
      "ImagePositionPatient": [-875.84909001421, -744.21571328476, 271.88564186],
      "ImageType": [
        "ORIGINAL",
        "PRIMARY",
        "M",
        "MB",
        "ND",
        "MOSAIC"
],
      "ImagedNucleus": "1H",
      "ImagingFrequency": 123.258975,
      "InPlanePhaseEncodingDirection": "COL",
      "MRAcquisitionType": "2D",
      "MagneticFieldStrength": 3.0,
      "Manufacturer": "SIEMENS",
      "ManufacturerModelName": "Prisma_fit",
      "Modality": "MR",
      "NumberOfAverages": 1.0,
      "NumberOfPhaseEncodingSteps": 104,
      "PercentPhaseFieldOfView": 100.0,
      "PercentSampling": 100.0,
      "PerformedProcedureStepStartTime": "150424.183000",
      "PhotometricInterpretation": "MONOCHROME2",
      "PixelBandwidth": 2290.0,
      "PixelRepresentation": 0,
      "PixelSpacing": [2.0, 2.0],
      "ProtocolName": "func_task-friends-s05e13b",
      "RepetitionTime": 1490.0,
      "Rows": 832,
      "SAR": 0.02862870907446,
      "SamplesPerPixel": 1,
      "ScanOptions": "FS",
      "ScanningSequence": "EP",
      "SequenceName": "epfid2d1_104",
      "SequenceVariant": [
        "SK",
        "SS"
],
      "SeriesDescription": "func_task-friends-s05e13b",
      "SeriesNumber": 15,
      "SeriesTime": "155325.994000",
      "SliceLocation": -44.220388607563,
      "SliceThickness": 2.0,
      "SmallestImagePixelValue": 0,
      "SoftwareVersions": "syngo MR E11",
      "SpacingBetweenSlices": 1.9999999852641,
      "SpecificCharacterSet": "ISO_IR 100",
      "StudyID": "1",
      "StudyTime": "150424.010000",
      "TransmitCoilName": "Body",
      "VariableFlipAngleFlag": "N",
      "WindowCenterWidthExplanation": "Algo1",
      "dBdt": 0.0},
    "slices": {}
  },
  "time": {
    "samples": {
      "AcquisitionNumber": [1, 2, 3, 4, 5, 6, 7, 8, 9, 10, 11, 12, 13, 14, 15, 16, 17, 18, 19, 20, 21, 22, 23, 24, 25, 26, 27, 28, 29, 30, 31, 32, 33, 34, 35, 36, 37, 38, 39, 40, 41, 42, 43, 44, 45, 46, 47, 48, 49, 50, 51, 52, 53, 54, 55, 56, 57, 58, 59, 60, 61, 62, 63, 64, 65, 66, 67, 68, 69, 70, 71, 72, 73, 74, 75, 76, 77, 78, 79, 80, 81, 82, 83, 84, 85, 86, 87, 88, 89, 90, 91, 92, 93, 94, 95, 96, 97, 98, 99, 100, 101, 102, 103, 104, 105, 106, 107, 108, 109, 110, 111, 112, 113, 114, 115, 116, 117, 118, 119, 120, 121, 122, 123, 124, 125, 126, 127, 128, 129, 130, 131, 132, 133, 134, 135, 136, 137, 138, 139, 140, 141, 142, 143, 144, 145, 146, 147, 148, 149, 150, 151, 152, 153, 154, 155, 156, 157, 158, 159, 160, 161, 162, 163, 164, 165, 166, 167, 168, 169, 170, 171, 172, 173, 174, 175, 176, 177, 178, 179, 180, 181, 182, 183, 184, 185, 186, 187, 188, 189, 190, 191, 192, 193, 194, 195, 196, 197, 198, 199, 200, 201, 202, 203, 204, 205, 206, 207, 208, 209, 210, 211, 212, 213, 214, 215, 216, 217, 218, 219, 220, 221, 222, 223, 224, 225, 226, 227, 228, 229, 230, 231, 232, 233, 234, 235, 236, 237, 238, 239, 240, 241, 242, 243, 244, 245, 246, 247, 248, 249, 250, 251, 252, 253, 254, 255, 256, 257, 258, 259, 260, 261, 262, 263, 264, 265, 266, 267, 268, 269, 270, 271, 272, 273, 274, 275, 276, 277, 278, 279, 280, 281, 282, 283, 284, 285, 286, 287, 288, 289, 290, 291, 292, 293, 294, 295, 296, 297, 298, 299, 300, 301, 302, 303, 304, 305, 306, 307, 308, 309, 310, 311, 312, 313, 314, 315, 316, 317, 318, 319, 320, 321, 322, 323, 324, 325, 326, 327, 328, 329, 330, 331, 332, 333, 334, 335, 336, 337, 338, 339, 340, 341, 342, 343, 344, 345, 346, 347, 348, 349, 350, 351, 352, 353, 354, 355, 356, 357, 358, 359, 360, 361, 362, 363, 364, 365, 366, 367, 368, 369, 370, 371, 372, 373, 374, 375, 376, 377, 378, 379, 380, 381, 382, 383, 384, 385, 386, 387, 388, 389, 390, 391, 392, 393, 394, 395, 396, 397, 398, 399, 400, 401, 402, 403, 404, 405, 406, 407, 408, 409, 410, 411, 412, 413, 414, 415, 416, 417, 418, 419, 420, 421, 422, 423, 424, 425, 426, 427, 428, 429, 430, 431, 432, 433, 434, 435, 436, 437, 438, 439, 440, 441, 442, 443, 444, 445, 446, 447, 448, 449, 450, 451, 452, 453, 454, 455, 456, 457, 458, 459, 460, 461, 462, 463, 464, 465, 466, 467, 468, 469, 470, 471, 472, 473, 474, 475, 476, 477, 478, 479, 480, 481, 482, 483, 484, 485, 486, 487, 488, 489, 490, 491, 492, 493, 494],
      "AcquisitionTime": ["155153.405000", "155154.895000", "155156.385000", "155157.875000", "155159.365000", "155200.855000", "155202.345000", "155203.835000", "155205.325000", "155206.815000", "155208.305000", "155209.795000", "155211.285000", "155212.775000", "155214.265000", "155215.755000", "155217.245000", "155218.735000", "155220.225000", "155221.715000", "155223.205000", "155224.695000", "155226.185000", "155227.675000", "155229.165000", "155230.655000", "155232.145000", "155233.635000", "155235.125000", "155236.615000", "155238.105000", "155239.595000", "155241.085000", "155242.575000", "155244.065000", "155245.555000", "155247.045000", "155248.535000", "155250.025000", "155251.515000", "155253.005000", "155254.495000", "155255.985000", "155257.475000", "155258.965000", "155300.455000", "155301.945000", "155303.435000", "155304.925000", "155306.415000", "155307.905000", "155309.395000", "155310.885000", "155312.375000", "155313.865000", "155315.355000", "155316.845000", "155318.335000", "155319.825000", "155321.315000", "155322.805000", "155324.295000", "155325.785000", "155327.275000", "155328.765000", "155330.255000", "155331.745000", "155333.235000", "155334.725000", "155336.215000", "155337.705000", "155339.195000", "155340.685000", "155342.175000", "155343.665000", "155345.155000", "155346.645000", "155348.135000", "155349.625000", "155351.115000", "155352.605000", "155354.095000", "155355.585000", "155357.075000", "155358.565000", "155400.055000", "155401.545000", "155403.035000", "155404.525000", "155406.015000", "155407.505000", "155408.995000", "155410.485000", "155411.975000", "155413.465000", "155414.955000", "155416.445000", "155417.935000", "155419.425000", "155420.915000", "155422.405000", "155423.895000", "155425.385000", "155426.875000", "155428.365000", "155429.855000", "155431.345000", "155432.835000", "155434.325000", "155435.815000", "155437.305000", "155438.795000", "155440.285000", "155441.775000", "155443.265000", "155444.755000", "155446.245000", "155447.735000", "155449.225000", "155450.715000", "155452.205000", "155453.695000", "155455.185000", "155456.675000", "155458.165000", "155459.655000", "155501.145000", "155502.635000", "155504.125000", "155505.615000", "155507.105000", "155508.595000", "155510.085000", "155511.575000", "155513.065000", "155514.555000", "155516.045000", "155517.535000", "155519.025000", "155520.515000", "155522.005000", "155523.495000", "155524.985000", "155526.475000", "155527.965000", "155529.455000", "155530.945000", "155532.435000", "155533.925000", "155535.415000", "155536.905000", "155538.395000", "155539.885000", "155541.375000", "155542.865000", "155544.355000", "155545.845000", "155547.335000", "155548.825000", "155550.315000", "155551.805000", "155553.295000", "155554.785000", "155556.275000", "155557.765000", "155559.255000", "155600.745000", "155602.235000", "155603.725000", "155605.215000", "155606.705000", "155608.195000", "155609.685000", "155611.175000", "155612.665000", "155614.155000", "155615.645000", "155617.135000", "155618.625000", "155620.115000", "155621.605000", "155623.095000", "155624.585000", "155626.075000", "155627.565000", "155629.055000", "155630.545000", "155632.035000", "155633.525000", "155635.015000", "155636.505000", "155637.995000", "155639.485000", "155640.975000", "155642.465000", "155643.955000", "155645.445000", "155646.935000", "155648.425000", "155649.915000", "155651.405000", "155652.895000", "155654.385000", "155655.875000", "155657.365000", "155658.855000", "155700.345000", "155701.835000", "155703.325000", "155704.815000", "155706.305000", "155707.795000", "155709.285000", "155710.775000", "155712.265000", "155713.755000", "155715.245000", "155716.735000", "155718.225000", "155719.715000", "155721.205000", "155722.695000", "155724.185000", "155725.675000", "155727.165000", "155728.655000", "155730.145000", "155731.635000", "155733.125000", "155734.615000", "155736.105000", "155737.595000", "155739.085000", "155740.575000", "155742.065000", "155743.555000", "155745.045000", "155746.535000", "155748.025000", "155749.515000", "155751.005000", "155752.495000", "155753.985000", "155755.475000", "155756.965000", "155758.455000", "155759.945000", "155801.435000", "155802.925000", "155804.415000", "155805.905000", "155807.395000", "155808.885000", "155810.375000", "155811.865000", "155813.355000", "155814.845000", "155816.335000", "155817.825000", "155819.315000", "155820.805000", "155822.295000", "155823.785000", "155825.275000", "155826.765000", "155828.255000", "155829.745000", "155831.235000", "155832.725000", "155834.215000", "155835.705000", "155837.195000", "155838.685000", "155840.175000", "155841.665000", "155843.155000", "155844.645000", "155846.135000", "155847.625000", "155849.115000", "155850.605000", "155852.095000", "155853.585000", "155855.075000", "155856.565000", "155858.055000", "155859.545000", "155901.035000", "155902.525000", "155904.015000", "155905.505000", "155906.995000", "155908.485000", "155909.975000", "155911.465000", "155912.955000", "155914.445000", "155915.935000", "155917.425000", "155918.915000", "155920.405000", "155921.895000", "155923.385000", "155924.875000", "155926.365000", "155927.855000", "155929.345000", "155930.835000", "155932.325000", "155933.815000", "155935.305000", "155936.795000", "155938.285000", "155939.775000", "155941.265000", "155942.755000", "155944.245000", "155945.735000", "155947.225000", "155948.715000", "155950.205000", "155951.695000", "155953.185000", "155954.675000", "155956.165000", "155957.655000", "155959.145000", "160000.635000", "160002.125000", "160003.615000", "160005.105000", "160006.595000", "160008.085000", "160009.575000", "160011.065000", "160012.555000", "160014.045000", "160015.535000", "160017.025000", "160018.515000", "160020.005000", "160021.495000", "160022.985000", "160024.475000", "160025.965000", "160027.455000", "160028.945000", "160030.435000", "160031.925000", "160033.415000", "160034.905000", "160036.395000", "160037.885000", "160039.375000", "160040.865000", "160042.355000", "160043.845000", "160045.335000", "160046.825000", "160048.315000", "160049.805000", "160051.295000", "160052.785000", "160054.275000", "160055.765000", "160057.255000", "160058.745000", "160100.235000", "160101.725000", "160103.215000", "160104.705000", "160106.195000", "160107.685000", "160109.175000", "160110.665000", "160112.155000", "160113.645000", "160115.135000", "160116.625000", "160118.115000", "160119.605000", "160121.095000", "160122.585000", "160124.075000", "160125.565000", "160127.055000", "160128.545000", "160130.035000", "160131.525000", "160133.015000", "160134.505000", "160135.995000", "160137.485000", "160138.975000", "160140.465000", "160141.955000", "160143.445000", "160144.935000", "160146.425000", "160147.915000", "160149.405000", "160150.895000", "160152.385000", "160153.875000", "160155.365000", "160156.855000", "160158.345000", "160159.835000", "160201.325000", "160202.815000", "160204.305000", "160205.795000", "160207.285000", "160208.775000", "160210.265000", "160211.755000", "160213.245000", "160214.735000", "160216.225000", "160217.715000", "160219.205000", "160220.695000", "160222.185000", "160223.675000", "160225.165000", "160226.655000", "160228.145000", "160229.635000", "160231.125000", "160232.615000", "160234.105000", "160235.595000", "160237.085000", "160238.575000", "160240.065000", "160241.555000", "160243.045000", "160244.535000", "160246.025000", "160247.515000", "160249.005000", "160250.495000", "160251.985000", "160253.475000", "160254.965000", "160256.455000", "160257.945000", "160259.435000", "160300.925000", "160302.415000", "160303.905000", "160305.395000", "160306.885000", "160308.375000", "160309.865000", "160311.355000", "160312.845000", "160314.335000", "160315.825000", "160317.315000", "160318.805000", "160320.295000", "160321.785000", "160323.275000", "160324.765000", "160326.255000", "160327.745000", "160329.235000", "160330.725000", "160332.215000", "160333.705000", "160335.195000", "160336.685000", "160338.175000", "160339.665000", "160341.155000", "160342.645000", "160344.135000", "160345.625000", "160347.115000", "160348.605000", "160350.095000", "160351.585000", "160353.075000", "160354.565000", "160356.055000", "160357.545000", "160359.035000", "160400.525000", "160402.015000", "160403.505000", "160404.995000", "160406.485000", "160407.975000"],
      "ContentTime": ["155325.996000", "155326.001000", "155326.004000", "155326.007000", "155326.010000", "155326.013000", "155326.016000", "155326.018000", "155326.021000", "155326.024000", "155326.027000", "155326.030000", "155326.040000", "155326.043000", "155326.046000", "155326.049000", "155326.052000", "155326.055000", "155326.058000", "155326.060000", "155326.063000", "155326.066000", "155326.069000", "155326.072000", "155326.080000", "155326.083000", "155326.086000", "155326.089000", "155326.092000", "155326.095000", "155326.098000", "155326.100000", "155326.103000", "155326.106000", "155326.109000", "155326.112000", "155345.954000", "155345.957000", "155345.960000", "155345.962000", "155345.965000", "155345.968000", "155345.971000", "155345.978000", "155345.981000", "155345.983000", "155345.986000", "155345.989000", "155345.992000", "155345.995000", "155345.998000", "155346.002000", "155346.005000", "155346.008000", "155346.010000", "155346.013000", "155405.954000", "155405.957000", "155405.960000", "155405.962000", "155405.965000", "155405.968000", "155405.971000", "155405.974000", "155405.977000", "155405.980000", "155405.983000", "155405.986000", "155405.989000", "155405.991000", "155405.994000", "155405.997000", "155406.001000", "155406.004000", "155406.007000", "155406.010000", "155425.955000", "155425.958000", "155425.961000", "155425.964000", "155425.974000", "155425.978000", "155425.981000", "155425.984000", "155425.987000", "155425.990000", "155425.993000", "155425.996000", "155426.000000", "155426.003000", "155426.006000", "155426.009000", "155426.012000", "155426.015000", "155426.018000", "155426.021000", "155505.955000", "155505.958000", "155505.961000", "155505.964000", "155505.967000", "155505.969000", "155505.972000", "155505.975000", "155505.978000", "155505.981000", "155505.984000", "155505.987000", "155505.990000", "155505.992000", "155505.995000", "155505.998000", "155506.002000", "155506.005000", "155506.008000", "155506.011000", "155506.014000", "155506.016000", "155506.019000", "155506.022000", "155506.025000", "155506.028000", "155506.031000", "155506.034000", "155506.036000", "155506.039000", "155506.048000", "155506.051000", "155506.054000", "155545.955000", "155545.958000", "155545.961000", "155545.964000", "155545.967000", "155545.970000", "155545.973000", "155545.976000", "155545.979000", "155545.982000", "155545.984000", "155545.987000", "155545.990000", "155545.993000", "155545.996000", "155546.000000", "155546.003000", "155546.006000", "155546.009000", "155546.011000", "155546.014000", "155546.017000", "155546.020000", "155546.023000", "155546.026000", "155546.029000", "155625.955000", "155625.958000", "155625.961000", "155625.964000", "155625.966000", "155625.969000", "155625.972000", "155625.975000", "155625.978000", "155625.981000", "155625.984000", "155625.987000", "155625.990000", "155625.993000", "155625.995000", "155625.998000", "155626.001000", "155626.004000", "155626.007000", "155626.010000", "155626.013000", "155626.016000", "155626.018000", "155626.021000", "155626.024000", "155626.027000", "155626.030000", "155705.955000", "155705.958000", "155705.961000", "155705.964000", "155705.967000", "155705.970000", "155705.972000", "155705.975000", "155705.978000", "155705.981000", "155705.984000", "155705.987000", "155705.990000", "155706.007000", "155706.010000", "155706.013000", "155706.016000", "155706.019000", "155706.021000", "155706.024000", "155706.033000", "155706.036000", "155706.038000", "155706.041000", "155706.044000", "155706.047000", "155706.050000", "155745.955000", "155745.958000", "155745.961000", "155745.968000", "155745.971000", "155745.974000", "155745.977000", "155745.980000", "155745.983000", "155745.986000", "155745.988000", "155745.991000", "155745.994000", "155745.997000", "155746.001000", "155746.004000", "155746.007000", "155746.010000", "155746.013000", "155746.016000", "155746.018000", "155746.021000", "155746.024000", "155746.027000", "155746.030000", "155746.033000", "155746.036000", "155825.954000", "155825.957000", "155825.960000", "155825.963000", "155825.966000", "155825.968000", "155825.972000", "155825.974000", "155825.977000", "155825.980000", "155825.983000", "155825.986000", "155825.989000", "155825.992000", "155825.995000", "155825.998000", "155826.002000", "155826.004000", "155826.007000", "155826.015000", "155826.018000", "155826.021000", "155826.024000", "155826.027000", "155826.030000", "155826.033000", "155826.036000", "155905.955000", "155905.958000", "155905.961000", "155905.964000", "155905.967000", "155905.970000", "155905.972000", "155905.975000", "155905.978000", "155905.981000", "155905.984000", "155905.987000", "155905.990000", "155905.993000", "155905.996000", "155906.000000", "155906.002000", "155906.005000", "155906.008000", "155906.011000", "155906.014000", "155906.017000", "155906.020000", "155906.023000", "155906.026000", "155906.028000", "155906.031000", "155945.955000", "155945.958000", "155945.961000", "155945.964000", "155945.967000", "155945.970000", "155945.972000", "155945.975000", "155945.978000", "155945.981000", "155945.984000", "155945.987000", "155945.990000", "155945.993000", "155945.996000", "155946.000000", "155946.003000", "155946.005000", "155946.008000", "155946.011000", "155946.014000", "155946.017000", "155946.020000", "155946.023000", "155946.026000", "155946.029000", "155946.032000", "160025.954000", "160025.957000", "160025.960000", "160025.963000", "160025.966000", "160025.969000", "160025.971000", "160025.974000", "160025.977000", "160025.980000", "160025.983000", "160025.986000", "160025.989000", "160025.992000", "160025.995000", "160025.997000", "160026.001000", "160026.004000", "160026.007000", "160026.010000", "160026.013000", "160026.015000", "160026.019000", "160026.022000", "160026.025000", "160026.028000", "160105.955000", "160105.958000", "160105.961000", "160105.964000", "160105.967000", "160105.970000", "160105.972000", "160105.975000", "160105.978000", "160105.981000", "160105.984000", "160105.987000", "160105.990000", "160105.993000", "160105.996000", "160105.999000", "160106.002000", "160106.004000", "160106.007000", "160106.010000", "160106.013000", "160106.016000", "160106.019000", "160106.022000", "160106.024000", "160106.027000", "160106.030000", "160145.955000", "160145.958000", "160145.961000", "160145.964000", "160145.973000", "160145.976000", "160145.979000", "160145.982000", "160145.995000", "160145.997000", "160146.001000", "160146.004000", "160146.007000", "160146.010000", "160146.013000", "160146.016000", "160146.019000", "160146.022000", "160146.024000", "160146.027000", "160146.030000", "160146.033000", "160146.036000", "160146.039000", "160146.042000", "160146.045000", "160146.048000", "160225.955000", "160225.958000", "160225.961000", "160225.964000", "160225.967000", "160225.969000", "160225.972000", "160225.975000", "160225.978000", "160225.981000", "160225.984000", "160225.987000", "160225.990000", "160225.993000", "160225.996000", "160225.998000", "160226.002000", "160226.005000", "160226.008000", "160226.011000", "160226.014000", "160226.017000", "160226.020000", "160226.023000", "160226.026000", "160226.028000", "160226.031000", "160305.954000", "160305.957000", "160305.960000", "160305.962000", "160305.965000", "160305.968000", "160305.971000", "160305.974000", "160305.977000", "160305.980000", "160305.983000", "160305.986000", "160305.988000", "160305.991000", "160305.994000", "160305.997000", "160306.001000", "160306.004000", "160306.007000", "160306.009000", "160306.012000", "160306.015000", "160306.018000", "160306.021000", "160306.024000", "160306.027000", "160306.029000", "160325.955000", "160325.958000", "160325.961000", "160325.964000", "160325.967000", "160325.969000", "160325.972000", "160325.975000", "160325.978000", "160325.981000", "160325.984000", "160325.987000", "160325.989000", "160405.955000", "160405.958000", "160405.961000", "160405.964000", "160405.966000", "160405.969000", "160405.972000", "160405.975000", "160405.978000", "160405.981000", "160405.984000", "160405.987000", "160405.989000", "160405.992000", "160405.995000", "160405.998000", "160406.002000", "160406.005000", "160406.008000", "160406.010000", "160406.013000", "160406.016000", "160406.019000", "160406.022000", "160406.025000", "160406.028000", "160406.031000", "160409.688000", "160409.691000", "160409.694000"],
