{
  "AcquisitionMatrixPE": 104,
  "AcquisitionNumber": 1,
  "AcquisitionTime": "15:27:29.517500",
  "BandwidthPerPixelPhaseEncode": 17.17,
  "BaseResolution": 104,
  "BodyPartExamined": "BRAIN",
  "CoilString": "HC1-7;NC1_2",
  "ConsistencyInfo": "N4_VE11C_LATEST_20160120",
  "ConversionSoftware": "dcm2niix",
  "ConversionSoftwareVersion": "v1.0.20190902",
  "DerivedVendorReportedEchoSpacing": 0.000560011,
  "DeviceSerialNumber": "167006",
  "DwellTime": 2.1e-06,
  "EchoTime": 0.037,
  "EchoTrainLength": 104,
  "EffectiveEchoSpacing": 0.000560011,
  "FlipAngle": 52,
  "ImageComments": "Unaliased_MB4_PE3_LB",
  "ImageOrientationPatientDICOM": [0.998353, -0.0561877, 0.011625, 0.056341, 0.921644, -0.383926],
  "ImageType": [
    "ORIGINAL",
    "PRIMARY",
    "M",
    "MB",
    "ND",
    "MOSAIC"
],
  "ImagingFrequency": 123.259,
  "InPlanePhaseEncodingDirectionDICOM": "COL",
  "InstitutionAddress": "Chemin_Queen-Mary_4565_Montreal_District_CA_H3W_1W5",
  "InstitutionName": "IUGM",
  "InstitutionalDepartmentName": "Department",
  "MRAcquisitionType": "2D",
  "MagneticFieldStrength": 3,
  "Manufacturer": "Siemens",
  "ManufacturersModelName": "Prisma_fit",
  "Modality": "MR",
  "MultibandAccelerationFactor": 4,
  "PartialFourier": 1,
  "PatientPosition": "HFS",
  "PercentPhaseFOV": 100,
  "PhaseEncodingDirection": "j",
  "PhaseEncodingSteps": 104,
  "PhaseResolution": 1,
  "PixelBandwidth": 2290,
  "ProcedureStepDescription": "video_friends",
  "ProtocolName": "func_task-friends-s05e12b",
  "PulseSequenceDetails": "%CustomerSeq%_cmrr_mbep2d_bold",
  "ReceiveCoilActiveElements": "HC1-7;NC1,2",
  "ReceiveCoilName": "HeadNeck_64",
  "ReconMatrixPE": 104,
  "RepetitionTime": 1.49,
  "SAR": 0.0286254,
  "ScanOptions": "FS",
  "ScanningSequence": "EP",
  "SequenceName": "epfid2d1_104",
  "SequenceVariant": "SK_SS",
  "SeriesDescription": "func_task-friends-s05e12b",
  "SeriesNumber": 11,
  "ShimSetting": [631, -7254, -8848, 583, -5, -223, -97, 0],
  "SliceThickness": 2,
  "SliceTiming": [0, 0.785, 0.1, 0.8825, 0.1975, 0.98, 0.295, 1.08, 0.3925, 1.1775, 0.49, 1.275, 0.59, 1.3725, 0.6875, 0, 0.785, 0.1, 0.8825, 0.1975, 0.98, 0.295, 1.08, 0.3925, 1.1775, 0.49, 1.275, 0.59, 1.3725, 0.6875, 0, 0.785, 0.1, 0.8825, 0.1975, 0.98, 0.295, 1.08, 0.3925, 1.1775, 0.49, 1.275, 0.59, 1.3725, 0.6875, 0, 0.785, 0.1, 0.8825, 0.1975, 0.98, 0.295, 1.08, 0.3925, 1.1775, 0.49, 1.275, 0.59, 1.3725, 0.6875],
  "SoftwareVersions": "syngo_MR_E11",
  "SpacingBetweenSlices": 2,
  "StationName": "MRC35049",
  "TaskName": "s05e12b",
  "TotalReadoutTime": 0.0576811,
  "TxRefAmp": 217.302,
  "WipMemBlock": "bf3e31d4-ebc9-4185-837e-17f3cc9189cc||Sequence: R016 ve11c/master r/e634e98; Dec 19 2017 11:00:25 by eja",
  "dcmmeta_affine": [
    [-1.9967050552368164, 0.11268190294504166, -0.021715590730309486, 96.42598724365234],
    [0.11237534135580063, 1.8432871103286743, -0.7678959965705872, -75.69476318359375],
    [0.023249955847859383, 0.7678510546684265, 1.8465816974639893, -78.23782348632812],
    [0.0, 0.0, 0.0, 1.0]
],
  "dcmmeta_reorient_transform": [
    [0.0, -1.0, 0.0, 103.0],
    [1.0, 0.0, 0.0, 0.0],
    [0.0, 0.0, 1.0, 0.0],
    [0.0, 0.0, 0.0, 1.0]
],
  "dcmmeta_shape": [104, 104, 60, 480],
  "dcmmeta_slice_dim": 2,
  "dcmmeta_version": 0.6,
  "global": {
    "const": {
      "AcquisitionMatrix": [104, 0, 0, 104],
      "AngioFlag": "N",
      "BitsAllocated": 16,
      "BitsStored": 16,
      "BodyPartExamined": "BRAIN",
      "Columns": 832,
      "EchoNumbers": 1,
      "EchoTime": 37.0,
      "EchoTrainLength": 104,
      "FlipAngle": 52.0,
      "HighBit": 15,
      "ImageOrientationPatient": [0.9983525456393, -0.0561876721864, 0.01162497784048, 0.05634095211904, 0.92164357675881, -0.3839255325367],
      "ImagePositionPatient": [-875.84909001421, -744.21571328476, 271.88564186],
      "ImageType": [
        "ORIGINAL",
        "PRIMARY",
        "M",
        "MB",
        "ND",
        "MOSAIC"
],
      "ImagedNucleus": "1H",
      "ImagingFrequency": 123.258965,
      "InPlanePhaseEncodingDirection": "COL",
      "MRAcquisitionType": "2D",
      "MagneticFieldStrength": 3.0,
      "Manufacturer": "SIEMENS",
      "ManufacturerModelName": "Prisma_fit",
      "Modality": "MR",
      "NumberOfAverages": 1.0,
      "NumberOfPhaseEncodingSteps": 104,
      "PercentPhaseFieldOfView": 100.0,
      "PercentSampling": 100.0,
      "PerformedProcedureStepStartTime": "150424.183000",
      "PhotometricInterpretation": "MONOCHROME2",
      "PixelBandwidth": 2290.0,
      "PixelRepresentation": 0,
      "PixelSpacing": [2.0, 2.0],
      "ProtocolName": "func_task-friends-s05e12b",
      "RepetitionTime": 1490.0,
      "Rows": 832,
      "SAR": 0.02862536588536,
      "SamplesPerPixel": 1,
      "ScanOptions": "FS",
      "ScanningSequence": "EP",
      "SequenceName": "epfid2d1_104",
      "SequenceVariant": [
        "SK",
        "SS"
],
      "SeriesDescription": "func_task-friends-s05e12b",
      "SeriesNumber": 11,
      "SeriesTime": "152850.654000",
      "SliceLocation": -44.220388607563,
      "SliceThickness": 2.0,
      "SmallestImagePixelValue": 0,
      "SoftwareVersions": "syngo MR E11",
      "SpacingBetweenSlices": 1.9999999852641,
      "SpecificCharacterSet": "ISO_IR 100",
      "StudyID": "1",
      "StudyTime": "150424.010000",
      "TransmitCoilName": "Body",
      "VariableFlipAngleFlag": "N",
      "WindowCenterWidthExplanation": "Algo1",
      "dBdt": 0.0},
    "slices": {}
  },
  "time": {
    "samples": {
      "AcquisitionNumber": [1, 2, 3, 4, 5, 6, 7, 8, 9, 10, 11, 12, 13, 14, 15, 16, 17, 18, 19, 20, 21, 22, 23, 24, 25, 26, 27, 28, 29, 30, 31, 32, 33, 34, 35, 36, 37, 38, 39, 40, 41, 42, 43, 44, 45, 46, 47, 48, 49, 50, 51, 52, 53, 54, 55, 56, 57, 58, 59, 60, 61, 62, 63, 64, 65, 66, 67, 68, 69, 70, 71, 72, 73, 74, 75, 76, 77, 78, 79, 80, 81, 82, 83, 84, 85, 86, 87, 88, 89, 90, 91, 92, 93, 94, 95, 96, 97, 98, 99, 100, 101, 102, 103, 104, 105, 106, 107, 108, 109, 110, 111, 112, 113, 114, 115, 116, 117, 118, 119, 120, 121, 122, 123, 124, 125, 126, 127, 128, 129, 130, 131, 132, 133, 134, 135, 136, 137, 138, 139, 140, 141, 142, 143, 144, 145, 146, 147, 148, 149, 150, 151, 152, 153, 154, 155, 156, 157, 158, 159, 160, 161, 162, 163, 164, 165, 166, 167, 168, 169, 170, 171, 172, 173, 174, 175, 176, 177, 178, 179, 180, 181, 182, 183, 184, 185, 186, 187, 188, 189, 190, 191, 192, 193, 194, 195, 196, 197, 198, 199, 200, 201, 202, 203, 204, 205, 206, 207, 208, 209, 210, 211, 212, 213, 214, 215, 216, 217, 218, 219, 220, 221, 222, 223, 224, 225, 226, 227, 228, 229, 230, 231, 232, 233, 234, 235, 236, 237, 238, 239, 240, 241, 242, 243, 244, 245, 246, 247, 248, 249, 250, 251, 252, 253, 254, 255, 256, 257, 258, 259, 260, 261, 262, 263, 264, 265, 266, 267, 268, 269, 270, 271, 272, 273, 274, 275, 276, 277, 278, 279, 280, 281, 282, 283, 284, 285, 286, 287, 288, 289, 290, 291, 292, 293, 294, 295, 296, 297, 298, 299, 300, 301, 302, 303, 304, 305, 306, 307, 308, 309, 310, 311, 312, 313, 314, 315, 316, 317, 318, 319, 320, 321, 322, 323, 324, 325, 326, 327, 328, 329, 330, 331, 332, 333, 334, 335, 336, 337, 338, 339, 340, 341, 342, 343, 344, 345, 346, 347, 348, 349, 350, 351, 352, 353, 354, 355, 356, 357, 358, 359, 360, 361, 362, 363, 364, 365, 366, 367, 368, 369, 370, 371, 372, 373, 374, 375, 376, 377, 378, 379, 380, 381, 382, 383, 384, 385, 386, 387, 388, 389, 390, 391, 392, 393, 394, 395, 396, 397, 398, 399, 400, 401, 402, 403, 404, 405, 406, 407, 408, 409, 410, 411, 412, 413, 414, 415, 416, 417, 418, 419, 420, 421, 422, 423, 424, 425, 426, 427, 428, 429, 430, 431, 432, 433, 434, 435, 436, 437, 438, 439, 440, 441, 442, 443, 444, 445, 446, 447, 448, 449, 450, 451, 452, 453, 454, 455, 456, 457, 458, 459, 460, 461, 462, 463, 464, 465, 466, 467, 468, 469, 470, 471, 472, 473, 474, 475, 476, 477, 478, 479, 480],
      "AcquisitionTime": ["152729.517500", "152731.007500", "152732.497500", "152733.987500", "152735.477500", "152736.967500", "152738.457500", "152739.947500", "152741.437500", "152742.927500", "152744.417500", "152745.907500", "152747.397500", "152748.887500", "152750.377500", "152751.867500", "152753.357500", "152754.847500", "152756.337500", "152757.827500", "152759.317500", "152800.807500", "152802.297500", "152803.787500", "152805.277500", "152806.767500", "152808.257500", "152809.747500", "152811.237500", "152812.727500", "152814.217500", "152815.707500", "152817.197500", "152818.687500", "152820.177500", "152821.667500", "152823.157500", "152824.647500", "152826.137500", "152827.627500", "152829.117500", "152830.607500", "152832.097500", "152833.587500", "152835.077500", "152836.567500", "152838.057500", "152839.547500", "152841.037500", "152842.527500", "152844.017500", "152845.507500", "152846.997500", "152848.487500", "152849.977500", "152851.467500", "152852.957500", "152854.447500", "152855.937500", "152857.427500", "152858.917500", "152900.407500", "152901.897500", "152903.387500", "152904.877500", "152906.367500", "152907.857500", "152909.347500", "152910.837500", "152912.327500", "152913.817500", "152915.307500", "152916.797500", "152918.287500", "152919.777500", "152921.267500", "152922.757500", "152924.247500", "152925.737500", "152927.227500", "152928.717500", "152930.207500", "152931.697500", "152933.187500", "152934.677500", "152936.167500", "152937.657500", "152939.147500", "152940.637500", "152942.127500", "152943.617500", "152945.107500", "152946.597500", "152948.087500", "152949.577500", "152951.067500", "152952.557500", "152954.047500", "152955.537500", "152957.027500", "152958.517500", "153000.007500", "153001.497500", "153002.987500", "153004.477500", "153005.967500", "153007.457500", "153008.947500", "153010.437500", "153011.927500", "153013.417500", "153014.907500", "153016.397500", "153017.887500", "153019.377500", "153020.867500", "153022.357500", "153023.847500", "153025.337500", "153026.827500", "153028.317500", "153029.807500", "153031.297500", "153032.787500", "153034.277500", "153035.767500", "153037.257500", "153038.747500", "153040.237500", "153041.727500", "153043.217500", "153044.707500", "153046.197500", "153047.687500", "153049.177500", "153050.667500", "153052.157500", "153053.647500", "153055.137500", "153056.627500", "153058.117500", "153059.607500", "153101.097500", "153102.587500", "153104.077500", "153105.567500", "153107.057500", "153108.547500", "153110.037500", "153111.527500", "153113.017500", "153114.507500", "153115.997500", "153117.487500", "153118.977500", "153120.467500", "153121.957500", "153123.447500", "153124.937500", "153126.427500", "153127.917500", "153129.407500", "153130.897500", "153132.387500", "153133.877500", "153135.367500", "153136.857500", "153138.347500", "153139.837500", "153141.327500", "153142.817500", "153144.307500", "153145.797500", "153147.287500", "153148.777500", "153150.267500", "153151.757500", "153153.247500", "153154.737500", "153156.227500", "153157.717500", "153159.207500", "153200.697500", "153202.187500", "153203.677500", "153205.167500", "153206.657500", "153208.147500", "153209.637500", "153211.127500", "153212.617500", "153214.107500", "153215.597500", "153217.087500", "153218.577500", "153220.067500", "153221.557500", "153223.047500", "153224.537500", "153226.027500", "153227.517500", "153229.007500", "153230.497500", "153231.987500", "153233.477500", "153234.967500", "153236.457500", "153237.947500", "153239.437500", "153240.927500", "153242.417500", "153243.907500", "153245.397500", "153246.887500", "153248.377500", "153249.867500", "153251.357500", "153252.847500", "153254.337500", "153255.827500", "153257.317500", "153258.807500", "153300.297500", "153301.787500", "153303.277500", "153304.767500", "153306.257500", "153307.747500", "153309.237500", "153310.727500", "153312.217500", "153313.707500", "153315.197500", "153316.687500", "153318.177500", "153319.667500", "153321.157500", "153322.647500", "153324.137500", "153325.627500", "153327.117500", "153328.607500", "153330.097500", "153331.587500", "153333.077500", "153334.567500", "153336.057500", "153337.547500", "153339.037500", "153340.527500", "153342.017500", "153343.507500", "153344.997500", "153346.487500", "153347.977500", "153349.467500", "153350.957500", "153352.447500", "153353.937500", "153355.427500", "153356.917500", "153358.407500", "153359.897500", "153401.387500", "153402.877500", "153404.367500", "153405.857500", "153407.347500", "153408.837500", "153410.327500", "153411.817500", "153413.307500", "153414.797500", "153416.287500", "153417.777500", "153419.267500", "153420.757500", "153422.247500", "153423.737500", "153425.227500", "153426.717500", "153428.207500", "153429.697500", "153431.187500", "153432.677500", "153434.167500", "153435.657500", "153437.147500", "153438.637500", "153440.127500", "153441.617500", "153443.107500", "153444.597500", "153446.087500", "153447.577500", "153449.067500", "153450.557500", "153452.047500", "153453.537500", "153455.027500", "153456.517500", "153458.007500", "153459.497500", "153500.987500", "153502.477500", "153503.967500", "153505.457500", "153506.947500", "153508.437500", "153509.927500", "153511.417500", "153512.907500", "153514.397500", "153515.887500", "153517.377500", "153518.867500", "153520.357500", "153521.847500", "153523.337500", "153524.827500", "153526.317500", "153527.807500", "153529.297500", "153530.787500", "153532.277500", "153533.767500", "153535.257500", "153536.747500", "153538.237500", "153539.727500", "153541.217500", "153542.707500", "153544.197500", "153545.687500", "153547.177500", "153548.667500", "153550.157500", "153551.647500", "153553.137500", "153554.627500", "153556.117500", "153557.607500", "153559.097500", "153600.587500", "153602.077500", "153603.567500", "153605.057500", "153606.547500", "153608.037500", "153609.527500", "153611.017500", "153612.507500", "153613.997500", "153615.487500", "153616.977500", "153618.467500", "153619.957500", "153621.447500", "153622.937500", "153624.427500", "153625.917500", "153627.407500", "153628.897500", "153630.387500", "153631.877500", "153633.367500", "153634.857500", "153636.347500", "153637.837500", "153639.327500", "153640.817500", "153642.307500", "153643.797500", "153645.287500", "153646.777500", "153648.267500", "153649.757500", "153651.247500", "153652.737500", "153654.227500", "153655.717500", "153657.207500", "153658.697500", "153700.187500", "153701.677500", "153703.167500", "153704.657500", "153706.147500", "153707.637500", "153709.127500", "153710.617500", "153712.107500", "153713.597500", "153715.087500", "153716.577500", "153718.067500", "153719.557500", "153721.047500", "153722.537500", "153724.027500", "153725.517500", "153727.007500", "153728.497500", "153729.987500", "153731.477500", "153732.967500", "153734.457500", "153735.947500", "153737.437500", "153738.927500", "153740.417500", "153741.907500", "153743.397500", "153744.887500", "153746.377500", "153747.867500", "153749.357500", "153750.847500", "153752.337500", "153753.827500", "153755.317500", "153756.807500", "153758.297500", "153759.787500", "153801.277500", "153802.767500", "153804.257500", "153805.747500", "153807.237500", "153808.727500", "153810.217500", "153811.707500", "153813.197500", "153814.687500", "153816.177500", "153817.667500", "153819.157500", "153820.647500", "153822.137500", "153823.627500", "153825.117500", "153826.607500", "153828.097500", "153829.587500", "153831.077500", "153832.567500", "153834.057500", "153835.547500", "153837.037500", "153838.527500", "153840.017500", "153841.507500", "153842.997500", "153844.487500", "153845.977500", "153847.467500", "153848.957500", "153850.447500", "153851.937500", "153853.427500", "153854.917500", "153856.407500", "153857.897500", "153859.387500", "153900.877500", "153902.367500", "153903.857500", "153905.347500", "153906.837500", "153908.327500", "153909.817500", "153911.307500", "153912.797500", "153914.287500", "153915.777500", "153917.267500", "153918.757500", "153920.247500", "153921.737500", "153923.227500"],
      "ContentTime": ["152850.657000", "152850.660000", "152850.663000", "152850.666000", "152850.669000", "152850.672000", "152850.675000", "152850.677000", "152850.680000", "152850.683000", "152850.686000", "152850.689000", "152850.692000", "152850.695000", "152850.698000", "152850.701000", "152850.703000", "152850.706000", "152850.709000", "152850.712000", "152850.715000", "152850.718000", "152850.721000", "152850.723000", "152850.726000", "152850.729000", "152850.732000", "152850.735000", "152910.622000", "152910.625000", "152910.628000", "152910.631000", "152910.633000", "152910.636000", "152910.639000", "152910.642000", "152910.645000", "152910.648000", "152910.673000", "152910.676000", "152910.679000", "152910.682000", "152910.684000", "152910.687000", "152910.690000", "152910.693000", "152910.696000", "152910.698000", "152930.622000", "152930.625000", "152930.628000", "152930.631000", "152930.633000", "152930.636000", "152930.639000", "152930.642000", "152930.645000", "152930.653000", "152930.656000", "152930.659000", "152930.662000", "152930.665000", "152930.667000", "152930.670000", "152930.673000", "152930.676000", "152930.679000", "152930.682000", "152950.622000", "152950.625000", "152950.628000", "152950.630000", "152950.633000", "152950.636000", "152950.639000", "152950.642000", "152950.656000", "152950.659000", "152950.662000", "152950.664000", "152950.673000", "152950.676000", "152950.679000", "152950.682000", "152950.702000", "152950.704000", "152950.707000", "152950.710000", "153030.622000", "153030.625000", "153030.628000", "153030.631000", "153030.633000", "153030.636000", "153030.639000", "153030.642000", "153030.645000", "153030.648000", "153030.650000", "153030.653000", "153030.656000", "153030.659000", "153030.662000", "153030.665000", "153030.668000", "153030.670000", "153030.673000", "153030.676000", "153030.679000", "153030.682000", "153030.685000", "153030.687000", "153030.690000", "153030.693000", "153030.696000", "153030.699000", "153030.702000", "153030.704000", "153030.707000", "153030.710000", "153030.713000", "153110.622000", "153110.625000", "153110.628000", "153110.631000", "153110.633000", "153110.637000", "153110.640000", "153110.643000", "153110.645000", "153110.648000", "153110.651000", "153110.654000", "153110.657000", "153110.660000", "153110.663000", "153110.665000", "153110.668000", "153110.671000", "153110.674000", "153110.677000", "153110.680000", "153110.683000", "153110.685000", "153110.688000", "153110.691000", "153110.694000", "153150.622000", "153150.625000", "153150.628000", "153150.631000", "153150.633000", "153150.636000", "153150.639000", "153150.642000", "153150.645000", "153150.648000", "153150.651000", "153150.654000", "153150.656000", "153150.659000", "153150.662000", "153150.665000", "153150.668000", "153150.671000", "153150.679000", "153150.682000", "153150.684000", "153150.687000", "153150.690000", "153150.693000", "153150.696000", "153150.699000", "153150.701000", "153230.622000", "153230.625000", "153230.628000", "153230.631000", "153230.634000", "153230.636000", "153230.639000", "153230.642000", "153230.645000", "153230.648000", "153230.651000", "153230.653000", "153230.656000", "153230.659000", "153230.662000", "153230.665000", "153230.668000", "153230.671000", "153230.674000", "153230.676000", "153230.679000", "153230.682000", "153230.685000", "153230.688000", "153230.691000", "153230.694000", "153230.696000", "153310.622000", "153310.625000", "153310.628000", "153310.631000", "153310.633000", "153310.636000", "153310.639000", "153310.642000", "153310.645000", "153310.648000", "153310.651000", "153310.657000", "153310.659000", "153310.662000", "153310.665000", "153310.668000", "153310.671000", "153310.674000", "153310.677000", "153310.680000", "153310.683000", "153310.685000", "153310.688000", "153310.691000", "153310.694000", "153310.697000", "153310.700000", "153330.622000", "153330.625000", "153330.628000", "153330.631000", "153330.633000", "153330.636000", "153330.653000", "153330.656000", "153330.659000", "153330.661000", "153330.664000", "153330.667000", "153330.670000", "153410.622000", "153410.625000", "153410.628000", "153410.631000", "153410.634000", "153410.636000", "153410.639000", "153410.642000", "153410.645000", "153410.648000", "153410.651000", "153410.653000", "153410.656000", "153410.659000", "153410.662000", "153410.665000", "153410.668000", "153410.670000", "153410.673000", "153410.676000", "153410.679000", "153410.682000", "153410.685000", "153410.688000", "153410.690000", "153410.693000", "153410.696000", "153450.622000", "153450.625000", "153450.628000", "153450.631000", "153450.634000", "153450.637000", "153450.640000", "153450.643000", "153450.645000", "153450.648000", "153450.651000", "153450.654000", "153450.657000", "153450.660000", "153450.663000", "153450.666000", "153450.669000", "153450.672000", "153450.675000", "153450.678000", "153450.681000", "153450.684000", "153450.687000", "153450.690000", "153450.692000", "153450.695000", "153450.698000", "153530.622000", "153530.625000", "153530.628000", "153530.631000", "153530.634000", "153530.637000", "153530.640000", "153530.642000", "153530.645000", "153530.648000", "153530.651000", "153530.654000", "153530.657000", "153530.660000", "153530.663000", "153530.665000", "153530.668000", "153530.671000", "153530.674000", "153530.677000", "153530.686000", "153530.689000", "153530.692000", "153530.695000", "153530.698000", "153530.701000", "153530.704000", "153610.622000", "153610.625000", "153610.628000", "153610.631000", "153610.634000", "153610.637000", "153610.640000", "153610.642000", "153610.645000", "153610.648000", "153610.651000", "153610.654000", "153610.657000", "153610.660000", "153610.663000", "153610.666000", "153610.669000", "153610.672000", "153610.674000", "153610.677000", "153610.680000", "153610.683000", "153610.686000", "153610.689000", "153610.692000", "153610.695000", "153610.697000", "153650.622000", "153650.625000", "153650.628000", "153650.631000", "153650.634000", "153650.637000", "153650.640000", "153650.643000", "153650.645000", "153650.648000", "153650.651000", "153650.654000", "153650.657000", "153650.660000", "153650.663000", "153650.666000", "153650.668000", "153650.671000", "153650.674000", "153650.677000", "153650.680000", "153650.683000", "153650.686000", "153650.688000", "153650.691000", "153650.694000", "153650.697000", "153730.622000", "153730.625000", "153730.628000", "153730.631000", "153730.634000", "153730.636000", "153730.639000", "153730.642000", "153730.647000", "153730.650000", "153730.653000", "153730.657000", "153730.660000", "153730.663000", "153730.666000", "153730.669000", "153730.672000", "153730.675000", "153730.678000", "153730.681000", "153730.684000", "153730.687000", "153730.690000", "153730.693000", "153730.695000", "153730.698000", "153810.622000", "153810.625000", "153810.628000", "153810.631000", "153810.634000", "153810.637000", "153810.640000", "153810.642000", "153810.645000", "153810.648000", "153810.651000", "153810.654000", "153810.657000", "153810.660000", "153810.663000", "153810.665000", "153810.680000", "153810.682000", "153810.685000", "153810.688000", "153810.691000", "153810.694000", "153810.697000", "153810.700000", "153810.703000", "153810.705000", "153810.708000", "153850.622000", "153850.625000", "153850.628000", "153850.631000", "153850.634000", "153850.637000", "153850.639000", "153850.643000", "153850.645000", "153850.648000", "153850.651000", "153850.654000", "153850.657000", "153850.660000", "153850.663000", "153850.666000", "153850.669000", "153850.671000", "153850.674000", "153850.677000", "153850.680000", "153850.683000", "153850.686000", "153850.689000", "153850.692000", "153850.695000", "153850.697000", "153925.453000", "153925.456000", "153925.459000", "153925.462000", "153925.469000", "153925.472000", "153925.475000", "153925.478000", "153925.481000", "153925.484000", "153925.487000", "153925.490000", "153925.493000", "153925.503000", "153925.506000", "153925.509000", "153925.512000", "153925.515000", "153925.517000", "153925.520000", "153925.523000", "153925.526000", "153925.529000", "153925.532000"],
