{
  "AcquisitionMatrixPE": 104,
  "AcquisitionNumber": 1,
  "AcquisitionTime": "15:39:57.360000",
  "BandwidthPerPixelPhaseEncode": 17.17,
  "BaseResolution": 104,
  "BodyPartExamined": "BRAIN",
  "CoilString": "HC1-7;NC1_2",
  "ConsistencyInfo": "N4_VE11C_LATEST_20160120",
  "ConversionSoftware": "dcm2niix",
  "ConversionSoftwareVersion": "v1.0.20190902",
  "DerivedVendorReportedEchoSpacing": 0.000560011,
  "DeviceSerialNumber": "167006",
  "DwellTime": 2.1e-06,
  "EchoTime": 0.037,
  "EchoTrainLength": 104,
  "EffectiveEchoSpacing": 0.000560011,
  "FlipAngle": 52,
  "ImageComments": "Unaliased_MB4_PE3_LB",
  "ImageOrientationPatientDICOM": [0.998353, -0.0561877, 0.011625, 0.056341, 0.921644, -0.383926],
  "ImageType": [
    "ORIGINAL",
    "PRIMARY",
    "M",
    "MB",
    "ND",
    "MOSAIC"
],
  "ImagingFrequency": 123.259,
  "InPlanePhaseEncodingDirectionDICOM": "COL",
  "InstitutionAddress": "Chemin_Queen-Mary_4565_Montreal_District_CA_H3W_1W5",
  "InstitutionName": "IUGM",
  "InstitutionalDepartmentName": "Department",
  "MRAcquisitionType": "2D",
  "MagneticFieldStrength": 3,
  "Manufacturer": "Siemens",
  "ManufacturersModelName": "Prisma_fit",
  "Modality": "MR",
  "MultibandAccelerationFactor": 4,
  "PartialFourier": 1,
  "PatientPosition": "HFS",
  "PercentPhaseFOV": 100,
  "PhaseEncodingDirection": "j",
  "PhaseEncodingSteps": 104,
  "PhaseResolution": 1,
  "PixelBandwidth": 2290,
  "ProcedureStepDescription": "video_friends",
  "ProtocolName": "func_task-friends-s05e13a",
  "PulseSequenceDetails": "%CustomerSeq%_cmrr_mbep2d_bold",
  "ReceiveCoilActiveElements": "HC1-7;NC1,2",
  "ReceiveCoilName": "HeadNeck_64",
  "ReconMatrixPE": 104,
  "RepetitionTime": 1.49,
  "SAR": 0.0286202,
  "ScanOptions": "FS",
  "ScanningSequence": "EP",
  "SequenceName": "epfid2d1_104",
  "SequenceVariant": "SK_SS",
  "SeriesDescription": "func_task-friends-s05e13a",
  "SeriesNumber": 13,
  "ShimSetting": [631, -7254, -8848, 583, -5, -223, -97, 0],
  "SliceThickness": 2,
  "SliceTiming": [0, 0.7825, 0.0975, 0.88, 0.195, 0.98, 0.2925, 1.0775, 0.39, 1.175, 0.49, 1.2725, 0.5875, 1.37, 0.685, 0, 0.7825, 0.0975, 0.88, 0.195, 0.98, 0.2925, 1.0775, 0.39, 1.175, 0.49, 1.2725, 0.5875, 1.37, 0.685, 0, 0.7825, 0.0975, 0.88, 0.195, 0.98, 0.2925, 1.0775, 0.39, 1.175, 0.49, 1.2725, 0.5875, 1.37, 0.685, 0, 0.7825, 0.0975, 0.88, 0.195, 0.98, 0.2925, 1.0775, 0.39, 1.175, 0.49, 1.2725, 0.5875, 1.37, 0.685],
  "SoftwareVersions": "syngo_MR_E11",
  "SpacingBetweenSlices": 2,
  "StationName": "MRC35049",
  "TaskName": "s05e13a",
  "TotalReadoutTime": 0.0576811,
  "TxRefAmp": 217.302,
  "WipMemBlock": "3d16af4f-54e6-43ff-9d1b-fca47352a984||Sequence: R016 ve11c/master r/e634e98; Dec 19 2017 11:00:25 by eja",
  "dcmmeta_affine": [
    [-1.9967050552368164, 0.11268190294504166, -0.021715590730309486, 96.42598724365234],
    [0.11237534135580063, 1.8432871103286743, -0.7678959965705872, -75.69476318359375],
    [0.023249955847859383, 0.7678510546684265, 1.8465816974639893, -78.23782348632812],
    [0.0, 0.0, 0.0, 1.0]
],
  "dcmmeta_reorient_transform": [
    [0.0, -1.0, 0.0, 103.0],
    [1.0, 0.0, 0.0, 0.0],
    [0.0, 0.0, 1.0, 0.0],
    [0.0, 0.0, 0.0, 1.0]
],
  "dcmmeta_shape": [104, 104, 60, 460],
  "dcmmeta_slice_dim": 2,
  "dcmmeta_version": 0.6,
  "global": {
    "const": {
      "AcquisitionMatrix": [104, 0, 0, 104],
      "AngioFlag": "N",
      "BitsAllocated": 16,
      "BitsStored": 16,
      "BodyPartExamined": "BRAIN",
      "Columns": 832,
      "EchoNumbers": 1,
      "EchoTime": 37.0,
      "EchoTrainLength": 104,
      "FlipAngle": 52.0,
      "HighBit": 15,
      "ImageOrientationPatient": [0.9983525456393, -0.0561876721864, 0.01162497784048, 0.05634095211904, 0.92164357675881, -0.3839255325367],
      "ImagePositionPatient": [-875.84909001421, -744.21571328476, 271.88564186],
      "ImageType": [
        "ORIGINAL",
        "PRIMARY",
        "M",
        "MB",
        "ND",
        "MOSAIC"
],
      "ImagedNucleus": "1H",
      "ImagingFrequency": 123.25897,
      "InPlanePhaseEncodingDirection": "COL",
      "MRAcquisitionType": "2D",
      "MagneticFieldStrength": 3.0,
      "Manufacturer": "SIEMENS",
      "ManufacturerModelName": "Prisma_fit",
      "Modality": "MR",
      "NumberOfAverages": 1.0,
      "NumberOfPhaseEncodingSteps": 104,
      "PercentPhaseFieldOfView": 100.0,
      "PercentSampling": 100.0,
      "PerformedProcedureStepStartTime": "150424.183000",
      "PhotometricInterpretation": "MONOCHROME2",
      "PixelBandwidth": 2290.0,
      "PixelRepresentation": 0,
      "PixelSpacing": [2.0, 2.0],
      "ProtocolName": "func_task-friends-s05e13a",
      "RepetitionTime": 1490.0,
      "Rows": 832,
      "SAR": 0.02862024505797,
      "SamplesPerPixel": 1,
      "ScanOptions": "FS",
      "ScanningSequence": "EP",
      "SequenceName": "epfid2d1_104",
      "SequenceVariant": [
        "SK",
        "SS"
],
      "SeriesDescription": "func_task-friends-s05e13a",
      "SeriesNumber": 13,
      "SeriesTime": "154110.580000",
      "SliceLocation": -44.220388607563,
      "SliceThickness": 2.0,
      "SmallestImagePixelValue": 0,
      "SoftwareVersions": "syngo MR E11",
      "SpacingBetweenSlices": 1.9999999852641,
      "SpecificCharacterSet": "ISO_IR 100",
      "StudyID": "1",
      "StudyTime": "150424.010000",
      "TransmitCoilName": "Body",
      "VariableFlipAngleFlag": "N",
      "WindowCenterWidthExplanation": "Algo1",
      "dBdt": 0.0},
    "slices": {}
  },
  "time": {
    "samples": {
      "AcquisitionNumber": [1, 2, 3, 4, 5, 6, 7, 8, 9, 10, 11, 12, 13, 14, 15, 16, 17, 18, 19, 20, 21, 22, 23, 24, 25, 26, 27, 28, 29, 30, 31, 32, 33, 34, 35, 36, 37, 38, 39, 40, 41, 42, 43, 44, 45, 46, 47, 48, 49, 50, 51, 52, 53, 54, 55, 56, 57, 58, 59, 60, 61, 62, 63, 64, 65, 66, 67, 68, 69, 70, 71, 72, 73, 74, 75, 76, 77, 78, 79, 80, 81, 82, 83, 84, 85, 86, 87, 88, 89, 90, 91, 92, 93, 94, 95, 96, 97, 98, 99, 100, 101, 102, 103, 104, 105, 106, 107, 108, 109, 110, 111, 112, 113, 114, 115, 116, 117, 118, 119, 120, 121, 122, 123, 124, 125, 126, 127, 128, 129, 130, 131, 132, 133, 134, 135, 136, 137, 138, 139, 140, 141, 142, 143, 144, 145, 146, 147, 148, 149, 150, 151, 152, 153, 154, 155, 156, 157, 158, 159, 160, 161, 162, 163, 164, 165, 166, 167, 168, 169, 170, 171, 172, 173, 174, 175, 176, 177, 178, 179, 180, 181, 182, 183, 184, 185, 186, 187, 188, 189, 190, 191, 192, 193, 194, 195, 196, 197, 198, 199, 200, 201, 202, 203, 204, 205, 206, 207, 208, 209, 210, 211, 212, 213, 214, 215, 216, 217, 218, 219, 220, 221, 222, 223, 224, 225, 226, 227, 228, 229, 230, 231, 232, 233, 234, 235, 236, 237, 238, 239, 240, 241, 242, 243, 244, 245, 246, 247, 248, 249, 250, 251, 252, 253, 254, 255, 256, 257, 258, 259, 260, 261, 262, 263, 264, 265, 266, 267, 268, 269, 270, 271, 272, 273, 274, 275, 276, 277, 278, 279, 280, 281, 282, 283, 284, 285, 286, 287, 288, 289, 290, 291, 292, 293, 294, 295, 296, 297, 298, 299, 300, 301, 302, 303, 304, 305, 306, 307, 308, 309, 310, 311, 312, 313, 314, 315, 316, 317, 318, 319, 320, 321, 322, 323, 324, 325, 326, 327, 328, 329, 330, 331, 332, 333, 334, 335, 336, 337, 338, 339, 340, 341, 342, 343, 344, 345, 346, 347, 348, 349, 350, 351, 352, 353, 354, 355, 356, 357, 358, 359, 360, 361, 362, 363, 364, 365, 366, 367, 368, 369, 370, 371, 372, 373, 374, 375, 376, 377, 378, 379, 380, 381, 382, 383, 384, 385, 386, 387, 388, 389, 390, 391, 392, 393, 394, 395, 396, 397, 398, 399, 400, 401, 402, 403, 404, 405, 406, 407, 408, 409, 410, 411, 412, 413, 414, 415, 416, 417, 418, 419, 420, 421, 422, 423, 424, 425, 426, 427, 428, 429, 430, 431, 432, 433, 434, 435, 436, 437, 438, 439, 440, 441, 442, 443, 444, 445, 446, 447, 448, 449, 450, 451, 452, 453, 454, 455, 456, 457, 458, 459, 460],
      "AcquisitionTime": ["153957.360000", "153958.850000", "154000.340000", "154001.830000", "154003.320000", "154004.810000", "154006.300000", "154007.790000", "154009.280000", "154010.770000", "154012.260000", "154013.750000", "154015.240000", "154016.730000", "154018.220000", "154019.710000", "154021.200000", "154022.690000", "154024.180000", "154025.670000", "154027.160000", "154028.650000", "154030.140000", "154031.630000", "154033.120000", "154034.610000", "154036.100000", "154037.590000", "154039.080000", "154040.570000", "154042.060000", "154043.550000", "154045.040000", "154046.530000", "154048.020000", "154049.510000", "154051.000000", "154052.490000", "154053.980000", "154055.470000", "154056.960000", "154058.450000", "154059.940000", "154101.430000", "154102.920000", "154104.410000", "154105.900000", "154107.390000", "154108.880000", "154110.370000", "154111.860000", "154113.350000", "154114.840000", "154116.330000", "154117.820000", "154119.310000", "154120.800000", "154122.290000", "154123.780000", "154125.270000", "154126.760000", "154128.250000", "154129.740000", "154131.230000", "154132.720000", "154134.210000", "154135.700000", "154137.190000", "154138.680000", "154140.170000", "154141.660000", "154143.150000", "154144.640000", "154146.130000", "154147.620000", "154149.110000", "154150.600000", "154152.090000", "154153.580000", "154155.070000", "154156.560000", "154158.050000", "154159.540000", "154201.030000", "154202.520000", "154204.010000", "154205.500000", "154206.990000", "154208.480000", "154209.970000", "154211.460000", "154212.950000", "154214.440000", "154215.930000", "154217.420000", "154218.910000", "154220.400000", "154221.890000", "154223.380000", "154224.870000", "154226.360000", "154227.850000", "154229.340000", "154230.830000", "154232.320000", "154233.810000", "154235.300000", "154236.790000", "154238.280000", "154239.770000", "154241.260000", "154242.750000", "154244.240000", "154245.730000", "154247.220000", "154248.710000", "154250.200000", "154251.690000", "154253.180000", "154254.670000", "154256.160000", "154257.650000", "154259.140000", "154300.630000", "154302.120000", "154303.610000", "154305.100000", "154306.590000", "154308.080000", "154309.570000", "154311.060000", "154312.550000", "154314.040000", "154315.530000", "154317.020000", "154318.510000", "154320.000000", "154321.490000", "154322.980000", "154324.470000", "154325.960000", "154327.450000", "154328.940000", "154330.430000", "154331.920000", "154333.410000", "154334.900000", "154336.390000", "154337.880000", "154339.370000", "154340.860000", "154342.350000", "154343.840000", "154345.330000", "154346.820000", "154348.310000", "154349.800000", "154351.290000", "154352.780000", "154354.270000", "154355.760000", "154357.250000", "154358.740000", "154400.230000", "154401.720000", "154403.210000", "154404.700000", "154406.190000", "154407.680000", "154409.170000", "154410.660000", "154412.150000", "154413.640000", "154415.130000", "154416.620000", "154418.110000", "154419.600000", "154421.090000", "154422.580000", "154424.070000", "154425.560000", "154427.050000", "154428.540000", "154430.030000", "154431.520000", "154433.010000", "154434.500000", "154435.990000", "154437.480000", "154438.970000", "154440.460000", "154441.950000", "154443.440000", "154444.930000", "154446.420000", "154447.910000", "154449.400000", "154450.890000", "154452.380000", "154453.870000", "154455.360000", "154456.850000", "154458.340000", "154459.830000", "154501.320000", "154502.810000", "154504.300000", "154505.790000", "154507.280000", "154508.770000", "154510.260000", "154511.750000", "154513.240000", "154514.730000", "154516.220000", "154517.710000", "154519.200000", "154520.690000", "154522.180000", "154523.670000", "154525.160000", "154526.650000", "154528.140000", "154529.630000", "154531.120000", "154532.610000", "154534.100000", "154535.590000", "154537.080000", "154538.570000", "154540.060000", "154541.550000", "154543.040000", "154544.530000", "154546.020000", "154547.510000", "154549.000000", "154550.490000", "154551.980000", "154553.470000", "154554.960000", "154556.450000", "154557.940000", "154559.430000", "154600.920000", "154602.410000", "154603.900000", "154605.390000", "154606.880000", "154608.370000", "154609.860000", "154611.350000", "154612.840000", "154614.330000", "154615.820000", "154617.310000", "154618.800000", "154620.290000", "154621.780000", "154623.270000", "154624.760000", "154626.250000", "154627.740000", "154629.230000", "154630.720000", "154632.210000", "154633.700000", "154635.190000", "154636.680000", "154638.170000", "154639.660000", "154641.150000", "154642.640000", "154644.130000", "154645.620000", "154647.110000", "154648.600000", "154650.090000", "154651.580000", "154653.070000", "154654.560000", "154656.050000", "154657.540000", "154659.030000", "154700.520000", "154702.010000", "154703.500000", "154704.990000", "154706.480000", "154707.970000", "154709.460000", "154710.950000", "154712.440000", "154713.930000", "154715.420000", "154716.910000", "154718.400000", "154719.890000", "154721.380000", "154722.870000", "154724.360000", "154725.850000", "154727.340000", "154728.830000", "154730.320000", "154731.810000", "154733.300000", "154734.790000", "154736.280000", "154737.770000", "154739.260000", "154740.750000", "154742.240000", "154743.730000", "154745.220000", "154746.710000", "154748.200000", "154749.690000", "154751.180000", "154752.670000", "154754.160000", "154755.650000", "154757.140000", "154758.630000", "154800.120000", "154801.610000", "154803.100000", "154804.590000", "154806.080000", "154807.570000", "154809.060000", "154810.550000", "154812.040000", "154813.530000", "154815.020000", "154816.510000", "154818.000000", "154819.490000", "154820.980000", "154822.470000", "154823.960000", "154825.450000", "154826.940000", "154828.430000", "154829.920000", "154831.410000", "154832.900000", "154834.390000", "154835.880000", "154837.370000", "154838.860000", "154840.350000", "154841.840000", "154843.330000", "154844.820000", "154846.310000", "154847.800000", "154849.290000", "154850.780000", "154852.270000", "154853.760000", "154855.250000", "154856.740000", "154858.230000", "154859.720000", "154901.210000", "154902.700000", "154904.190000", "154905.680000", "154907.170000", "154908.660000", "154910.150000", "154911.640000", "154913.130000", "154914.620000", "154916.110000", "154917.600000", "154919.090000", "154920.580000", "154922.070000", "154923.560000", "154925.050000", "154926.540000", "154928.030000", "154929.520000", "154931.010000", "154932.500000", "154933.990000", "154935.480000", "154936.970000", "154938.460000", "154939.950000", "154941.440000", "154942.930000", "154944.420000", "154945.910000", "154947.400000", "154948.890000", "154950.380000", "154951.870000", "154953.360000", "154954.850000", "154956.340000", "154957.830000", "154959.320000", "155000.810000", "155002.300000", "155003.790000", "155005.280000", "155006.770000", "155008.260000", "155009.750000", "155011.240000", "155012.730000", "155014.220000", "155015.710000", "155017.200000", "155018.690000", "155020.180000", "155021.670000", "155023.160000", "155024.650000", "155026.140000", "155027.630000", "155029.120000", "155030.610000", "155032.100000", "155033.590000", "155035.080000", "155036.570000", "155038.060000", "155039.550000", "155041.040000", "155042.530000", "155044.020000", "155045.510000", "155047.000000", "155048.490000", "155049.980000", "155051.470000", "155052.960000", "155054.450000", "155055.940000", "155057.430000", "155058.920000", "155100.410000", "155101.900000", "155103.390000", "155104.880000", "155106.370000", "155107.860000", "155109.350000", "155110.840000", "155112.330000", "155113.820000", "155115.310000", "155116.800000", "155118.290000", "155119.780000", "155121.270000"],
      "ContentTime": ["154110.582000", "154110.586000", "154110.589000", "154110.592000", "154110.595000", "154110.598000", "154110.603000", "154110.606000", "154110.609000", "154110.612000", "154110.619000", "154110.622000", "154110.625000", "154110.627000", "154110.630000", "154110.633000", "154110.636000", "154110.639000", "154110.642000", "154110.645000", "154130.543000", "154130.546000", "154130.549000", "154130.552000", "154130.554000", "154130.557000", "154130.560000", "154130.563000", "154130.566000", "154130.568000", "154130.571000", "154130.574000", "154130.577000", "154130.580000", "154130.583000", "154130.585000", "154130.588000", "154130.591000", "154130.594000", "154130.597000", "154150.543000", "154150.546000", "154150.549000", "154150.552000", "154150.555000", "154150.557000", "154150.560000", "154150.563000", "154150.566000", "154150.569000", "154150.572000", "154150.575000", "154150.578000", "154150.580000", "154150.583000", "154150.586000", "154150.589000", "154150.592000", "154150.595000", "154150.598000", "154210.543000", "154210.546000", "154210.549000", "154210.552000", "154210.555000", "154210.557000", "154210.560000", "154210.563000", "154210.566000", "154210.569000", "154210.572000", "154210.575000", "154210.577000", "154210.580000", "154210.583000", "154210.586000", "154210.589000", "154210.591000", "154210.594000", "154210.597000", "154230.543000", "154230.546000", "154230.549000", "154230.551000", "154230.554000", "154230.557000", "154230.560000", "154230.563000", "154230.565000", "154230.570000", "154230.573000", "154230.576000", "154230.579000", "154230.582000", "154230.589000", "154230.593000", "154230.596000", "154230.598000", "154230.601000", "154230.604000", "154310.543000", "154310.546000", "154310.549000", "154310.552000", "154310.555000", "154310.558000", "154310.560000", "154310.563000", "154310.566000", "154310.569000", "154310.572000", "154310.575000", "154310.578000", "154310.581000", "154310.584000", "154310.586000", "154310.600000", "154310.603000", "154310.606000", "154310.609000", "154310.612000", "154310.615000", "154310.618000", "154310.620000", "154310.623000", "154310.626000", "154310.629000", "154310.632000", "154310.635000", "154350.543000", "154350.546000", "154350.549000", "154350.552000", "154350.555000", "154350.558000", "154350.560000", "154350.563000", "154350.566000", "154350.569000", "154350.572000", "154350.575000", "154350.578000", "154350.581000", "154350.584000", "154350.586000", "154350.589000", "154350.592000", "154350.595000", "154350.598000", "154350.601000", "154350.604000", "154350.606000", "154350.609000", "154350.612000", "154350.615000", "154350.618000", "154430.543000", "154430.546000", "154430.549000", "154430.552000", "154430.555000", "154430.558000", "154430.560000", "154430.563000", "154430.566000", "154430.569000", "154430.572000", "154430.575000", "154430.578000", "154430.581000", "154430.584000", "154430.587000", "154430.590000", "154430.592000", "154430.595000", "154430.598000", "154430.601000", "154430.604000", "154430.607000", "154430.610000", "154430.613000", "154430.615000", "154430.618000", "154510.543000", "154510.546000", "154510.549000", "154510.552000", "154510.555000", "154510.558000", "154510.561000", "154510.563000", "154510.566000", "154510.569000", "154510.572000", "154510.575000", "154510.578000", "154510.581000", "154510.584000", "154510.587000", "154510.589000", "154510.592000", "154510.596000", "154510.601000", "154510.603000", "154510.607000", "154510.610000", "154510.613000", "154510.616000", "154510.620000", "154550.543000", "154550.546000", "154550.549000", "154550.552000", "154550.555000", "154550.558000", "154550.560000", "154550.563000", "154550.566000", "154550.569000", "154550.572000", "154550.575000", "154550.578000", "154550.581000", "154550.583000", "154550.586000", "154550.589000", "154550.592000", "154550.595000", "154550.598000", "154550.601000", "154550.604000", "154550.606000", "154550.609000", "154550.612000", "154550.615000", "154550.618000", "154630.543000", "154630.546000", "154630.549000", "154630.552000", "154630.555000", "154630.558000", "154630.560000", "154630.563000", "154630.566000", "154630.569000", "154630.572000", "154630.575000", "154630.578000", "154630.581000", "154630.584000", "154630.587000", "154630.590000", "154630.592000", "154630.595000", "154630.598000", "154630.601000", "154630.604000", "154630.607000", "154630.610000", "154630.613000", "154630.616000", "154630.618000", "154710.543000", "154710.546000", "154710.549000", "154710.552000", "154710.555000", "154710.557000", "154710.560000", "154710.563000", "154710.566000", "154710.569000", "154710.572000", "154710.575000", "154710.578000", "154710.581000", "154710.583000", "154710.586000", "154710.589000", "154710.592000", "154710.595000", "154710.598000", "154710.601000", "154710.603000", "154710.606000", "154710.609000", "154710.612000", "154710.615000", "154710.618000", "154750.543000", "154750.546000", "154750.549000", "154750.552000", "154750.554000", "154750.557000", "154750.560000", "154750.563000", "154750.566000", "154750.569000", "154750.572000", "154750.575000", "154750.577000", "154750.580000", "154750.583000", "154750.586000", "154750.589000", "154750.592000", "154750.595000", "154750.598000", "154750.600000", "154750.603000", "154750.606000", "154750.628000", "154750.631000", "154750.634000", "154750.637000", "154830.543000", "154830.546000", "154830.549000", "154830.552000", "154830.555000", "154830.558000", "154830.561000", "154830.564000", "154830.566000", "154830.570000", "154830.572000", "154830.575000", "154830.578000", "154830.581000", "154830.584000", "154830.587000", "154830.590000", "154830.601000", "154830.604000", "154830.607000", "154830.610000", "154830.613000", "154830.616000", "154830.619000", "154830.621000", "154830.624000", "154830.627000", "154910.543000", "154910.546000", "154910.549000", "154910.552000", "154910.563000", "154910.566000", "154910.569000", "154910.572000", "154910.575000", "154910.578000", "154910.581000", "154910.584000", "154910.587000", "154910.590000", "154910.593000", "154910.596000", "154910.599000", "154910.601000", "154910.604000", "154910.607000", "154910.610000", "154910.613000", "154910.616000", "154910.619000", "154910.622000", "154910.624000", "154910.627000", "154950.543000", "154950.546000", "154950.549000", "154950.552000", "154950.555000", "154950.558000", "154950.560000", "154950.563000", "154950.566000", "154950.569000", "154950.572000", "154950.575000", "154950.578000", "154950.581000", "154950.584000", "154950.586000", "154950.589000", "154950.593000", "154950.596000", "154950.599000", "154950.602000", "154950.605000", "154950.608000", "154950.611000", "154950.613000", "154950.616000", "155030.543000", "155030.546000", "155030.549000", "155030.552000", "155030.555000", "155030.557000", "155030.560000", "155030.563000", "155030.566000", "155030.569000", "155030.572000", "155030.575000", "155030.578000", "155030.581000", "155030.584000", "155030.587000", "155030.589000", "155030.592000", "155030.595000", "155030.598000", "155030.601000", "155030.604000", "155030.607000", "155030.610000", "155030.613000", "155030.616000", "155030.618000", "155110.543000", "155110.546000", "155110.549000", "155110.552000", "155110.554000", "155110.557000", "155110.560000", "155110.563000", "155110.566000", "155110.569000", "155110.572000", "155110.575000", "155110.578000", "155110.581000", "155110.584000", "155110.586000", "155110.589000", "155110.592000", "155110.595000", "155110.598000", "155110.601000", "155110.604000", "155110.607000", "155110.610000", "155110.613000", "155110.616000", "155110.619000", "155123.147000", "155123.151000", "155123.154000", "155123.157000", "155123.159000", "155123.162000", "155123.165000", "155123.168000", "155123.171000"],
