{
  "AcquisitionMatrixPE": 104,
  "AcquisitionNumber": 1,
  "AcquisitionTime": "13:59:44.150000",
  "BandwidthPerPixelPhaseEncode": 17.17,
  "BaseResolution": 104,
  "BodyPartExamined": "BRAIN",
  "CoilString": "HC1-7;NC1_2",
  "ConsistencyInfo": "N4_VE11C_LATEST_20160120",
  "ConversionSoftware": "dcm2niix",
  "ConversionSoftwareVersion": "v1.0.20190720  (JP2:OpenJPEG) GCC7.3.0",
  "DerivedVendorReportedEchoSpacing": 0.000560011,
  "DeviceSerialNumber": "167006",
  "DwellTime": 2.1e-06,
  "EchoTime": 0.037,
  "EchoTrainLength": 104,
  "EffectiveEchoSpacing": 0.000560011,
  "FlipAngle": 52,
  "ImageComments": "Unaliased_MB4_PE3_LB",
  "ImageOrientationPatientDICOM": [0.998002, -0.0610088, 0.0164037, 0.0626141, 0.920668, -0.385292],
  "ImageType": [
    "ORIGINAL",
    "PRIMARY",
    "M",
    "MB",
    "ND",
    "MOSAIC"
],
  "ImagingFrequency": 123.259,
  "InPlanePhaseEncodingDirectionDICOM": "COL",
  "InstitutionAddress": "Chemin_Queen-Mary_4565_Montreal_District_CA_H3W_1W5",
  "InstitutionName": "IUGM",
  "InstitutionalDepartmentName": "Department",
  "MRAcquisitionType": "2D",
  "MagneticFieldStrength": 3,
  "Manufacturer": "Siemens",
  "ManufacturersModelName": "Prisma_fit",
  "Modality": "MR",
  "MultibandAccelerationFactor": 4,
  "PartialFourier": 1,
  "PatientPosition": "HFS",
  "PercentPhaseFOV": 100,
  "PhaseEncodingDirection": "j",
  "PhaseEncodingSteps": 104,
  "PhaseResolution": 1,
  "PixelBandwidth": 2290,
  "ProcedureStepDescription": "video_friends",
  "ProtocolName": "func_task-friends-s01e16a",
  "PulseSequenceDetails": "%CustomerSeq%_cmrr_mbep2d_bold",
  "ReceiveCoilActiveElements": "HC1-7;NC1,2",
  "ReceiveCoilName": "HeadNeck_64",
  "ReconMatrixPE": 104,
  "RepetitionTime": 1.49,
  "SAR": 0.0269275,
  "ScanOptions": "FS",
  "ScanningSequence": "EP",
  "SequenceName": "epfid2d1_104",
  "SequenceVariant": "SK_SS",
  "SeriesDescription": "func_task-friends-s01e16a",
  "SeriesNumber": 15,
  "ShimSetting": [635, -7256, -8824, 592, 37, -219, -90, -6],
  "SliceThickness": 2,
  "SliceTiming": [0, 0.785, 0.0975, 0.8825, 0.1975, 0.98, 0.295, 1.0775, 0.3925, 1.1775, 0.49, 1.275, 0.5875, 1.3725, 0.6875, 0, 0.785, 0.0975, 0.8825, 0.1975, 0.98, 0.295, 1.0775, 0.3925, 1.1775, 0.49, 1.275, 0.5875, 1.3725, 0.6875, 0, 0.785, 0.0975, 0.8825, 0.1975, 0.98, 0.295, 1.0775, 0.3925, 1.1775, 0.49, 1.275, 0.5875, 1.3725, 0.6875, 0, 0.785, 0.0975, 0.8825, 0.1975, 0.98, 0.295, 1.0775, 0.3925, 1.1775, 0.49, 1.275, 0.5875, 1.3725, 0.6875],
  "SoftwareVersions": "syngo_MR_E11",
  "SpacingBetweenSlices": 2,
  "StationName": "MRC35049",
  "TaskName": "friends",
  "TotalReadoutTime": 0.0576811,
  "TxRefAmp": 217.362,
  "WipMemBlock": "14abb889-d677-4f44-aed6-b0265d4217cf||Sequence: R016 ve11c/master r/e634e98; Dec 19 2017 11:00:25 by eja",
  "dcmmeta_affine": [
    [-1.9960048198699951, 0.12522822618484497, -0.0168076753616333, 95.8895034790039],
    [0.12201754003763199, 1.8413358926773071, -0.7710991501808167, -76.16920471191406],
    [0.032807398587465286, 0.770584225654602, 1.8452976942062378, -68.419921875],
    [0.0, 0.0, 0.0, 1.0]
],
  "dcmmeta_reorient_transform": [
    [0.0, -1.0, 0.0, 103.0],
    [1.0, 0.0, 0.0, 0.0],
    [0.0, 0.0, 1.0, 0.0],
    [0.0, 0.0, 0.0, 1.0]
],
  "dcmmeta_shape": [104, 104, 60, 483],
  "dcmmeta_slice_dim": 2,
  "dcmmeta_version": 0.6,
  "global": {
    "const": {
      "AcquisitionMatrix": [104, 0, 0, 104],
      "AngioFlag": "N",
      "BitsAllocated": 16,
      "BitsStored": 16,
      "BodyPartExamined": "BRAIN",
      "Columns": 832,
      "EchoNumbers": 1,
      "EchoTime": 37.0,
      "EchoTrainLength": 104,
      "FlipAngle": 52.0,
      "HighBit": 15,
      "ImageOrientationPatient": [0.99800242912303, -0.0610087705841, 0.01640370008112, 0.06261411163836, 0.92066794029514, -0.3852921187053],
      "ImagePositionPatient": [-880.9168547119, -739.32026861609, 279.50102359405],
      "ImageType": [
        "ORIGINAL",
        "PRIMARY",
        "M",
        "MB",
        "ND",
        "MOSAIC"
],
      "ImagedNucleus": "1H",
      "ImagingFrequency": 123.259119,
      "InPlanePhaseEncodingDirection": "COL",
      "MRAcquisitionType": "2D",
      "MagneticFieldStrength": 3.0,
      "Manufacturer": "SIEMENS",
      "ManufacturerModelName": "Prisma_fit",
      "Modality": "MR",
      "NumberOfAverages": 1.0,
      "NumberOfPhaseEncodingSteps": 104,
      "PercentPhaseFieldOfView": 100.0,
      "PercentSampling": 100.0,
      "PerformedProcedureStepStartTime": "130734.901000",
      "PhotometricInterpretation": "MONOCHROME2",
      "PixelBandwidth": 2290.0,
      "PixelRepresentation": 0,
      "PixelSpacing": [2.0, 2.0],
      "ProtocolName": "func_task-friends-s01e16a",
      "RepetitionTime": 1490.0,
      "Rows": 832,
      "SAR": 0.02692750703871,
      "SamplesPerPixel": 1,
      "ScanOptions": "FS",
      "ScanningSequence": "EP",
      "SequenceName": "epfid2d1_104",
      "SequenceVariant": [
        "SK",
        "SS"
],
      "SeriesDescription": "func_task-friends-s01e16a",
      "SeriesNumber": 15,
      "SeriesTime": "140108.730000",
      "SliceLocation": -34.566398310141,
      "SliceThickness": 2.0,
      "SmallestImagePixelValue": 0,
      "SoftwareVersions": "syngo MR E11",
      "SpacingBetweenSlices": 2.0000000490977,
      "SpecificCharacterSet": "ISO_IR 100",
      "StudyID": "1",
      "StudyTime": "130734.810000",
      "TransmitCoilName": "Body",
      "VariableFlipAngleFlag": "N",
      "WindowCenterWidthExplanation": "Algo1",
      "dBdt": 0.0},
    "slices": {}
  },
  "time": {
    "samples": {
      "AcquisitionNumber": [1, 2, 3, 4, 5, 6, 7, 8, 9, 10, 11, 12, 13, 14, 15, 16, 17, 18, 19, 20, 21, 22, 23, 24, 25, 26, 27, 28, 29, 30, 31, 32, 33, 34, 35, 36, 37, 38, 39, 40, 41, 42, 43, 44, 45, 46, 47, 48, 49, 50, 51, 52, 53, 54, 55, 56, 57, 58, 59, 60, 61, 62, 63, 64, 65, 66, 67, 68, 69, 70, 71, 72, 73, 74, 75, 76, 77, 78, 79, 80, 81, 82, 83, 84, 85, 86, 87, 88, 89, 90, 91, 92, 93, 94, 95, 96, 97, 98, 99, 100, 101, 102, 103, 104, 105, 106, 107, 108, 109, 110, 111, 112, 113, 114, 115, 116, 117, 118, 119, 120, 121, 122, 123, 124, 125, 126, 127, 128, 129, 130, 131, 132, 133, 134, 135, 136, 137, 138, 139, 140, 141, 142, 143, 144, 145, 146, 147, 148, 149, 150, 151, 152, 153, 154, 155, 156, 157, 158, 159, 160, 161, 162, 163, 164, 165, 166, 167, 168, 169, 170, 171, 172, 173, 174, 175, 176, 177, 178, 179, 180, 181, 182, 183, 184, 185, 186, 187, 188, 189, 190, 191, 192, 193, 194, 195, 196, 197, 198, 199, 200, 201, 202, 203, 204, 205, 206, 207, 208, 209, 210, 211, 212, 213, 214, 215, 216, 217, 218, 219, 220, 221, 222, 223, 224, 225, 226, 227, 228, 229, 230, 231, 232, 233, 234, 235, 236, 237, 238, 239, 240, 241, 242, 243, 244, 245, 246, 247, 248, 249, 250, 251, 252, 253, 254, 255, 256, 257, 258, 259, 260, 261, 262, 263, 264, 265, 266, 267, 268, 269, 270, 271, 272, 273, 274, 275, 276, 277, 278, 279, 280, 281, 282, 283, 284, 285, 286, 287, 288, 289, 290, 291, 292, 293, 294, 295, 296, 297, 298, 299, 300, 301, 302, 303, 304, 305, 306, 307, 308, 309, 310, 311, 312, 313, 314, 315, 316, 317, 318, 319, 320, 321, 322, 323, 324, 325, 326, 327, 328, 329, 330, 331, 332, 333, 334, 335, 336, 337, 338, 339, 340, 341, 342, 343, 344, 345, 346, 347, 348, 349, 350, 351, 352, 353, 354, 355, 356, 357, 358, 359, 360, 361, 362, 363, 364, 365, 366, 367, 368, 369, 370, 371, 372, 373, 374, 375, 376, 377, 378, 379, 380, 381, 382, 383, 384, 385, 386, 387, 388, 389, 390, 391, 392, 393, 394, 395, 396, 397, 398, 399, 400, 401, 402, 403, 404, 405, 406, 407, 408, 409, 410, 411, 412, 413, 414, 415, 416, 417, 418, 419, 420, 421, 422, 423, 424, 425, 426, 427, 428, 429, 430, 431, 432, 433, 434, 435, 436, 437, 438, 439, 440, 441, 442, 443, 444, 445, 446, 447, 448, 449, 450, 451, 452, 453, 454, 455, 456, 457, 458, 459, 460, 461, 462, 463, 464, 465, 466, 467, 468, 469, 470, 471, 472, 473, 474, 475, 476, 477, 478, 479, 480, 481, 482, 483],
      "AcquisitionTime": ["135944.150000", "135945.640000", "135947.130000", "135948.620000", "135950.110000", "135951.600000", "135953.090000", "135954.580000", "135956.070000", "135957.560000", "135959.050000", "140000.540000", "140002.030000", "140003.520000", "140005.010000", "140006.500000", "140007.990000", "140009.480000", "140010.970000", "140012.460000", "140013.950000", "140015.440000", "140016.930000", "140018.420000", "140019.910000", "140021.400000", "140022.890000", "140024.380000", "140025.870000", "140027.360000", "140028.850000", "140030.340000", "140031.830000", "140033.320000", "140034.810000", "140036.300000", "140037.790000", "140039.280000", "140040.770000", "140042.260000", "140043.750000", "140045.240000", "140046.730000", "140048.220000", "140049.710000", "140051.200000", "140052.690000", "140054.180000", "140055.670000", "140057.160000", "140058.650000", "140100.140000", "140101.630000", "140103.120000", "140104.610000", "140106.100000", "140107.590000", "140109.080000", "140110.570000", "140112.060000", "140113.550000", "140115.040000", "140116.530000", "140118.020000", "140119.510000", "140121.000000", "140122.490000", "140123.980000", "140125.470000", "140126.960000", "140128.450000", "140129.940000", "140131.430000", "140132.920000", "140134.410000", "140135.900000", "140137.390000", "140138.880000", "140140.370000", "140141.860000", "140143.350000", "140144.840000", "140146.330000", "140147.820000", "140149.310000", "140150.800000", "140152.290000", "140153.780000", "140155.270000", "140156.760000", "140158.250000", "140159.740000", "140201.230000", "140202.720000", "140204.210000", "140205.700000", "140207.190000", "140208.680000", "140210.170000", "140211.660000", "140213.150000", "140214.640000", "140216.130000", "140217.620000", "140219.110000", "140220.600000", "140222.090000", "140223.580000", "140225.070000", "140226.560000", "140228.050000", "140229.540000", "140231.030000", "140232.520000", "140234.010000", "140235.500000", "140236.990000", "140238.480000", "140239.970000", "140241.460000", "140242.950000", "140244.440000", "140245.930000", "140247.420000", "140248.910000", "140250.400000", "140251.890000", "140253.380000", "140254.870000", "140256.360000", "140257.850000", "140259.340000", "140300.830000", "140302.320000", "140303.810000", "140305.300000", "140306.790000", "140308.280000", "140309.770000", "140311.260000", "140312.750000", "140314.240000", "140315.730000", "140317.220000", "140318.710000", "140320.200000", "140321.690000", "140323.180000", "140324.670000", "140326.160000", "140327.650000", "140329.140000", "140330.630000", "140332.120000", "140333.610000", "140335.100000", "140336.590000", "140338.080000", "140339.570000", "140341.060000", "140342.550000", "140344.040000", "140345.530000", "140347.020000", "140348.510000", "140350.000000", "140351.490000", "140352.980000", "140354.470000", "140355.960000", "140357.450000", "140358.940000", "140400.430000", "140401.920000", "140403.410000", "140404.900000", "140406.390000", "140407.880000", "140409.370000", "140410.860000", "140412.350000", "140413.840000", "140415.330000", "140416.820000", "140418.310000", "140419.800000", "140421.290000", "140422.780000", "140424.270000", "140425.760000", "140427.250000", "140428.740000", "140430.230000", "140431.720000", "140433.210000", "140434.700000", "140436.190000", "140437.680000", "140439.170000", "140440.660000", "140442.150000", "140443.640000", "140445.130000", "140446.620000", "140448.110000", "140449.600000", "140451.090000", "140452.580000", "140454.070000", "140455.560000", "140457.050000", "140458.540000", "140500.030000", "140501.520000", "140503.010000", "140504.500000", "140505.990000", "140507.480000", "140508.970000", "140510.460000", "140511.950000", "140513.440000", "140514.930000", "140516.420000", "140517.910000", "140519.400000", "140520.890000", "140522.380000", "140523.870000", "140525.360000", "140526.850000", "140528.340000", "140529.830000", "140531.320000", "140532.810000", "140534.300000", "140535.790000", "140537.280000", "140538.770000", "140540.260000", "140541.750000", "140543.240000", "140544.730000", "140546.220000", "140547.710000", "140549.200000", "140550.690000", "140552.180000", "140553.670000", "140555.160000", "140556.650000", "140558.140000", "140559.630000", "140601.120000", "140602.610000", "140604.100000", "140605.590000", "140607.080000", "140608.570000", "140610.060000", "140611.550000", "140613.040000", "140614.530000", "140616.020000", "140617.510000", "140619.000000", "140620.490000", "140621.980000", "140623.470000", "140624.960000", "140626.450000", "140627.940000", "140629.430000", "140630.920000", "140632.410000", "140633.900000", "140635.390000", "140636.880000", "140638.370000", "140639.860000", "140641.350000", "140642.840000", "140644.330000", "140645.820000", "140647.310000", "140648.800000", "140650.290000", "140651.780000", "140653.270000", "140654.760000", "140656.250000", "140657.740000", "140659.230000", "140700.720000", "140702.210000", "140703.700000", "140705.190000", "140706.680000", "140708.170000", "140709.660000", "140711.150000", "140712.640000", "140714.130000", "140715.620000", "140717.110000", "140718.600000", "140720.090000", "140721.580000", "140723.070000", "140724.560000", "140726.050000", "140727.540000", "140729.030000", "140730.520000", "140732.010000", "140733.500000", "140734.990000", "140736.480000", "140737.970000", "140739.460000", "140740.950000", "140742.440000", "140743.930000", "140745.420000", "140746.910000", "140748.400000", "140749.890000", "140751.380000", "140752.870000", "140754.360000", "140755.850000", "140757.340000", "140758.830000", "140800.320000", "140801.810000", "140803.300000", "140804.790000", "140806.280000", "140807.770000", "140809.260000", "140810.750000", "140812.240000", "140813.730000", "140815.220000", "140816.710000", "140818.200000", "140819.690000", "140821.180000", "140822.670000", "140824.160000", "140825.650000", "140827.140000", "140828.630000", "140830.120000", "140831.610000", "140833.100000", "140834.590000", "140836.080000", "140837.570000", "140839.060000", "140840.550000", "140842.040000", "140843.530000", "140845.020000", "140846.510000", "140848.000000", "140849.490000", "140850.980000", "140852.470000", "140853.960000", "140855.450000", "140856.940000", "140858.430000", "140859.920000", "140901.410000", "140902.900000", "140904.390000", "140905.880000", "140907.370000", "140908.860000", "140910.350000", "140911.840000", "140913.330000", "140914.820000", "140916.310000", "140917.800000", "140919.290000", "140920.780000", "140922.270000", "140923.760000", "140925.250000", "140926.740000", "140928.230000", "140929.720000", "140931.210000", "140932.700000", "140934.190000", "140935.680000", "140937.170000", "140938.660000", "140940.150000", "140941.640000", "140943.130000", "140944.620000", "140946.110000", "140947.600000", "140949.090000", "140950.580000", "140952.070000", "140953.560000", "140955.050000", "140956.540000", "140958.030000", "140959.520000", "141001.010000", "141002.500000", "141003.990000", "141005.480000", "141006.970000", "141008.460000", "141009.950000", "141011.440000", "141012.930000", "141014.420000", "141015.910000", "141017.400000", "141018.890000", "141020.380000", "141021.870000", "141023.360000", "141024.850000", "141026.340000", "141027.830000", "141029.320000", "141030.810000", "141032.300000", "141033.790000", "141035.280000", "141036.770000", "141038.260000", "141039.750000", "141041.240000", "141042.730000", "141044.220000", "141045.710000", "141047.200000", "141048.690000", "141050.180000", "141051.670000", "141053.160000", "141054.650000", "141056.140000", "141057.630000", "141059.120000", "141100.610000", "141102.100000", "141103.590000", "141105.080000", "141106.570000", "141108.060000", "141109.550000", "141111.040000", "141112.530000", "141114.020000", "141115.510000", "141117.000000", "141118.490000", "141119.980000", "141121.470000", "141122.960000", "141124.450000", "141125.940000", "141127.430000", "141128.920000", "141130.410000", "141131.900000", "141133.390000", "141134.880000", "141136.370000", "141137.860000", "141139.350000", "141140.840000", "141142.330000"],
      "ContentTime": ["140108.733000", "140108.736000", "140108.739000", "140108.742000", "140108.745000", "140108.748000", "140108.750000", "140108.759000", "140108.762000", "140108.765000", "140108.768000", "140108.770000", "140108.773000", "140108.776000", "140108.779000", "140108.782000", "140108.785000", "140108.787000", "140108.790000", "140108.793000", "140108.796000", "140108.798000", "140108.801000", "140108.804000", "140108.807000", "140108.810000", "140108.813000", "140108.815000", "140108.818000", "140108.821000", "140108.824000", "140128.688000", "140128.691000", "140128.694000", "140128.696000", "140128.699000", "140128.702000", "140128.705000", "140128.708000", "140128.711000", "140128.713000", "140128.716000", "140128.719000", "140128.722000", "140128.725000", "140128.727000", "140128.730000", "140128.733000", "140128.736000", "140128.739000", "140128.741000", "140148.688000", "140148.691000", "140148.694000", "140148.697000", "140148.700000", "140148.703000", "140148.705000", "140148.708000", "140148.711000", "140148.714000", "140148.716000", "140148.719000", "140148.722000", "140148.725000", "140148.728000", "140148.731000", "140148.734000", "140148.736000", "140148.739000", "140148.742000", "140208.688000", "140208.691000", "140208.694000", "140208.696000", "140208.699000", "140208.702000", "140208.705000", "140208.708000", "140208.711000", "140208.714000", "140208.718000", "140208.721000", "140208.724000", "140208.727000", "140208.736000", "140208.739000", "140208.742000", "140208.745000", "140208.747000", "140208.750000", "140248.689000", "140248.692000", "140248.695000", "140248.698000", "140248.700000", "140248.703000", "140248.706000", "140248.709000", "140248.712000", "140248.715000", "140248.717000", "140248.720000", "140248.723000", "140248.726000", "140248.729000", "140248.732000", "140248.734000", "140248.737000", "140248.740000", "140248.743000", "140248.746000", "140248.749000", "140248.751000", "140248.754000", "140248.757000", "140248.760000", "140248.763000", "140248.766000", "140248.768000", "140248.771000", "140248.774000", "140248.777000", "140328.688000", "140328.691000", "140328.694000", "140328.696000", "140328.699000", "140328.702000", "140328.705000", "140328.708000", "140328.710000", "140328.713000", "140328.716000", "140328.719000", "140328.722000", "140328.725000", "140328.728000", "140328.730000", "140328.733000", "140328.736000", "140328.739000", "140328.742000", "140328.744000", "140328.747000", "140328.750000", "140328.753000", "140328.756000", "140328.759000", "140328.761000", "140408.688000", "140408.691000", "140408.694000", "140408.697000", "140408.700000", "140408.703000", "140408.706000", "140408.709000", "140408.712000", "140408.715000", "140408.718000", "140408.721000", "140408.723000", "140408.726000", "140408.729000", "140408.732000", "140408.735000", "140408.738000", "140408.740000", "140408.743000", "140408.746000", "140408.749000", "140408.752000", "140408.755000", "140408.758000", "140408.761000", "140448.688000", "140448.691000", "140448.694000", "140448.697000", "140448.700000", "140448.703000", "140448.705000", "140448.708000", "140448.711000", "140448.714000", "140448.717000", "140448.731000", "140448.734000", "140448.737000", "140448.740000", "140448.743000", "140448.745000", "140448.748000", "140448.751000", "140448.754000", "140448.757000", "140448.760000", "140448.763000", "140448.765000", "140448.768000", "140448.771000", "140448.774000", "140528.688000", "140528.691000", "140528.694000", "140528.697000", "140528.699000", "140528.702000", "140528.705000", "140528.708000", "140528.711000", "140528.713000", "140528.716000", "140528.719000", "140528.722000", "140528.725000", "140528.728000", "140528.731000", "140528.734000", "140528.737000", "140528.739000", "140528.742000", "140528.745000", "140528.748000", "140528.751000", "140528.754000", "140528.757000", "140528.759000", "140528.762000", "140608.688000", "140608.691000", "140608.694000", "140608.697000", "140608.700000", "140608.702000", "140608.705000", "140608.708000", "140608.711000", "140608.714000", "140608.717000", "140608.720000", "140608.722000", "140608.725000", "140608.738000", "140608.741000", "140608.744000", "140608.747000", "140608.750000", "140608.753000", "140608.755000", "140608.758000", "140608.761000", "140608.764000", "140608.767000", "140608.770000", "140608.772000", "140648.688000", "140648.691000", "140648.694000", "140648.697000", "140648.699000", "140648.702000", "140648.705000", "140648.708000", "140648.711000", "140648.713000", "140648.716000", "140648.719000", "140648.722000", "140648.725000", "140648.728000", "140648.731000", "140648.734000", "140648.737000", "140648.739000", "140648.742000", "140648.745000", "140648.748000", "140648.751000", "140648.753000", "140648.756000", "140648.759000", "140648.762000", "140728.689000", "140728.692000", "140728.695000", "140728.698000", "140728.701000", "140728.703000", "140728.706000", "140728.709000", "140728.712000", "140728.715000", "140728.718000", "140728.721000", "140728.724000", "140728.727000", "140728.730000", "140728.733000", "140728.735000", "140728.738000", "140728.741000", "140728.744000", "140728.747000", "140728.750000", "140728.752000", "140728.755000", "140728.758000", "140728.761000", "140728.764000", "140808.688000", "140808.691000", "140808.694000", "140808.697000", "140808.700000", "140808.703000", "140808.706000", "140808.708000", "140808.711000", "140808.714000", "140808.718000", "140808.721000", "140808.724000", "140808.727000", "140808.730000", "140808.732000", "140808.735000", "140808.738000", "140808.741000", "140808.744000", "140808.746000", "140808.749000", "140808.752000", "140808.755000", "140808.767000", "140808.770000", "140848.688000", "140848.691000", "140848.694000", "140848.696000", "140848.699000", "140848.702000", "140848.705000", "140848.708000", "140848.711000", "140848.714000", "140848.716000", "140848.719000", "140848.722000", "140848.725000", "140848.728000", "140848.731000", "140848.734000", "140848.736000", "140848.739000", "140848.742000", "140848.745000", "140848.748000", "140848.751000", "140848.753000", "140848.756000", "140848.759000", "140848.762000", "140928.688000", "140928.691000", "140928.694000", "140928.697000", "140928.700000", "140928.703000", "140928.705000", "140928.708000", "140928.711000", "140928.714000", "140928.717000", "140928.720000", "140928.722000", "140928.725000", "140928.728000", "140928.731000", "140928.734000", "140928.736000", "140928.739000", "140928.742000", "140928.745000", "140928.748000", "140928.750000", "140928.753000", "140928.756000", "140928.759000", "140928.762000", "140948.689000", "140948.692000", "140948.695000", "140948.698000", "140948.700000", "140948.703000", "140948.706000", "140948.709000", "140948.712000", "140948.715000", "140948.717000", "140948.720000", "140948.723000", "140948.726000", "141028.688000", "141028.691000", "141028.694000", "141028.697000", "141028.700000", "141028.703000", "141028.706000", "141028.708000", "141028.711000", "141028.714000", "141028.717000", "141028.720000", "141028.723000", "141028.726000", "141028.729000", "141028.732000", "141028.734000", "141028.737000", "141028.740000", "141028.743000", "141028.746000", "141028.748000", "141028.751000", "141028.754000", "141028.757000", "141028.760000", "141108.688000", "141108.691000", "141108.694000", "141108.697000", "141108.700000", "141108.702000", "141108.705000", "141108.708000", "141108.711000", "141108.714000", "141108.717000", "141108.720000", "141108.722000", "141108.725000", "141108.728000", "141108.731000", "141108.734000", "141108.737000", "141108.739000", "141108.742000", "141108.745000", "141108.748000", "141108.751000", "141108.754000", "141108.757000", "141108.760000", "141108.762000", "141144.831000", "141144.834000", "141144.837000", "141144.840000", "141144.843000", "141144.846000", "141144.849000", "141144.852000", "141144.855000", "141144.858000", "141144.860000", "141144.864000", "141144.867000", "141144.869000", "141144.873000", "141144.876000", "141144.878000", "141144.881000", "141144.884000", "141144.887000", "141144.890000", "141144.893000", "141144.895000", "141144.898000", "141144.901000"],
