{
  "AcquisitionMatrixPE": 104,
  "AcquisitionNumber": 1,
  "AcquisitionTime": "15:41:45.860000",
  "BandwidthPerPixelPhaseEncode": 17.17,
  "BaseResolution": 104,
  "BodyPartExamined": "BRAIN",
  "CoilString": "HC1-7;NC1_2",
  "ConsistencyInfo": "N4_VE11C_LATEST_20160120",
  "ConversionSoftware": "dcm2niix",
  "ConversionSoftwareVersion": "v1.0.20190720  (JP2:OpenJPEG) GCC7.3.0",
  "DerivedVendorReportedEchoSpacing": 0.000560011,
  "DeviceSerialNumber": "167006",
  "DwellTime": 2.1e-06,
  "EchoTime": 0.037,
  "EchoTrainLength": 104,
  "EffectiveEchoSpacing": 0.000560011,
  "FlipAngle": 52,
  "ImageComments": "Unaliased_MB4_PE3_LB",
  "ImageOrientationPatientDICOM": [0.99847, -0.0487714, 0.0260704, 0.0551239, 0.915533, -0.398449],
  "ImageType": [
    "ORIGINAL",
    "PRIMARY",
    "M",
    "MB",
    "ND",
    "MOSAIC"
],
  "ImagingFrequency": 123.259,
  "InPlanePhaseEncodingDirectionDICOM": "COL",
  "InstitutionAddress": "Chemin_Queen-Mary_4565_Montreal_District_CA_H3W_1W5",
  "InstitutionName": "IUGM",
  "InstitutionalDepartmentName": "Department",
  "MRAcquisitionType": "2D",
  "MagneticFieldStrength": 3,
  "Manufacturer": "Siemens",
  "ManufacturersModelName": "Prisma_fit",
  "Modality": "MR",
  "MultibandAccelerationFactor": 4,
  "PartialFourier": 1,
  "PatientPosition": "HFS",
  "PercentPhaseFOV": 100,
  "PhaseEncodingDirection": "j",
  "PhaseEncodingSteps": 104,
  "PhaseResolution": 1,
  "PixelBandwidth": 2290,
  "ProcedureStepDescription": "video_friends",
  "ProtocolName": "func_task-friends-s01e18a",
  "PulseSequenceDetails": "%CustomerSeq%_cmrr_mbep2d_bold",
  "ReceiveCoilActiveElements": "HC1-7;NC1,2",
  "ReceiveCoilName": "HeadNeck_64",
  "ReconMatrixPE": 104,
  "RepetitionTime": 1.49,
  "SAR": 0.0289062,
  "ScanOptions": "FS",
  "ScanningSequence": "EP",
  "SequenceName": "epfid2d1_104",
  "SequenceVariant": "SK_SS",
  "SeriesDescription": "func_task-friends-s01e18a",
  "SeriesNumber": 35,
  "ShimSetting": [637, -7250, -8893, 589, 55, -277, -139, -1],
  "SliceThickness": 2,
  "SliceTiming": [0, 0.7825, 0.0975, 0.8825, 0.195, 0.98, 0.2925, 1.0775, 0.3925, 1.175, 0.49, 1.2725, 0.5875, 1.3725, 0.685, 0, 0.7825, 0.0975, 0.8825, 0.195, 0.98, 0.2925, 1.0775, 0.3925, 1.175, 0.49, 1.2725, 0.5875, 1.3725, 0.685, 0, 0.7825, 0.0975, 0.8825, 0.195, 0.98, 0.2925, 1.0775, 0.3925, 1.175, 0.49, 1.2725, 0.5875, 1.3725, 0.685, 0, 0.7825, 0.0975, 0.8825, 0.195, 0.98, 0.2925, 1.0775, 0.3925, 1.175, 0.49, 1.2725, 0.5875, 1.3725, 0.685],
  "SoftwareVersions": "syngo_MR_E11",
  "SpacingBetweenSlices": 2,
  "StationName": "MRC35049",
  "TaskName": "friends",
  "TotalReadoutTime": 0.0576811,
  "TxRefAmp": 226.697,
  "WipMemBlock": "4f398ee0-b0ed-404c-b92f-301d7ce62169||Sequence: R016 ve11c/master r/e634e98; Dec 19 2017 11:00:25 by eja",
  "dcmmeta_affine": [
    [-1.9969393014907837, 0.11024785786867142, 0.008870836347341537, 96.38423919677734],
    [0.09754286706447601, 1.8310651779174805, -0.798552393913269, -73.9113540649414],
    [0.05214088782668114, 0.7968977093696594, 1.8336398601531982, -91.31690979003906],
    [0.0, 0.0, 0.0, 1.0]
],
  "dcmmeta_reorient_transform": [
    [0.0, -1.0, 0.0, 103.0],
    [1.0, 0.0, 0.0, 0.0],
    [0.0, 0.0, 1.0, 0.0],
    [0.0, 0.0, 0.0, 1.0]
],
  "dcmmeta_shape": [104, 104, 60, 497],
  "dcmmeta_slice_dim": 2,
  "dcmmeta_version": 0.6,
  "global": {
    "const": {
      "AcquisitionMatrix": [104, 0, 0, 104],
      "AngioFlag": "N",
      "BitsAllocated": 16,
      "BitsStored": 16,
      "BodyPartExamined": "BRAIN",
      "Columns": 832,
      "EchoNumbers": 1,
      "EchoTime": 37.0,
      "EchoTrainLength": 104,
      "FlipAngle": 52.0,
      "HighBit": 15,
      "ImageOrientationPatient": [0.99846966870296, -0.0487714330174, 0.02607044306542, 0.05512393078712, 0.91553256000167, -0.3984488471954],
      "ImagePositionPatient": [-874.75590804372, -745.69045418415, 261.85502989852],
      "ImageType": [
        "ORIGINAL",
        "PRIMARY",
        "M",
        "MB",
        "ND",
        "MOSAIC"
],
      "ImagedNucleus": "1H",
      "ImagingFrequency": 123.259178,
      "InPlanePhaseEncodingDirection": "COL",
      "MRAcquisitionType": "2D",
      "MagneticFieldStrength": 3.0,
      "Manufacturer": "SIEMENS",
      "ManufacturerModelName": "Prisma_fit",
      "Modality": "MR",
      "NumberOfAverages": 1.0,
      "NumberOfPhaseEncodingSteps": 104,
      "PercentPhaseFieldOfView": 100.0,
      "PercentSampling": 100.0,
      "PerformedProcedureStepStartTime": "130734.901000",
      "PhotometricInterpretation": "MONOCHROME2",
      "PixelBandwidth": 2290.0,
      "PixelRepresentation": 0,
      "PixelSpacing": [2.0, 2.0],
      "ProtocolName": "func_task-friends-s01e18a",
      "RepetitionTime": 1490.0,
      "Rows": 832,
      "SAR": 0.02890615669135,
      "SamplesPerPixel": 1,
      "ScanOptions": "FS",
      "ScanningSequence": "EP",
      "SequenceName": "epfid2d1_104",
      "SequenceVariant": [
        "SK",
        "SS"
],
      "SeriesDescription": "func_task-friends-s01e18a",
      "SeriesNumber": 35,
      "SeriesTime": "154308.726000",
      "SliceLocation": -53.782618635176,
      "SliceThickness": 2.0,
      "SmallestImagePixelValue": 0,
      "SoftwareVersions": "syngo MR E11",
      "SpacingBetweenSlices": 1.9999999668573,
      "SpecificCharacterSet": "ISO_IR 100",
      "StudyID": "1",
      "StudyTime": "130734.810000",
      "TransmitCoilName": "Body",
      "VariableFlipAngleFlag": "N",
      "WindowCenterWidthExplanation": "Algo1",
      "dBdt": 0.0},
    "slices": {}
  },
  "time": {
    "samples": {
      "AcquisitionNumber": [1, 2, 3, 4, 5, 6, 7, 8, 9, 10, 11, 12, 13, 14, 15, 16, 17, 18, 19, 20, 21, 22, 23, 24, 25, 26, 27, 28, 29, 30, 31, 32, 33, 34, 35, 36, 37, 38, 39, 40, 41, 42, 43, 44, 45, 46, 47, 48, 49, 50, 51, 52, 53, 54, 55, 56, 57, 58, 59, 60, 61, 62, 63, 64, 65, 66, 67, 68, 69, 70, 71, 72, 73, 74, 75, 76, 77, 78, 79, 80, 81, 82, 83, 84, 85, 86, 87, 88, 89, 90, 91, 92, 93, 94, 95, 96, 97, 98, 99, 100, 101, 102, 103, 104, 105, 106, 107, 108, 109, 110, 111, 112, 113, 114, 115, 116, 117, 118, 119, 120, 121, 122, 123, 124, 125, 126, 127, 128, 129, 130, 131, 132, 133, 134, 135, 136, 137, 138, 139, 140, 141, 142, 143, 144, 145, 146, 147, 148, 149, 150, 151, 152, 153, 154, 155, 156, 157, 158, 159, 160, 161, 162, 163, 164, 165, 166, 167, 168, 169, 170, 171, 172, 173, 174, 175, 176, 177, 178, 179, 180, 181, 182, 183, 184, 185, 186, 187, 188, 189, 190, 191, 192, 193, 194, 195, 196, 197, 198, 199, 200, 201, 202, 203, 204, 205, 206, 207, 208, 209, 210, 211, 212, 213, 214, 215, 216, 217, 218, 219, 220, 221, 222, 223, 224, 225, 226, 227, 228, 229, 230, 231, 232, 233, 234, 235, 236, 237, 238, 239, 240, 241, 242, 243, 244, 245, 246, 247, 248, 249, 250, 251, 252, 253, 254, 255, 256, 257, 258, 259, 260, 261, 262, 263, 264, 265, 266, 267, 268, 269, 270, 271, 272, 273, 274, 275, 276, 277, 278, 279, 280, 281, 282, 283, 284, 285, 286, 287, 288, 289, 290, 291, 292, 293, 294, 295, 296, 297, 298, 299, 300, 301, 302, 303, 304, 305, 306, 307, 308, 309, 310, 311, 312, 313, 314, 315, 316, 317, 318, 319, 320, 321, 322, 323, 324, 325, 326, 327, 328, 329, 330, 331, 332, 333, 334, 335, 336, 337, 338, 339, 340, 341, 342, 343, 344, 345, 346, 347, 348, 349, 350, 351, 352, 353, 354, 355, 356, 357, 358, 359, 360, 361, 362, 363, 364, 365, 366, 367, 368, 369, 370, 371, 372, 373, 374, 375, 376, 377, 378, 379, 380, 381, 382, 383, 384, 385, 386, 387, 388, 389, 390, 391, 392, 393, 394, 395, 396, 397, 398, 399, 400, 401, 402, 403, 404, 405, 406, 407, 408, 409, 410, 411, 412, 413, 414, 415, 416, 417, 418, 419, 420, 421, 422, 423, 424, 425, 426, 427, 428, 429, 430, 431, 432, 433, 434, 435, 436, 437, 438, 439, 440, 441, 442, 443, 444, 445, 446, 447, 448, 449, 450, 451, 452, 453, 454, 455, 456, 457, 458, 459, 460, 461, 462, 463, 464, 465, 466, 467, 468, 469, 470, 471, 472, 473, 474, 475, 476, 477, 478, 479, 480, 481, 482, 483, 484, 485, 486, 487, 488, 489, 490, 491, 492, 493, 494, 495, 496, 497],
      "AcquisitionTime": ["154145.860000", "154147.350000", "154148.840000", "154150.330000", "154151.820000", "154153.310000", "154154.800000", "154156.290000", "154157.780000", "154159.270000", "154200.760000", "154202.250000", "154203.740000", "154205.230000", "154206.720000", "154208.210000", "154209.700000", "154211.190000", "154212.680000", "154214.170000", "154215.660000", "154217.150000", "154218.640000", "154220.130000", "154221.620000", "154223.110000", "154224.600000", "154226.090000", "154227.580000", "154229.070000", "154230.560000", "154232.050000", "154233.540000", "154235.030000", "154236.520000", "154238.010000", "154239.500000", "154240.990000", "154242.480000", "154243.970000", "154245.460000", "154246.950000", "154248.440000", "154249.930000", "154251.420000", "154252.910000", "154254.400000", "154255.890000", "154257.380000", "154258.870000", "154300.360000", "154301.850000", "154303.340000", "154304.830000", "154306.320000", "154307.810000", "154309.300000", "154310.790000", "154312.280000", "154313.770000", "154315.260000", "154316.750000", "154318.240000", "154319.730000", "154321.220000", "154322.710000", "154324.200000", "154325.690000", "154327.180000", "154328.670000", "154330.160000", "154331.650000", "154333.140000", "154334.630000", "154336.120000", "154337.610000", "154339.100000", "154340.590000", "154342.080000", "154343.570000", "154345.060000", "154346.550000", "154348.040000", "154349.530000", "154351.020000", "154352.510000", "154354.000000", "154355.490000", "154356.980000", "154358.470000", "154359.960000", "154401.450000", "154402.940000", "154404.430000", "154405.920000", "154407.410000", "154408.900000", "154410.390000", "154411.880000", "154413.370000", "154414.860000", "154416.350000", "154417.840000", "154419.330000", "154420.820000", "154422.310000", "154423.800000", "154425.290000", "154426.780000", "154428.270000", "154429.760000", "154431.250000", "154432.740000", "154434.230000", "154435.720000", "154437.210000", "154438.700000", "154440.190000", "154441.680000", "154443.170000", "154444.660000", "154446.150000", "154447.640000", "154449.130000", "154450.620000", "154452.110000", "154453.600000", "154455.090000", "154456.580000", "154458.070000", "154459.560000", "154501.050000", "154502.540000", "154504.030000", "154505.520000", "154507.010000", "154508.500000", "154509.990000", "154511.480000", "154512.970000", "154514.460000", "154515.950000", "154517.440000", "154518.930000", "154520.420000", "154521.910000", "154523.400000", "154524.890000", "154526.380000", "154527.870000", "154529.360000", "154530.850000", "154532.340000", "154533.830000", "154535.320000", "154536.810000", "154538.300000", "154539.790000", "154541.280000", "154542.770000", "154544.260000", "154545.750000", "154547.240000", "154548.730000", "154550.220000", "154551.710000", "154553.200000", "154554.690000", "154556.180000", "154557.670000", "154559.160000", "154600.650000", "154602.140000", "154603.630000", "154605.120000", "154606.610000", "154608.100000", "154609.590000", "154611.080000", "154612.570000", "154614.060000", "154615.550000", "154617.040000", "154618.530000", "154620.020000", "154621.510000", "154623.000000", "154624.490000", "154625.980000", "154627.470000", "154628.960000", "154630.450000", "154631.940000", "154633.430000", "154634.920000", "154636.410000", "154637.900000", "154639.390000", "154640.880000", "154642.370000", "154643.860000", "154645.350000", "154646.840000", "154648.330000", "154649.820000", "154651.310000", "154652.800000", "154654.290000", "154655.780000", "154657.270000", "154658.760000", "154700.250000", "154701.740000", "154703.230000", "154704.720000", "154706.210000", "154707.700000", "154709.190000", "154710.680000", "154712.170000", "154713.660000", "154715.150000", "154716.640000", "154718.130000", "154719.620000", "154721.110000", "154722.600000", "154724.090000", "154725.580000", "154727.070000", "154728.560000", "154730.050000", "154731.540000", "154733.030000", "154734.520000", "154736.010000", "154737.500000", "154738.990000", "154740.480000", "154741.970000", "154743.460000", "154744.950000", "154746.440000", "154747.930000", "154749.420000", "154750.910000", "154752.400000", "154753.890000", "154755.380000", "154756.870000", "154758.360000", "154759.850000", "154801.340000", "154802.830000", "154804.320000", "154805.810000", "154807.300000", "154808.790000", "154810.280000", "154811.770000", "154813.260000", "154814.750000", "154816.240000", "154817.730000", "154819.220000", "154820.710000", "154822.200000", "154823.690000", "154825.180000", "154826.670000", "154828.160000", "154829.650000", "154831.140000", "154832.630000", "154834.120000", "154835.610000", "154837.100000", "154838.590000", "154840.080000", "154841.570000", "154843.060000", "154844.550000", "154846.040000", "154847.530000", "154849.020000", "154850.510000", "154852.000000", "154853.490000", "154854.980000", "154856.470000", "154857.960000", "154859.450000", "154900.940000", "154902.430000", "154903.920000", "154905.410000", "154906.900000", "154908.390000", "154909.880000", "154911.370000", "154912.860000", "154914.350000", "154915.840000", "154917.330000", "154918.820000", "154920.310000", "154921.800000", "154923.290000", "154924.780000", "154926.270000", "154927.760000", "154929.250000", "154930.740000", "154932.230000", "154933.720000", "154935.210000", "154936.700000", "154938.190000", "154939.680000", "154941.170000", "154942.660000", "154944.150000", "154945.640000", "154947.130000", "154948.620000", "154950.110000", "154951.600000", "154953.090000", "154954.580000", "154956.070000", "154957.560000", "154959.050000", "155000.540000", "155002.030000", "155003.520000", "155005.010000", "155006.500000", "155007.990000", "155009.480000", "155010.970000", "155012.460000", "155013.950000", "155015.440000", "155016.930000", "155018.420000", "155019.910000", "155021.400000", "155022.890000", "155024.380000", "155025.870000", "155027.360000", "155028.850000", "155030.340000", "155031.830000", "155033.320000", "155034.810000", "155036.300000", "155037.790000", "155039.280000", "155040.770000", "155042.260000", "155043.750000", "155045.240000", "155046.730000", "155048.220000", "155049.710000", "155051.200000", "155052.690000", "155054.180000", "155055.670000", "155057.160000", "155058.650000", "155100.140000", "155101.630000", "155103.120000", "155104.610000", "155106.100000", "155107.590000", "155109.080000", "155110.570000", "155112.060000", "155113.550000", "155115.040000", "155116.530000", "155118.020000", "155119.510000", "155121.000000", "155122.490000", "155123.980000", "155125.470000", "155126.960000", "155128.450000", "155129.940000", "155131.430000", "155132.920000", "155134.410000", "155135.900000", "155137.390000", "155138.880000", "155140.370000", "155141.860000", "155143.350000", "155144.840000", "155146.330000", "155147.820000", "155149.310000", "155150.800000", "155152.290000", "155153.780000", "155155.270000", "155156.760000", "155158.250000", "155159.740000", "155201.230000", "155202.720000", "155204.210000", "155205.700000", "155207.190000", "155208.680000", "155210.170000", "155211.660000", "155213.150000", "155214.640000", "155216.130000", "155217.620000", "155219.110000", "155220.600000", "155222.090000", "155223.580000", "155225.070000", "155226.560000", "155228.050000", "155229.540000", "155231.030000", "155232.520000", "155234.010000", "155235.500000", "155236.990000", "155238.480000", "155239.970000", "155241.460000", "155242.950000", "155244.440000", "155245.930000", "155247.420000", "155248.910000", "155250.400000", "155251.890000", "155253.380000", "155254.870000", "155256.360000", "155257.850000", "155259.340000", "155300.830000", "155302.320000", "155303.810000", "155305.300000", "155306.790000", "155308.280000", "155309.770000", "155311.260000", "155312.750000", "155314.240000", "155315.730000", "155317.220000", "155318.710000", "155320.200000", "155321.690000", "155323.180000", "155324.670000", "155326.160000", "155327.650000", "155329.140000", "155330.630000", "155332.120000", "155333.610000", "155335.100000", "155336.590000", "155338.080000", "155339.570000", "155341.060000", "155342.550000", "155344.040000", "155345.530000", "155347.020000", "155348.510000", "155350.000000", "155351.490000", "155352.980000", "155354.470000", "155355.960000", "155357.450000", "155358.940000", "155400.430000", "155401.920000", "155403.410000", "155404.900000"],
      "ContentTime": ["154308.728000", "154308.732000", "154308.735000", "154308.738000", "154308.740000", "154308.743000", "154308.751000", "154308.754000", "154308.757000", "154308.760000", "154308.762000", "154308.765000", "154308.768000", "154308.771000", "154308.774000", "154308.777000", "154308.780000", "154308.783000", "154308.786000", "154308.788000", "154308.791000", "154308.794000", "154308.797000", "154308.800000", "154308.803000", "154308.806000", "154308.809000", "154308.812000", "154328.688000", "154328.691000", "154328.694000", "154328.697000", "154328.700000", "154328.703000", "154328.705000", "154328.708000", "154328.711000", "154328.714000", "154328.725000", "154328.728000", "154328.731000", "154328.734000", "154328.736000", "154328.739000", "154328.742000", "154328.745000", "154328.748000", "154328.751000", "154348.688000", "154348.691000", "154348.694000", "154348.697000", "154348.700000", "154348.703000", "154348.705000", "154348.718000", "154348.721000", "154348.724000", "154348.726000", "154348.729000", "154348.732000", "154348.735000", "154348.738000", "154348.741000", "154348.743000", "154348.746000", "154348.749000", "154348.752000", "154408.688000", "154408.691000", "154408.694000", "154408.697000", "154408.699000", "154408.702000", "154408.705000", "154408.708000", "154408.711000", "154408.714000", "154408.717000", "154408.720000", "154408.722000", "154408.725000", "154408.728000", "154408.741000", "154408.744000", "154408.747000", "154408.750000", "154408.753000", "154428.688000", "154428.691000", "154428.695000", "154428.698000", "154428.701000", "154428.704000", "154428.707000", "154428.710000", "154428.713000", "154428.715000", "154428.718000", "154428.721000", "154428.724000", "154428.727000", "154428.730000", "154428.733000", "154428.735000", "154428.738000", "154428.741000", "154428.744000", "154508.688000", "154508.691000", "154508.694000", "154508.697000", "154508.700000", "154508.702000", "154508.705000", "154508.708000", "154508.711000", "154508.714000", "154508.717000", "154508.720000", "154508.723000", "154508.725000", "154508.728000", "154508.731000", "154508.734000", "154508.737000", "154508.740000", "154508.742000", "154508.745000", "154508.748000", "154508.751000", "154508.754000", "154508.757000", "154508.760000", "154508.762000", "154548.688000", "154548.691000", "154548.694000", "154548.697000", "154548.700000", "154548.702000", "154548.705000", "154548.708000", "154548.711000", "154548.714000", "154548.717000", "154548.720000", "154548.723000", "154548.725000", "154548.728000", "154548.731000", "154548.734000", "154548.737000", "154548.740000", "154548.742000", "154548.745000", "154548.748000", "154548.751000", "154548.754000", "154548.757000", "154548.760000", "154548.762000", "154628.688000", "154628.691000", "154628.694000", "154628.697000", "154628.700000", "154628.702000", "154628.705000", "154628.708000", "154628.711000", "154628.714000", "154628.717000", "154628.720000", "154628.723000", "154628.725000", "154628.728000", "154628.731000", "154628.734000", "154628.737000", "154628.740000", "154628.743000", "154628.769000", "154628.772000", "154628.774000", "154628.777000", "154628.780000", "154628.783000", "154628.786000", "154708.689000", "154708.692000", "154708.695000", "154708.698000", "154708.701000", "154708.704000", "154708.707000", "154708.710000", "154708.712000", "154708.715000", "154708.718000", "154708.721000", "154708.724000", "154708.727000", "154708.730000", "154708.732000", "154708.735000", "154708.738000", "154708.741000", "154708.744000", "154708.747000", "154708.750000", "154708.752000", "154708.755000", "154708.758000", "154708.761000", "154708.764000", "154748.688000", "154748.691000", "154748.694000", "154748.697000", "154748.700000", "154748.702000", "154748.705000", "154748.708000", "154748.711000", "154748.714000", "154748.717000", "154748.720000", "154748.722000", "154748.725000", "154748.728000", "154748.731000", "154748.734000", "154748.737000", "154748.740000", "154748.743000", "154748.746000", "154748.748000", "154748.751000", "154748.754000", "154748.757000", "154748.760000", "154748.763000", "154828.688000", "154828.691000", "154828.694000", "154828.697000", "154828.700000", "154828.703000", "154828.706000", "154828.708000", "154828.711000", "154828.714000", "154828.717000", "154828.720000", "154828.723000", "154828.726000", "154828.728000", "154828.731000", "154828.734000", "154828.737000", "154828.740000", "154828.743000", "154828.746000", "154828.748000", "154828.751000", "154828.754000", "154828.757000", "154828.760000", "154828.763000", "154908.688000", "154908.691000", "154908.694000", "154908.697000", "154908.700000", "154908.702000", "154908.705000", "154908.708000", "154908.711000", "154908.714000", "154908.717000", "154908.720000", "154908.722000", "154908.725000", "154908.728000", "154908.731000", "154908.734000", "154908.737000", "154908.740000", "154908.743000", "154908.746000", "154908.749000", "154908.752000", "154908.754000", "154908.757000", "154908.760000", "154948.688000", "154948.691000", "154948.694000", "154948.697000", "154948.700000", "154948.703000", "154948.705000", "154948.708000", "154948.711000", "154948.714000", "154948.717000", "154948.720000", "154948.723000", "154948.725000", "154948.728000", "154948.731000", "154948.734000", "154948.737000", "154948.740000", "154948.743000", "154948.745000", "154948.748000", "154948.751000", "154948.754000", "154948.757000", "154948.760000", "154948.763000", "155028.688000", "155028.691000", "155028.694000", "155028.698000", "155028.701000", "155028.704000", "155028.706000", "155028.709000", "155028.712000", "155028.715000", "155028.718000", "155028.721000", "155028.724000", "155028.727000", "155028.729000", "155028.732000", "155028.735000", "155028.738000", "155028.741000", "155028.744000", "155028.747000", "155028.749000", "155028.752000", "155028.755000", "155028.758000", "155028.761000", "155028.764000", "155108.688000", "155108.691000", "155108.703000", "155108.706000", "155108.708000", "155108.711000", "155108.714000", "155108.717000", "155108.720000", "155108.723000", "155108.725000", "155108.728000", "155108.731000", "155108.734000", "155108.737000", "155108.740000", "155108.743000", "155108.745000", "155108.748000", "155108.751000", "155108.754000", "155108.757000", "155108.760000", "155108.762000", "155108.765000", "155108.768000", "155108.771000", "155148.689000", "155148.692000", "155148.695000", "155148.698000", "155148.701000", "155148.703000", "155148.706000", "155148.709000", "155148.712000", "155148.715000", "155148.718000", "155148.721000", "155148.723000", "155148.726000", "155148.729000", "155148.732000", "155148.735000", "155148.738000", "155148.741000", "155148.744000", "155148.746000", "155148.749000", "155148.752000", "155148.755000", "155148.758000", "155148.765000", "155148.768000", "155228.688000", "155228.691000", "155228.694000", "155228.697000", "155228.700000", "155228.703000", "155228.705000", "155228.708000", "155228.711000", "155228.714000", "155228.717000", "155228.720000", "155228.722000", "155228.725000", "155228.728000", "155228.731000", "155228.734000", "155228.737000", "155228.740000", "155228.743000", "155228.745000", "155228.748000", "155228.751000", "155228.754000", "155228.757000", "155228.760000", "155228.762000", "155308.688000", "155308.692000", "155308.695000", "155308.698000", "155308.701000", "155308.704000", "155308.706000", "155308.709000", "155308.712000", "155308.715000", "155308.718000", "155308.721000", "155308.724000", "155308.727000", "155308.730000", "155308.733000", "155308.736000", "155308.738000", "155308.741000", "155308.744000", "155308.747000", "155308.750000", "155308.753000", "155308.755000", "155308.758000", "155308.761000", "155348.688000", "155348.691000", "155348.694000", "155348.697000", "155348.712000", "155348.715000", "155348.717000", "155348.720000", "155348.723000", "155348.726000", "155348.729000", "155348.732000", "155348.735000", "155348.738000", "155348.741000", "155348.743000", "155348.746000", "155348.749000", "155348.752000", "155348.755000", "155348.758000", "155348.761000", "155348.764000", "155348.766000", "155348.769000", "155348.773000", "155348.776000", "155406.858000", "155406.861000", "155406.864000", "155406.867000", "155406.870000", "155406.873000", "155406.876000", "155406.879000", "155406.883000", "155406.886000", "155406.889000", "155406.892000", "155406.895000"],
