{
  "AcquisitionMatrixPE": 104,
  "AcquisitionNumber": 1,
  "AcquisitionTime": "14:12:55.165000",
  "BandwidthPerPixelPhaseEncode": 17.17,
  "BaseResolution": 104,
  "BodyPartExamined": "BRAIN",
  "CoilString": "HC1-7;NC1_2",
  "ConsistencyInfo": "N4_VE11C_LATEST_20160120",
  "ConversionSoftware": "dcm2niix",
  "ConversionSoftwareVersion": "v1.0.20190720  (JP2:OpenJPEG) GCC7.3.0",
  "DerivedVendorReportedEchoSpacing": 0.000560011,
  "DeviceSerialNumber": "167006",
  "DwellTime": 2.1e-06,
  "EchoTime": 0.037,
  "EchoTrainLength": 104,
  "EffectiveEchoSpacing": 0.000560011,
  "FlipAngle": 52,
  "ImageComments": "Unaliased_MB4_PE3_LB",
  "ImageOrientationPatientDICOM": [0.998002, -0.0610088, 0.0164037, 0.0626141, 0.920668, -0.385292],
  "ImageType": [
    "ORIGINAL",
    "PRIMARY",
    "M",
    "MB",
    "ND",
    "MOSAIC"
],
  "ImagingFrequency": 123.259,
  "InPlanePhaseEncodingDirectionDICOM": "COL",
  "InstitutionAddress": "Chemin_Queen-Mary_4565_Montreal_District_CA_H3W_1W5",
  "InstitutionName": "IUGM",
  "InstitutionalDepartmentName": "Department",
  "MRAcquisitionType": "2D",
  "MagneticFieldStrength": 3,
  "Manufacturer": "Siemens",
  "ManufacturersModelName": "Prisma_fit",
  "Modality": "MR",
  "MultibandAccelerationFactor": 4,
  "PartialFourier": 1,
  "PatientPosition": "HFS",
  "PercentPhaseFOV": 100,
  "PhaseEncodingDirection": "j",
  "PhaseEncodingSteps": 104,
  "PhaseResolution": 1,
  "PixelBandwidth": 2290,
  "ProcedureStepDescription": "video_friends",
  "ProtocolName": "func_task-friends-s01e16b",
  "PulseSequenceDetails": "%CustomerSeq%_cmrr_mbep2d_bold",
  "ReceiveCoilActiveElements": "HC1-7;NC1,2",
  "ReceiveCoilName": "HeadNeck_64",
  "ReconMatrixPE": 104,
  "RepetitionTime": 1.49,
  "SAR": 0.0269275,
  "ScanOptions": "FS",
  "ScanningSequence": "EP",
  "SequenceName": "epfid2d1_104",
  "SequenceVariant": "SK_SS",
  "SeriesDescription": "func_task-friends-s01e16b",
  "SeriesNumber": 17,
  "ShimSetting": [635, -7256, -8824, 592, 37, -219, -90, -6],
  "SliceThickness": 2,
  "SliceTiming": [0, 0.785, 0.0975, 0.8825, 0.195, 0.98, 0.295, 1.0775, 0.3925, 1.175, 0.49, 1.275, 0.5875, 1.3725, 0.685, 0, 0.785, 0.0975, 0.8825, 0.195, 0.98, 0.295, 1.0775, 0.3925, 1.175, 0.49, 1.275, 0.5875, 1.3725, 0.685, 0, 0.785, 0.0975, 0.8825, 0.195, 0.98, 0.295, 1.0775, 0.3925, 1.175, 0.49, 1.275, 0.5875, 1.3725, 0.685, 0, 0.785, 0.0975, 0.8825, 0.195, 0.98, 0.295, 1.0775, 0.3925, 1.175, 0.49, 1.275, 0.5875, 1.3725, 0.685],
  "SoftwareVersions": "syngo_MR_E11",
  "SpacingBetweenSlices": 2,
  "StationName": "MRC35049",
  "TaskName": "friends",
  "TotalReadoutTime": 0.0576811,
  "TxRefAmp": 217.362,
  "WipMemBlock": "03e191ec-a2d2-44d8-b9da-e5b8277b5130||Sequence: R016 ve11c/master r/e634e98; Dec 19 2017 11:00:25 by eja",
  "dcmmeta_affine": [
    [-1.9960048198699951, 0.12522822618484497, -0.0168076753616333, 95.8895034790039],
    [0.12201754003763199, 1.8413358926773071, -0.7710991501808167, -76.16920471191406],
    [0.032807398587465286, 0.770584225654602, 1.8452976942062378, -68.419921875],
    [0.0, 0.0, 0.0, 1.0]
],
  "dcmmeta_reorient_transform": [
    [0.0, -1.0, 0.0, 103.0],
    [1.0, 0.0, 0.0, 0.0],
    [0.0, 0.0, 1.0, 0.0],
    [0.0, 0.0, 0.0, 1.0]
],
  "dcmmeta_shape": [104, 104, 60, 483],
  "dcmmeta_slice_dim": 2,
  "dcmmeta_version": 0.6,
  "global": {
    "const": {
      "AcquisitionMatrix": [104, 0, 0, 104],
      "AngioFlag": "N",
      "BitsAllocated": 16,
      "BitsStored": 16,
      "BodyPartExamined": "BRAIN",
      "Columns": 832,
      "EchoNumbers": 1,
      "EchoTime": 37.0,
      "EchoTrainLength": 104,
      "FlipAngle": 52.0,
      "HighBit": 15,
      "ImageOrientationPatient": [0.99800242912303, -0.0610087705841, 0.01640370008112, 0.06261411163836, 0.92066794029514, -0.3852921187053],
      "ImagePositionPatient": [-880.9168547119, -739.32026861609, 279.50102359405],
      "ImageType": [
        "ORIGINAL",
        "PRIMARY",
        "M",
        "MB",
        "ND",
        "MOSAIC"
],
      "ImagedNucleus": "1H",
      "ImagingFrequency": 123.259124,
      "InPlanePhaseEncodingDirection": "COL",
      "MRAcquisitionType": "2D",
      "MagneticFieldStrength": 3.0,
      "Manufacturer": "SIEMENS",
      "ManufacturerModelName": "Prisma_fit",
      "Modality": "MR",
      "NumberOfAverages": 1.0,
      "NumberOfPhaseEncodingSteps": 104,
      "PercentPhaseFieldOfView": 100.0,
      "PercentSampling": 100.0,
      "PerformedProcedureStepStartTime": "130734.901000",
      "PhotometricInterpretation": "MONOCHROME2",
      "PixelBandwidth": 2290.0,
      "PixelRepresentation": 0,
      "PixelSpacing": [2.0, 2.0],
      "ProtocolName": "func_task-friends-s01e16b",
      "RepetitionTime": 1490.0,
      "Rows": 832,
      "SAR": 0.02692750703871,
      "SamplesPerPixel": 1,
      "ScanOptions": "FS",
      "ScanningSequence": "EP",
      "SequenceName": "epfid2d1_104",
      "SequenceVariant": [
        "SK",
        "SS"
],
      "SeriesDescription": "func_task-friends-s01e16b",
      "SeriesNumber": 17,
      "SeriesTime": "141428.655000",
      "SliceLocation": -34.566398310141,
      "SliceThickness": 2.0,
      "SmallestImagePixelValue": 0,
      "SoftwareVersions": "syngo MR E11",
      "SpacingBetweenSlices": 2.0000000490977,
      "SpecificCharacterSet": "ISO_IR 100",
      "StudyID": "1",
      "StudyTime": "130734.810000",
      "TransmitCoilName": "Body",
      "VariableFlipAngleFlag": "N",
      "WindowCenterWidthExplanation": "Algo1",
      "dBdt": 0.0},
    "slices": {}
  },
  "time": {
    "samples": {
      "AcquisitionNumber": [1, 2, 3, 4, 5, 6, 7, 8, 9, 10, 11, 12, 13, 14, 15, 16, 17, 18, 19, 20, 21, 22, 23, 24, 25, 26, 27, 28, 29, 30, 31, 32, 33, 34, 35, 36, 37, 38, 39, 40, 41, 42, 43, 44, 45, 46, 47, 48, 49, 50, 51, 52, 53, 54, 55, 56, 57, 58, 59, 60, 61, 62, 63, 64, 65, 66, 67, 68, 69, 70, 71, 72, 73, 74, 75, 76, 77, 78, 79, 80, 81, 82, 83, 84, 85, 86, 87, 88, 89, 90, 91, 92, 93, 94, 95, 96, 97, 98, 99, 100, 101, 102, 103, 104, 105, 106, 107, 108, 109, 110, 111, 112, 113, 114, 115, 116, 117, 118, 119, 120, 121, 122, 123, 124, 125, 126, 127, 128, 129, 130, 131, 132, 133, 134, 135, 136, 137, 138, 139, 140, 141, 142, 143, 144, 145, 146, 147, 148, 149, 150, 151, 152, 153, 154, 155, 156, 157, 158, 159, 160, 161, 162, 163, 164, 165, 166, 167, 168, 169, 170, 171, 172, 173, 174, 175, 176, 177, 178, 179, 180, 181, 182, 183, 184, 185, 186, 187, 188, 189, 190, 191, 192, 193, 194, 195, 196, 197, 198, 199, 200, 201, 202, 203, 204, 205, 206, 207, 208, 209, 210, 211, 212, 213, 214, 215, 216, 217, 218, 219, 220, 221, 222, 223, 224, 225, 226, 227, 228, 229, 230, 231, 232, 233, 234, 235, 236, 237, 238, 239, 240, 241, 242, 243, 244, 245, 246, 247, 248, 249, 250, 251, 252, 253, 254, 255, 256, 257, 258, 259, 260, 261, 262, 263, 264, 265, 266, 267, 268, 269, 270, 271, 272, 273, 274, 275, 276, 277, 278, 279, 280, 281, 282, 283, 284, 285, 286, 287, 288, 289, 290, 291, 292, 293, 294, 295, 296, 297, 298, 299, 300, 301, 302, 303, 304, 305, 306, 307, 308, 309, 310, 311, 312, 313, 314, 315, 316, 317, 318, 319, 320, 321, 322, 323, 324, 325, 326, 327, 328, 329, 330, 331, 332, 333, 334, 335, 336, 337, 338, 339, 340, 341, 342, 343, 344, 345, 346, 347, 348, 349, 350, 351, 352, 353, 354, 355, 356, 357, 358, 359, 360, 361, 362, 363, 364, 365, 366, 367, 368, 369, 370, 371, 372, 373, 374, 375, 376, 377, 378, 379, 380, 381, 382, 383, 384, 385, 386, 387, 388, 389, 390, 391, 392, 393, 394, 395, 396, 397, 398, 399, 400, 401, 402, 403, 404, 405, 406, 407, 408, 409, 410, 411, 412, 413, 414, 415, 416, 417, 418, 419, 420, 421, 422, 423, 424, 425, 426, 427, 428, 429, 430, 431, 432, 433, 434, 435, 436, 437, 438, 439, 440, 441, 442, 443, 444, 445, 446, 447, 448, 449, 450, 451, 452, 453, 454, 455, 456, 457, 458, 459, 460, 461, 462, 463, 464, 465, 466, 467, 468, 469, 470, 471, 472, 473, 474, 475, 476, 477, 478, 479, 480, 481, 482, 483],
      "AcquisitionTime": ["141255.165000", "141256.655000", "141258.145000", "141259.635000", "141301.125000", "141302.615000", "141304.105000", "141305.595000", "141307.085000", "141308.575000", "141310.065000", "141311.555000", "141313.045000", "141314.535000", "141316.025000", "141317.515000", "141319.005000", "141320.495000", "141321.985000", "141323.475000", "141324.965000", "141326.455000", "141327.945000", "141329.435000", "141330.925000", "141332.415000", "141333.905000", "141335.395000", "141336.885000", "141338.375000", "141339.865000", "141341.355000", "141342.845000", "141344.335000", "141345.825000", "141347.315000", "141348.805000", "141350.295000", "141351.785000", "141353.275000", "141354.765000", "141356.255000", "141357.745000", "141359.235000", "141400.725000", "141402.215000", "141403.705000", "141405.195000", "141406.685000", "141408.175000", "141409.665000", "141411.155000", "141412.645000", "141414.135000", "141415.625000", "141417.115000", "141418.605000", "141420.095000", "141421.585000", "141423.075000", "141424.565000", "141426.055000", "141427.545000", "141429.035000", "141430.525000", "141432.015000", "141433.505000", "141434.995000", "141436.485000", "141437.975000", "141439.465000", "141440.955000", "141442.445000", "141443.935000", "141445.425000", "141446.915000", "141448.405000", "141449.895000", "141451.385000", "141452.875000", "141454.365000", "141455.855000", "141457.345000", "141458.835000", "141500.325000", "141501.815000", "141503.305000", "141504.795000", "141506.285000", "141507.775000", "141509.265000", "141510.755000", "141512.245000", "141513.735000", "141515.225000", "141516.715000", "141518.205000", "141519.695000", "141521.185000", "141522.675000", "141524.165000", "141525.655000", "141527.145000", "141528.635000", "141530.125000", "141531.615000", "141533.105000", "141534.595000", "141536.085000", "141537.575000", "141539.065000", "141540.555000", "141542.045000", "141543.535000", "141545.025000", "141546.515000", "141548.005000", "141549.495000", "141550.985000", "141552.475000", "141553.965000", "141555.455000", "141556.945000", "141558.435000", "141559.925000", "141601.415000", "141602.905000", "141604.395000", "141605.885000", "141607.375000", "141608.865000", "141610.355000", "141611.845000", "141613.335000", "141614.825000", "141616.315000", "141617.805000", "141619.295000", "141620.785000", "141622.275000", "141623.765000", "141625.255000", "141626.745000", "141628.235000", "141629.725000", "141631.215000", "141632.705000", "141634.195000", "141635.685000", "141637.175000", "141638.665000", "141640.155000", "141641.645000", "141643.135000", "141644.625000", "141646.115000", "141647.605000", "141649.095000", "141650.585000", "141652.075000", "141653.565000", "141655.055000", "141656.545000", "141658.035000", "141659.525000", "141701.015000", "141702.505000", "141703.995000", "141705.485000", "141706.975000", "141708.465000", "141709.955000", "141711.445000", "141712.935000", "141714.425000", "141715.915000", "141717.405000", "141718.895000", "141720.385000", "141721.875000", "141723.365000", "141724.855000", "141726.345000", "141727.835000", "141729.325000", "141730.815000", "141732.305000", "141733.795000", "141735.285000", "141736.775000", "141738.265000", "141739.755000", "141741.245000", "141742.735000", "141744.225000", "141745.715000", "141747.205000", "141748.695000", "141750.185000", "141751.675000", "141753.165000", "141754.655000", "141756.145000", "141757.635000", "141759.125000", "141800.615000", "141802.105000", "141803.595000", "141805.085000", "141806.575000", "141808.065000", "141809.555000", "141811.045000", "141812.535000", "141814.025000", "141815.515000", "141817.005000", "141818.495000", "141819.985000", "141821.475000", "141822.965000", "141824.455000", "141825.945000", "141827.435000", "141828.925000", "141830.415000", "141831.905000", "141833.395000", "141834.885000", "141836.375000", "141837.865000", "141839.355000", "141840.845000", "141842.335000", "141843.825000", "141845.315000", "141846.805000", "141848.295000", "141849.785000", "141851.275000", "141852.765000", "141854.255000", "141855.745000", "141857.235000", "141858.725000", "141900.215000", "141901.705000", "141903.195000", "141904.685000", "141906.175000", "141907.665000", "141909.155000", "141910.645000", "141912.135000", "141913.625000", "141915.115000", "141916.605000", "141918.095000", "141919.585000", "141921.075000", "141922.565000", "141924.055000", "141925.545000", "141927.035000", "141928.525000", "141930.015000", "141931.505000", "141932.995000", "141934.485000", "141935.975000", "141937.465000", "141938.955000", "141940.445000", "141941.935000", "141943.425000", "141944.915000", "141946.405000", "141947.895000", "141949.385000", "141950.875000", "141952.365000", "141953.855000", "141955.345000", "141956.835000", "141958.325000", "141959.815000", "142001.305000", "142002.795000", "142004.285000", "142005.775000", "142007.265000", "142008.755000", "142010.245000", "142011.735000", "142013.225000", "142014.715000", "142016.205000", "142017.695000", "142019.185000", "142020.675000", "142022.165000", "142023.655000", "142025.145000", "142026.635000", "142028.125000", "142029.615000", "142031.105000", "142032.595000", "142034.085000", "142035.575000", "142037.065000", "142038.555000", "142040.045000", "142041.535000", "142043.025000", "142044.515000", "142046.005000", "142047.495000", "142048.985000", "142050.475000", "142051.965000", "142053.455000", "142054.945000", "142056.435000", "142057.925000", "142059.415000", "142100.905000", "142102.395000", "142103.885000", "142105.375000", "142106.865000", "142108.355000", "142109.845000", "142111.335000", "142112.825000", "142114.315000", "142115.805000", "142117.295000", "142118.785000", "142120.275000", "142121.765000", "142123.255000", "142124.745000", "142126.235000", "142127.725000", "142129.215000", "142130.705000", "142132.195000", "142133.685000", "142135.175000", "142136.665000", "142138.155000", "142139.645000", "142141.135000", "142142.625000", "142144.115000", "142145.605000", "142147.095000", "142148.585000", "142150.075000", "142151.565000", "142153.055000", "142154.545000", "142156.035000", "142157.525000", "142159.015000", "142200.505000", "142201.995000", "142203.485000", "142204.975000", "142206.465000", "142207.955000", "142209.445000", "142210.935000", "142212.425000", "142213.915000", "142215.405000", "142216.895000", "142218.385000", "142219.875000", "142221.365000", "142222.855000", "142224.345000", "142225.835000", "142227.325000", "142228.815000", "142230.305000", "142231.795000", "142233.285000", "142234.775000", "142236.265000", "142237.755000", "142239.245000", "142240.735000", "142242.225000", "142243.715000", "142245.205000", "142246.695000", "142248.185000", "142249.675000", "142251.165000", "142252.655000", "142254.145000", "142255.635000", "142257.125000", "142258.615000", "142300.105000", "142301.595000", "142303.085000", "142304.575000", "142306.065000", "142307.555000", "142309.045000", "142310.535000", "142312.025000", "142313.515000", "142315.005000", "142316.495000", "142317.985000", "142319.475000", "142320.965000", "142322.455000", "142323.945000", "142325.435000", "142326.925000", "142328.415000", "142329.905000", "142331.395000", "142332.885000", "142334.375000", "142335.865000", "142337.355000", "142338.845000", "142340.335000", "142341.825000", "142343.315000", "142344.805000", "142346.295000", "142347.785000", "142349.275000", "142350.765000", "142352.255000", "142353.745000", "142355.235000", "142356.725000", "142358.215000", "142359.705000", "142401.195000", "142402.685000", "142404.175000", "142405.665000", "142407.155000", "142408.645000", "142410.135000", "142411.625000", "142413.115000", "142414.605000", "142416.095000", "142417.585000", "142419.075000", "142420.565000", "142422.055000", "142423.545000", "142425.035000", "142426.525000", "142428.015000", "142429.505000", "142430.995000", "142432.485000", "142433.975000", "142435.465000", "142436.955000", "142438.445000", "142439.935000", "142441.425000", "142442.915000", "142444.405000", "142445.895000", "142447.385000", "142448.875000", "142450.365000", "142451.855000", "142453.345000"],
      "ContentTime": ["141428.657000", "141428.661000", "141428.663000", "141428.666000", "141428.669000", "141428.672000", "141428.675000", "141428.680000", "141428.683000", "141428.686000", "141428.689000", "141428.692000", "141428.695000", "141428.697000", "141428.700000", "141428.703000", "141428.706000", "141428.709000", "141428.711000", "141428.714000", "141428.717000", "141428.720000", "141428.723000", "141428.726000", "141428.735000", "141428.738000", "141428.741000", "141428.744000", "141428.746000", "141428.749000", "141428.752000", "141428.755000", "141428.758000", "141428.761000", "141428.763000", "141428.766000", "141428.769000", "141428.772000", "141428.775000", "141448.618000", "141448.621000", "141448.632000", "141448.634000", "141448.637000", "141448.640000", "141448.643000", "141448.646000", "141448.648000", "141448.651000", "141448.654000", "141448.657000", "141448.660000", "141448.663000", "141448.666000", "141448.668000", "141448.671000", "141448.674000", "141448.677000", "141448.680000", "141508.618000", "141508.621000", "141508.623000", "141508.626000", "141508.629000", "141508.632000", "141508.635000", "141508.638000", "141508.640000", "141508.643000", "141508.646000", "141508.649000", "141508.652000", "141508.654000", "141508.657000", "141508.660000", "141508.663000", "141508.666000", "141508.668000", "141508.671000", "141528.618000", "141528.621000", "141528.624000", "141528.626000", "141528.629000", "141528.632000", "141528.635000", "141528.638000", "141528.640000", "141528.643000", "141528.646000", "141528.649000", "141528.652000", "141528.654000", "141528.657000", "141528.660000", "141528.663000", "141528.666000", "141528.668000", "141528.671000", "141528.674000", "141608.618000", "141608.621000", "141608.624000", "141608.627000", "141608.630000", "141608.633000", "141608.636000", "141608.639000", "141608.642000", "141608.645000", "141608.648000", "141608.650000", "141608.653000", "141608.656000", "141608.659000", "141608.662000", "141608.665000", "141608.668000", "141608.671000", "141608.674000", "141608.677000", "141608.680000", "141608.683000", "141608.686000", "141608.689000", "141608.692000", "141608.695000", "141608.697000", "141608.700000", "141648.619000", "141648.622000", "141648.625000", "141648.628000", "141648.631000", "141648.634000", "141648.636000", "141648.639000", "141648.642000", "141648.645000", "141648.648000", "141648.650000", "141648.653000", "141648.656000", "141648.659000", "141648.662000", "141648.664000", "141648.667000", "141648.670000", "141648.673000", "141648.676000", "141648.679000", "141648.681000", "141648.684000", "141648.687000", "141648.690000", "141728.618000", "141728.621000", "141728.624000", "141728.627000", "141728.629000", "141728.632000", "141728.635000", "141728.638000", "141728.641000", "141728.644000", "141728.646000", "141728.649000", "141728.652000", "141728.655000", "141728.658000", "141728.661000", "141728.663000", "141728.666000", "141728.669000", "141728.672000", "141728.675000", "141728.677000", "141728.680000", "141728.683000", "141728.686000", "141728.689000", "141728.692000", "141808.618000", "141808.621000", "141808.624000", "141808.627000", "141808.629000", "141808.632000", "141808.635000", "141808.638000", "141808.641000", "141808.644000", "141808.646000", "141808.649000", "141808.652000", "141808.655000", "141808.657000", "141808.660000", "141808.663000", "141808.666000", "141808.689000", "141808.692000", "141808.694000", "141808.697000", "141808.700000", "141808.703000", "141808.706000", "141808.709000", "141808.711000", "141848.618000", "141848.621000", "141848.624000", "141848.627000", "141848.629000", "141848.632000", "141848.635000", "141848.638000", "141848.641000", "141848.644000", "141848.646000", "141848.649000", "141848.652000", "141848.655000", "141848.658000", "141848.660000", "141848.663000", "141848.666000", "141848.669000", "141848.672000", "141848.675000", "141848.678000", "141848.680000", "141848.683000", "141848.686000", "141848.689000", "141848.692000", "141928.618000", "141928.621000", "141928.624000", "141928.627000", "141928.629000", "141928.632000", "141928.635000", "141928.638000", "141928.641000", "141928.644000", "141928.647000", "141928.649000", "141928.652000", "141928.655000", "141928.658000", "141928.661000", "141928.664000", "141928.666000", "141928.669000", "141928.672000", "141928.675000", "141928.678000", "141928.681000", "141928.683000", "141928.686000", "141928.689000", "141928.692000", "142008.618000", "142008.621000", "142008.624000", "142008.627000", "142008.629000", "142008.632000", "142008.635000", "142008.638000", "142008.641000", "142008.644000", "142008.646000", "142008.649000", "142008.652000", "142008.655000", "142008.658000", "142008.660000", "142008.663000", "142008.666000", "142008.669000", "142008.672000", "142008.675000", "142008.677000", "142008.680000", "142008.683000", "142008.686000", "142008.689000", "142008.691000", "142048.618000", "142048.621000", "142048.624000", "142048.627000", "142048.629000", "142048.632000", "142048.635000", "142048.638000", "142048.641000", "142048.644000", "142048.646000", "142048.649000", "142048.652000", "142048.655000", "142048.658000", "142048.660000", "142048.663000", "142048.666000", "142048.669000", "142048.672000", "142048.674000", "142048.677000", "142048.680000", "142048.683000", "142048.686000", "142048.689000", "142048.691000", "142128.619000", "142128.622000", "142128.625000", "142128.628000", "142128.631000", "142128.633000", "142128.636000", "142128.639000", "142128.642000", "142128.645000", "142128.648000", "142128.650000", "142128.653000", "142128.656000", "142128.659000", "142128.662000", "142128.665000", "142128.667000", "142128.670000", "142128.673000", "142128.676000", "142128.679000", "142128.683000", "142128.686000", "142128.689000", "142128.691000", "142208.618000", "142208.621000", "142208.624000", "142208.627000", "142208.629000", "142208.632000", "142208.635000", "142208.638000", "142208.641000", "142208.644000", "142208.647000", "142208.649000", "142208.652000", "142208.655000", "142208.658000", "142208.661000", "142208.664000", "142208.667000", "142208.669000", "142208.672000", "142208.675000", "142208.678000", "142208.681000", "142208.683000", "142208.686000", "142208.689000", "142208.692000", "142248.618000", "142248.621000", "142248.624000", "142248.626000", "142248.629000", "142248.632000", "142248.635000", "142248.638000", "142248.641000", "142248.644000", "142248.647000", "142248.649000", "142248.652000", "142248.655000", "142248.658000", "142248.661000", "142248.663000", "142248.666000", "142248.681000", "142248.684000", "142248.686000", "142248.689000", "142248.692000", "142248.695000", "142248.698000", "142248.701000", "142248.704000", "142328.618000", "142328.621000", "142328.624000", "142328.627000", "142328.629000", "142328.632000", "142328.635000", "142328.638000", "142328.641000", "142328.644000", "142328.647000", "142328.649000", "142328.652000", "142328.655000", "142328.658000", "142328.661000", "142328.664000", "142328.666000", "142328.669000", "142328.672000", "142328.675000", "142328.678000", "142328.681000", "142328.683000", "142328.686000", "142328.689000", "142328.692000", "142408.618000", "142408.621000", "142408.624000", "142408.627000", "142408.629000", "142408.632000", "142408.635000", "142408.638000", "142408.641000", "142408.644000", "142408.646000", "142408.649000", "142408.652000", "142408.655000", "142408.658000", "142408.660000", "142408.663000", "142408.666000", "142408.669000", "142408.672000", "142408.675000", "142408.677000", "142408.680000", "142408.683000", "142408.686000", "142408.689000", "142408.691000", "142448.618000", "142448.621000", "142448.624000", "142448.627000", "142448.630000", "142448.632000", "142448.635000", "142448.638000", "142448.641000", "142448.644000", "142448.647000", "142448.649000", "142448.652000", "142448.655000", "142448.658000", "142448.661000", "142448.664000", "142448.666000", "142448.669000", "142448.672000", "142448.675000", "142448.678000", "142448.681000", "142448.684000", "142448.686000", "142448.689000", "142448.692000", "142455.987000", "142455.990000", "142455.993000", "142455.996000", "142456.000000"],
