{
  "AcquisitionMatrixPE": 104,
  "AcquisitionNumber": 1,
  "AcquisitionTime": "13:28:46.072500",
  "BandwidthPerPixelPhaseEncode": 17.17,
  "BaseResolution": 104,
  "BodyPartExamined": "BRAIN",
  "CoilString": "HC1-7;NC1_2",
  "ConsistencyInfo": "N4_VE11C_LATEST_20160120",
  "ConversionSoftware": "dcm2niix",
  "ConversionSoftwareVersion": "v1.0.20190720  (JP2:OpenJPEG) GCC7.3.0",
  "DerivedVendorReportedEchoSpacing": 0.000560011,
  "DeviceSerialNumber": "167006",
  "DwellTime": 2.1e-06,
  "EchoTime": 0.037,
  "EchoTrainLength": 104,
  "EffectiveEchoSpacing": 0.000560011,
  "FlipAngle": 52,
  "ImageComments": "Unaliased_MB4_PE3_LB",
  "ImageOrientationPatientDICOM": [0.998002, -0.0610088, 0.0164037, 0.0626141, 0.920668, -0.385292],
  "ImageType": [
    "ORIGINAL",
    "PRIMARY",
    "M",
    "MB",
    "ND",
    "MOSAIC"
],
  "ImagingFrequency": 123.259,
  "InPlanePhaseEncodingDirectionDICOM": "COL",
  "InstitutionAddress": "Chemin_Queen-Mary_4565_Montreal_District_CA_H3W_1W5",
  "InstitutionName": "IUGM",
  "InstitutionalDepartmentName": "Department",
  "MRAcquisitionType": "2D",
  "MagneticFieldStrength": 3,
  "Manufacturer": "Siemens",
  "ManufacturersModelName": "Prisma_fit",
  "Modality": "MR",
  "MultibandAccelerationFactor": 4,
  "PartialFourier": 1,
  "PatientPosition": "HFS",
  "PercentPhaseFOV": 100,
  "PhaseEncodingDirection": "j",
  "PhaseEncodingSteps": 104,
  "PhaseResolution": 1,
  "PixelBandwidth": 2290,
  "ProcedureStepDescription": "video_friends",
  "ProtocolName": "func_task-friends-s01e15a",
  "PulseSequenceDetails": "%CustomerSeq%_cmrr_mbep2d_bold",
  "ReceiveCoilActiveElements": "HC1-7;NC1,2",
  "ReceiveCoilName": "HeadNeck_64",
  "ReconMatrixPE": 104,
  "RepetitionTime": 1.49,
  "SAR": 0.0269261,
  "ScanOptions": "FS",
  "ScanningSequence": "EP",
  "SequenceName": "epfid2d1_104",
  "SequenceVariant": "SK_SS",
  "SeriesDescription": "func_task-friends-s01e15a",
  "SeriesNumber": 9,
  "ShimSetting": [635, -7256, -8824, 592, 37, -219, -90, -6],
  "SliceThickness": 2,
  "SliceTiming": [0, 0.7825, 0.0975, 0.8825, 0.195, 0.98, 0.2925, 1.0775, 0.3925, 1.175, 0.49, 1.2725, 0.5875, 1.3725, 0.685, 0, 0.7825, 0.0975, 0.8825, 0.195, 0.98, 0.2925, 1.0775, 0.3925, 1.175, 0.49, 1.2725, 0.5875, 1.3725, 0.685, 0, 0.7825, 0.0975, 0.8825, 0.195, 0.98, 0.2925, 1.0775, 0.3925, 1.175, 0.49, 1.2725, 0.5875, 1.3725, 0.685, 0, 0.7825, 0.0975, 0.8825, 0.195, 0.98, 0.2925, 1.0775, 0.3925, 1.175, 0.49, 1.2725, 0.5875, 1.3725, 0.685],
  "SoftwareVersions": "syngo_MR_E11",
  "SpacingBetweenSlices": 2,
  "StationName": "MRC35049",
  "TaskName": "friends",
  "TotalReadoutTime": 0.0576811,
  "TxRefAmp": 217.362,
  "WipMemBlock": "4668616d-50aa-4f4a-8027-291ce9c78d3b||Sequence: R016 ve11c/master r/e634e98; Dec 19 2017 11:00:25 by eja",
  "dcmmeta_affine": [
    [-1.9960048198699951, 0.12522822618484497, -0.0168076753616333, 95.8895034790039],
    [0.12201754003763199, 1.8413358926773071, -0.7710991501808167, -76.16920471191406],
    [0.032807398587465286, 0.770584225654602, 1.8452976942062378, -68.419921875],
    [0.0, 0.0, 0.0, 1.0]
],
  "dcmmeta_reorient_transform": [
    [0.0, -1.0, 0.0, 103.0],
    [1.0, 0.0, 0.0, 0.0],
    [0.0, 0.0, 1.0, 0.0],
    [0.0, 0.0, 0.0, 1.0]
],
  "dcmmeta_shape": [104, 104, 60, 477],
  "dcmmeta_slice_dim": 2,
  "dcmmeta_version": 0.6,
  "global": {
    "const": {
      "AcquisitionMatrix": [104, 0, 0, 104],
      "AngioFlag": "N",
      "BitsAllocated": 16,
      "BitsStored": 16,
      "BodyPartExamined": "BRAIN",
      "Columns": 832,
      "EchoNumbers": 1,
      "EchoTime": 37.0,
      "EchoTrainLength": 104,
      "FlipAngle": 52.0,
      "HighBit": 15,
      "ImageOrientationPatient": [0.99800242912303, -0.0610087705841, 0.01640370008112, 0.06261411163836, 0.92066794029514, -0.3852921187053],
      "ImagePositionPatient": [-880.9168547119, -739.32026861609, 279.50102359405],
      "ImageType": [
        "ORIGINAL",
        "PRIMARY",
        "M",
        "MB",
        "ND",
        "MOSAIC"
],
      "ImagedNucleus": "1H",
      "ImagingFrequency": 123.259103,
      "InPlanePhaseEncodingDirection": "COL",
      "MRAcquisitionType": "2D",
      "MagneticFieldStrength": 3.0,
      "Manufacturer": "SIEMENS",
      "ManufacturerModelName": "Prisma_fit",
      "Modality": "MR",
      "NumberOfAverages": 1.0,
      "NumberOfPhaseEncodingSteps": 104,
      "PercentPhaseFieldOfView": 100.0,
      "PercentSampling": 100.0,
      "PerformedProcedureStepStartTime": "130734.901000",
      "PhotometricInterpretation": "MONOCHROME2",
      "PixelBandwidth": 2290.0,
      "PixelRepresentation": 0,
      "PixelSpacing": [2.0, 2.0],
      "ProtocolName": "func_task-friends-s01e15a",
      "RepetitionTime": 1490.0,
      "Rows": 832,
      "SAR": 0.02692612202403,
      "SamplesPerPixel": 1,
      "ScanOptions": "FS",
      "ScanningSequence": "EP",
      "SequenceName": "epfid2d1_104",
      "SequenceVariant": [
        "SK",
        "SS"
],
      "SeriesDescription": "func_task-friends-s01e15a",
      "SeriesNumber": 9,
      "SeriesTime": "132948.720000",
      "SliceLocation": -34.566398310141,
      "SliceThickness": 2.0,
      "SmallestImagePixelValue": 0,
      "SoftwareVersions": "syngo MR E11",
      "SpacingBetweenSlices": 2.0000000490977,
      "SpecificCharacterSet": "ISO_IR 100",
      "StudyID": "1",
      "StudyTime": "130734.810000",
      "TransmitCoilName": "Body",
      "VariableFlipAngleFlag": "N",
      "WindowCenterWidthExplanation": "Algo1",
      "dBdt": 0.0},
    "slices": {}
  },
  "time": {
    "samples": {
      "AcquisitionNumber": [1, 2, 3, 4, 5, 6, 7, 8, 9, 10, 11, 12, 13, 14, 15, 16, 17, 18, 19, 20, 21, 22, 23, 24, 25, 26, 27, 28, 29, 30, 31, 32, 33, 34, 35, 36, 37, 38, 39, 40, 41, 42, 43, 44, 45, 46, 47, 48, 49, 50, 51, 52, 53, 54, 55, 56, 57, 58, 59, 60, 61, 62, 63, 64, 65, 66, 67, 68, 69, 70, 71, 72, 73, 74, 75, 76, 77, 78, 79, 80, 81, 82, 83, 84, 85, 86, 87, 88, 89, 90, 91, 92, 93, 94, 95, 96, 97, 98, 99, 100, 101, 102, 103, 104, 105, 106, 107, 108, 109, 110, 111, 112, 113, 114, 115, 116, 117, 118, 119, 120, 121, 122, 123, 124, 125, 126, 127, 128, 129, 130, 131, 132, 133, 134, 135, 136, 137, 138, 139, 140, 141, 142, 143, 144, 145, 146, 147, 148, 149, 150, 151, 152, 153, 154, 155, 156, 157, 158, 159, 160, 161, 162, 163, 164, 165, 166, 167, 168, 169, 170, 171, 172, 173, 174, 175, 176, 177, 178, 179, 180, 181, 182, 183, 184, 185, 186, 187, 188, 189, 190, 191, 192, 193, 194, 195, 196, 197, 198, 199, 200, 201, 202, 203, 204, 205, 206, 207, 208, 209, 210, 211, 212, 213, 214, 215, 216, 217, 218, 219, 220, 221, 222, 223, 224, 225, 226, 227, 228, 229, 230, 231, 232, 233, 234, 235, 236, 237, 238, 239, 240, 241, 242, 243, 244, 245, 246, 247, 248, 249, 250, 251, 252, 253, 254, 255, 256, 257, 258, 259, 260, 261, 262, 263, 264, 265, 266, 267, 268, 269, 270, 271, 272, 273, 274, 275, 276, 277, 278, 279, 280, 281, 282, 283, 284, 285, 286, 287, 288, 289, 290, 291, 292, 293, 294, 295, 296, 297, 298, 299, 300, 301, 302, 303, 304, 305, 306, 307, 308, 309, 310, 311, 312, 313, 314, 315, 316, 317, 318, 319, 320, 321, 322, 323, 324, 325, 326, 327, 328, 329, 330, 331, 332, 333, 334, 335, 336, 337, 338, 339, 340, 341, 342, 343, 344, 345, 346, 347, 348, 349, 350, 351, 352, 353, 354, 355, 356, 357, 358, 359, 360, 361, 362, 363, 364, 365, 366, 367, 368, 369, 370, 371, 372, 373, 374, 375, 376, 377, 378, 379, 380, 381, 382, 383, 384, 385, 386, 387, 388, 389, 390, 391, 392, 393, 394, 395, 396, 397, 398, 399, 400, 401, 402, 403, 404, 405, 406, 407, 408, 409, 410, 411, 412, 413, 414, 415, 416, 417, 418, 419, 420, 421, 422, 423, 424, 425, 426, 427, 428, 429, 430, 431, 432, 433, 434, 435, 436, 437, 438, 439, 440, 441, 442, 443, 444, 445, 446, 447, 448, 449, 450, 451, 452, 453, 454, 455, 456, 457, 458, 459, 460, 461, 462, 463, 464, 465, 466, 467, 468, 469, 470, 471, 472, 473, 474, 475, 476, 477],
      "AcquisitionTime": ["132846.072500", "132847.562500", "132849.052500", "132850.542500", "132852.032500", "132853.522500", "132855.012500", "132856.502500", "132857.992500", "132859.482500", "132900.972500", "132902.462500", "132903.952500", "132905.442500", "132906.932500", "132908.422500", "132909.912500", "132911.402500", "132912.892500", "132914.382500", "132915.872500", "132917.362500", "132918.852500", "132920.342500", "132921.832500", "132923.322500", "132924.812500", "132926.302500", "132927.792500", "132929.282500", "132930.772500", "132932.262500", "132933.752500", "132935.242500", "132936.732500", "132938.222500", "132939.712500", "132941.202500", "132942.692500", "132944.182500", "132945.672500", "132947.162500", "132948.652500", "132950.142500", "132951.632500", "132953.122500", "132954.612500", "132956.102500", "132957.592500", "132959.082500", "133000.572500", "133002.062500", "133003.552500", "133005.042500", "133006.532500", "133008.022500", "133009.512500", "133011.002500", "133012.492500", "133013.982500", "133015.472500", "133016.962500", "133018.452500", "133019.942500", "133021.432500", "133022.922500", "133024.412500", "133025.902500", "133027.392500", "133028.882500", "133030.372500", "133031.862500", "133033.352500", "133034.842500", "133036.332500", "133037.822500", "133039.312500", "133040.802500", "133042.292500", "133043.782500", "133045.272500", "133046.762500", "133048.252500", "133049.742500", "133051.232500", "133052.722500", "133054.212500", "133055.702500", "133057.192500", "133058.682500", "133100.172500", "133101.662500", "133103.152500", "133104.642500", "133106.132500", "133107.622500", "133109.112500", "133110.602500", "133112.092500", "133113.582500", "133115.072500", "133116.562500", "133118.052500", "133119.542500", "133121.032500", "133122.522500", "133124.012500", "133125.502500", "133126.992500", "133128.482500", "133129.972500", "133131.462500", "133132.952500", "133134.442500", "133135.932500", "133137.422500", "133138.912500", "133140.402500", "133141.892500", "133143.382500", "133144.872500", "133146.362500", "133147.852500", "133149.342500", "133150.832500", "133152.322500", "133153.812500", "133155.302500", "133156.792500", "133158.282500", "133159.772500", "133201.262500", "133202.752500", "133204.242500", "133205.732500", "133207.222500", "133208.712500", "133210.202500", "133211.692500", "133213.182500", "133214.672500", "133216.162500", "133217.652500", "133219.142500", "133220.632500", "133222.122500", "133223.612500", "133225.102500", "133226.592500", "133228.082500", "133229.572500", "133231.062500", "133232.552500", "133234.042500", "133235.532500", "133237.022500", "133238.512500", "133240.002500", "133241.492500", "133242.982500", "133244.472500", "133245.962500", "133247.452500", "133248.942500", "133250.432500", "133251.922500", "133253.412500", "133254.902500", "133256.392500", "133257.882500", "133259.372500", "133300.862500", "133302.352500", "133303.842500", "133305.332500", "133306.822500", "133308.312500", "133309.802500", "133311.292500", "133312.782500", "133314.272500", "133315.762500", "133317.252500", "133318.742500", "133320.232500", "133321.722500", "133323.212500", "133324.702500", "133326.192500", "133327.682500", "133329.172500", "133330.662500", "133332.152500", "133333.642500", "133335.132500", "133336.622500", "133338.112500", "133339.602500", "133341.092500", "133342.582500", "133344.072500", "133345.562500", "133347.052500", "133348.542500", "133350.032500", "133351.522500", "133353.012500", "133354.502500", "133355.992500", "133357.482500", "133358.972500", "133400.462500", "133401.952500", "133403.442500", "133404.932500", "133406.422500", "133407.912500", "133409.402500", "133410.892500", "133412.382500", "133413.872500", "133415.362500", "133416.852500", "133418.342500", "133419.832500", "133421.322500", "133422.812500", "133424.302500", "133425.792500", "133427.282500", "133428.772500", "133430.262500", "133431.752500", "133433.242500", "133434.732500", "133436.222500", "133437.712500", "133439.202500", "133440.692500", "133442.182500", "133443.672500", "133445.162500", "133446.652500", "133448.142500", "133449.632500", "133451.122500", "133452.612500", "133454.102500", "133455.592500", "133457.082500", "133458.572500", "133500.062500", "133501.552500", "133503.042500", "133504.532500", "133506.022500", "133507.512500", "133509.002500", "133510.492500", "133511.982500", "133513.472500", "133514.962500", "133516.452500", "133517.942500", "133519.432500", "133520.922500", "133522.412500", "133523.902500", "133525.392500", "133526.882500", "133528.372500", "133529.862500", "133531.352500", "133532.842500", "133534.332500", "133535.822500", "133537.312500", "133538.802500", "133540.292500", "133541.782500", "133543.272500", "133544.762500", "133546.252500", "133547.742500", "133549.232500", "133550.722500", "133552.212500", "133553.702500", "133555.192500", "133556.682500", "133558.172500", "133559.662500", "133601.152500", "133602.642500", "133604.132500", "133605.622500", "133607.112500", "133608.602500", "133610.092500", "133611.582500", "133613.072500", "133614.562500", "133616.052500", "133617.542500", "133619.032500", "133620.522500", "133622.012500", "133623.502500", "133624.992500", "133626.482500", "133627.972500", "133629.462500", "133630.952500", "133632.442500", "133633.932500", "133635.422500", "133636.912500", "133638.402500", "133639.892500", "133641.382500", "133642.872500", "133644.362500", "133645.852500", "133647.342500", "133648.832500", "133650.322500", "133651.812500", "133653.302500", "133654.792500", "133656.282500", "133657.772500", "133659.262500", "133700.752500", "133702.242500", "133703.732500", "133705.222500", "133706.712500", "133708.202500", "133709.692500", "133711.182500", "133712.672500", "133714.162500", "133715.652500", "133717.142500", "133718.632500", "133720.122500", "133721.612500", "133723.102500", "133724.592500", "133726.082500", "133727.572500", "133729.062500", "133730.552500", "133732.042500", "133733.532500", "133735.022500", "133736.512500", "133738.002500", "133739.492500", "133740.982500", "133742.472500", "133743.962500", "133745.452500", "133746.942500", "133748.432500", "133749.922500", "133751.412500", "133752.902500", "133754.392500", "133755.882500", "133757.372500", "133758.862500", "133800.352500", "133801.842500", "133803.332500", "133804.822500", "133806.312500", "133807.802500", "133809.292500", "133810.782500", "133812.272500", "133813.762500", "133815.252500", "133816.742500", "133818.232500", "133819.722500", "133821.212500", "133822.702500", "133824.192500", "133825.682500", "133827.172500", "133828.662500", "133830.152500", "133831.642500", "133833.132500", "133834.622500", "133836.112500", "133837.602500", "133839.092500", "133840.582500", "133842.072500", "133843.562500", "133845.052500", "133846.542500", "133848.032500", "133849.522500", "133851.012500", "133852.502500", "133853.992500", "133855.482500", "133856.972500", "133858.462500", "133859.952500", "133901.442500", "133902.932500", "133904.422500", "133905.912500", "133907.402500", "133908.892500", "133910.382500", "133911.872500", "133913.362500", "133914.852500", "133916.342500", "133917.832500", "133919.322500", "133920.812500", "133922.302500", "133923.792500", "133925.282500", "133926.772500", "133928.262500", "133929.752500", "133931.242500", "133932.732500", "133934.222500", "133935.712500", "133937.202500", "133938.692500", "133940.182500", "133941.672500", "133943.162500", "133944.652500", "133946.142500", "133947.632500", "133949.122500", "133950.612500", "133952.102500", "133953.592500", "133955.082500", "133956.572500", "133958.062500", "133959.552500", "134001.042500", "134002.532500", "134004.022500", "134005.512500", "134007.002500", "134008.492500", "134009.982500", "134011.472500", "134012.962500", "134014.452500", "134015.942500", "134017.432500", "134018.922500", "134020.412500", "134021.902500", "134023.392500", "134024.882500", "134026.372500", "134027.862500", "134029.352500", "134030.842500", "134032.332500", "134033.822500", "134035.312500"],
      "ContentTime": ["132948.723000", "132948.726000", "132948.729000", "132948.743000", "132948.745000", "132948.748000", "132948.757000", "132948.760000", "132948.762000", "133008.688000", "133008.691000", "133008.694000", "133008.697000", "133008.700000", "133008.702000", "133008.712000", "133008.714000", "133008.717000", "133008.720000", "133008.723000", "133008.726000", "133008.729000", "133008.732000", "133008.734000", "133008.737000", "133008.740000", "133008.743000", "133008.746000", "133008.749000", "133028.689000", "133028.692000", "133028.699000", "133028.702000", "133028.705000", "133028.708000", "133028.710000", "133028.713000", "133028.716000", "133028.719000", "133028.722000", "133028.725000", "133028.728000", "133028.730000", "133028.733000", "133028.736000", "133028.739000", "133028.742000", "133028.745000", "133028.747000", "133048.688000", "133048.691000", "133048.694000", "133048.697000", "133048.699000", "133048.702000", "133048.705000", "133048.711000", "133048.714000", "133048.717000", "133048.719000", "133048.722000", "133048.725000", "133048.728000", "133048.731000", "133048.734000", "133048.736000", "133048.739000", "133048.742000", "133048.745000", "133108.688000", "133108.691000", "133108.694000", "133108.696000", "133108.699000", "133108.702000", "133108.705000", "133108.708000", "133108.710000", "133108.713000", "133108.716000", "133108.719000", "133108.722000", "133108.724000", "133108.727000", "133108.730000", "133108.733000", "133108.736000", "133108.744000", "133108.747000", "133148.688000", "133148.691000", "133148.694000", "133148.697000", "133148.700000", "133148.703000", "133148.705000", "133148.708000", "133148.711000", "133148.714000", "133148.717000", "133148.720000", "133148.722000", "133148.725000", "133148.728000", "133148.731000", "133148.734000", "133148.737000", "133148.740000", "133148.742000", "133148.745000", "133148.748000", "133148.751000", "133148.754000", "133148.757000", "133148.760000", "133148.763000", "133148.765000", "133148.768000", "133148.771000", "133148.774000", "133148.777000", "133148.780000", "133228.688000", "133228.691000", "133228.694000", "133228.696000", "133228.707000", "133228.710000", "133228.713000", "133228.716000", "133228.719000", "133228.722000", "133228.725000", "133228.727000", "133228.730000", "133228.733000", "133228.736000", "133228.739000", "133228.742000", "133228.745000", "133228.747000", "133228.750000", "133228.753000", "133228.756000", "133228.759000", "133228.762000", "133228.765000", "133228.768000", "133228.771000", "133308.688000", "133308.691000", "133308.694000", "133308.696000", "133308.699000", "133308.702000", "133308.705000", "133308.708000", "133308.711000", "133308.714000", "133308.716000", "133308.719000", "133308.722000", "133308.725000", "133308.728000", "133308.731000", "133308.733000", "133308.736000", "133308.739000", "133308.742000", "133308.758000", "133308.761000", "133308.764000", "133308.768000", "133308.771000", "133308.774000", "133348.688000", "133348.691000", "133348.694000", "133348.696000", "133348.699000", "133348.702000", "133348.705000", "133348.708000", "133348.711000", "133348.714000", "133348.717000", "133348.720000", "133348.722000", "133348.725000", "133348.728000", "133348.731000", "133348.734000", "133348.737000", "133348.740000", "133348.743000", "133348.745000", "133348.748000", "133348.751000", "133348.754000", "133348.757000", "133348.760000", "133348.763000", "133428.688000", "133428.691000", "133428.694000", "133428.697000", "133428.700000", "133428.703000", "133428.706000", "133428.708000", "133428.711000", "133428.714000", "133428.717000", "133428.720000", "133428.723000", "133428.726000", "133428.728000", "133428.731000", "133428.734000", "133428.737000", "133428.740000", "133428.751000", "133428.754000", "133428.757000", "133428.759000", "133428.762000", "133428.765000", "133428.768000", "133428.771000", "133508.689000", "133508.692000", "133508.695000", "133508.698000", "133508.701000", "133508.704000", "133508.706000", "133508.709000", "133508.712000", "133508.715000", "133508.718000", "133508.720000", "133508.724000", "133508.726000", "133508.729000", "133508.732000", "133508.735000", "133508.738000", "133508.741000", "133508.744000", "133508.758000", "133508.761000", "133508.764000", "133508.766000", "133508.769000", "133508.772000", "133508.775000", "133548.688000", "133548.691000", "133548.694000", "133548.697000", "133548.700000", "133548.703000", "133548.706000", "133548.709000", "133548.711000", "133548.714000", "133548.717000", "133548.720000", "133548.723000", "133548.726000", "133548.728000", "133548.731000", "133548.734000", "133548.737000", "133548.740000", "133548.743000", "133548.746000", "133548.749000", "133548.751000", "133548.754000", "133548.757000", "133548.760000", "133548.763000", "133628.688000", "133628.691000", "133628.694000", "133628.697000", "133628.700000", "133628.702000", "133628.705000", "133628.708000", "133628.714000", "133628.717000", "133628.720000", "133628.723000", "133628.726000", "133628.729000", "133628.731000", "133628.734000", "133628.737000", "133628.740000", "133628.743000", "133628.746000", "133628.749000", "133628.752000", "133628.755000", "133628.757000", "133628.760000", "133628.763000", "133628.766000", "133708.688000", "133708.691000", "133708.694000", "133708.697000", "133708.700000", "133708.702000", "133708.705000", "133708.708000", "133708.711000", "133708.714000", "133708.717000", "133708.720000", "133708.723000", "133708.726000", "133708.729000", "133708.732000", "133708.734000", "133708.737000", "133708.740000", "133708.743000", "133708.752000", "133708.755000", "133708.758000", "133708.761000", "133708.764000", "133708.767000", "133748.688000", "133748.691000", "133748.694000", "133748.697000", "133748.700000", "133748.702000", "133748.705000", "133748.708000", "133748.711000", "133748.714000", "133748.717000", "133748.719000", "133748.722000", "133748.725000", "133748.728000", "133748.731000", "133748.744000", "133748.747000", "133748.750000", "133748.753000", "133748.756000", "133748.758000", "133748.761000", "133748.764000", "133748.767000", "133748.828000", "133748.831000", "133828.688000", "133828.691000", "133828.694000", "133828.697000", "133828.700000", "133828.703000", "133828.706000", "133828.708000", "133828.712000", "133828.714000", "133828.717000", "133828.720000", "133828.723000", "133828.726000", "133828.729000", "133828.732000", "133828.735000", "133828.738000", "133828.740000", "133828.743000", "133828.746000", "133828.749000", "133828.752000", "133828.755000", "133828.758000", "133828.761000", "133828.764000", "133908.688000", "133908.691000", "133908.694000", "133908.697000", "133908.700000", "133908.703000", "133908.705000", "133908.708000", "133908.711000", "133908.714000", "133908.717000", "133908.720000", "133908.723000", "133908.726000", "133908.728000", "133908.732000", "133908.734000", "133908.737000", "133908.740000", "133908.743000", "133908.746000", "133908.749000", "133908.752000", "133908.754000", "133908.757000", "133908.760000", "133908.763000", "133948.689000", "133948.692000", "133948.695000", "133948.698000", "133948.701000", "133948.704000", "133948.707000", "133948.709000", "133948.712000", "133948.715000", "133948.718000", "133948.721000", "133948.724000", "133948.727000", "133948.730000", "133948.733000", "133948.736000", "133948.738000", "133948.742000", "133948.744000", "133948.747000", "133948.750000", "133948.753000", "133948.756000", "133948.759000", "133948.761000", "133948.764000", "134028.688000", "134028.691000", "134028.694000", "134028.697000", "134028.700000", "134028.703000", "134028.706000", "134028.708000", "134028.711000", "134028.714000", "134028.717000", "134028.720000", "134028.723000", "134028.726000", "134028.728000", "134028.731000", "134028.734000", "134028.737000", "134028.740000", "134028.748000", "134028.751000", "134028.754000", "134028.757000", "134028.759000", "134028.762000", "134028.765000", "134028.768000", "134037.418000", "134037.422000", "134037.425000", "134037.427000", "134037.430000", "134037.433000"],
