{
  "AcquisitionMatrixPE": 104,
  "AcquisitionNumber": 1,
  "AcquisitionTime": "15:27:58.962500",
  "BandwidthPerPixelPhaseEncode": 17.17,
  "BaseResolution": 104,
  "BodyPartExamined": "BRAIN",
  "CoilString": "HC1-7;NC1_2",
  "ConsistencyInfo": "N4_VE11C_LATEST_20160120",
  "ConversionSoftware": "dcm2niix",
  "ConversionSoftwareVersion": "v1.0.20190720  (JP2:OpenJPEG) GCC7.3.0",
  "DerivedVendorReportedEchoSpacing": 0.000560011,
  "DeviceSerialNumber": "167006",
  "DwellTime": 2.1e-06,
  "EchoTime": 0.037,
  "EchoTrainLength": 104,
  "EffectiveEchoSpacing": 0.000560011,
  "FlipAngle": 52,
  "ImageComments": "Unaliased_MB4_PE3_LB",
  "ImageOrientationPatientDICOM": [0.99847, -0.0487714, 0.0260704, 0.0551239, 0.915533, -0.398449],
  "ImageType": [
    "ORIGINAL",
    "PRIMARY",
    "M",
    "MB",
    "ND",
    "MOSAIC"
],
  "ImagingFrequency": 123.259,
  "InPlanePhaseEncodingDirectionDICOM": "COL",
  "InstitutionAddress": "Chemin_Queen-Mary_4565_Montreal_District_CA_H3W_1W5",
  "InstitutionName": "IUGM",
  "InstitutionalDepartmentName": "Department",
  "MRAcquisitionType": "2D",
  "MagneticFieldStrength": 3,
  "Manufacturer": "Siemens",
  "ManufacturersModelName": "Prisma_fit",
  "Modality": "MR",
  "MultibandAccelerationFactor": 4,
  "PartialFourier": 1,
  "PatientPosition": "HFS",
  "PercentPhaseFOV": 100,
  "PhaseEncodingDirection": "j",
  "PhaseEncodingSteps": 104,
  "PhaseResolution": 1,
  "PixelBandwidth": 2290,
  "ProcedureStepDescription": "video_friends",
  "ProtocolName": "func_task-friends-s01e17b",
  "PulseSequenceDetails": "%CustomerSeq%_cmrr_mbep2d_bold",
  "ReceiveCoilActiveElements": "HC1-7;NC1,2",
  "ReceiveCoilName": "HeadNeck_64",
  "ReconMatrixPE": 104,
  "RepetitionTime": 1.49,
  "SAR": 0.0289028,
  "ScanOptions": "FS",
  "ScanningSequence": "EP",
  "SequenceName": "epfid2d1_104",
  "SequenceVariant": "SK_SS",
  "SeriesDescription": "func_task-friends-s01e17b",
  "SeriesNumber": 33,
  "ShimSetting": [637, -7250, -8893, 589, 55, -277, -139, -1],
  "SliceThickness": 2,
  "SliceTiming": [0, 0.7825, 0.0975, 0.88, 0.195, 0.98, 0.2925, 1.0775, 0.39, 1.175, 0.49, 1.2725, 0.5875, 1.37, 0.685, 0, 0.7825, 0.0975, 0.88, 0.195, 0.98, 0.2925, 1.0775, 0.39, 1.175, 0.49, 1.2725, 0.5875, 1.37, 0.685, 0, 0.7825, 0.0975, 0.88, 0.195, 0.98, 0.2925, 1.0775, 0.39, 1.175, 0.49, 1.2725, 0.5875, 1.37, 0.685, 0, 0.7825, 0.0975, 0.88, 0.195, 0.98, 0.2925, 1.0775, 0.39, 1.175, 0.49, 1.2725, 0.5875, 1.37, 0.685],
  "SoftwareVersions": "syngo_MR_E11",
  "SpacingBetweenSlices": 2,
  "StationName": "MRC35049",
  "TaskName": "friends",
  "TotalReadoutTime": 0.0576811,
  "TxRefAmp": 226.697,
  "WipMemBlock": "eaa4fe1d-744d-418a-a551-2616bad19cdf||Sequence: R016 ve11c/master r/e634e98; Dec 19 2017 11:00:25 by eja",
  "dcmmeta_affine": [
    [-1.9969393014907837, 0.11024785786867142, 0.008870836347341537, 96.38423919677734],
    [0.09754286706447601, 1.8310651779174805, -0.798552393913269, -73.9113540649414],
    [0.05214088782668114, 0.7968977093696594, 1.8336398601531982, -91.31690979003906],
    [0.0, 0.0, 0.0, 1.0]
],
  "dcmmeta_reorient_transform": [
    [0.0, -1.0, 0.0, 103.0],
    [1.0, 0.0, 0.0, 0.0],
    [0.0, 0.0, 1.0, 0.0],
    [0.0, 0.0, 0.0, 1.0]
],
  "dcmmeta_shape": [104, 104, 60, 483],
  "dcmmeta_slice_dim": 2,
  "dcmmeta_version": 0.6,
  "global": {
    "const": {
      "AcquisitionMatrix": [104, 0, 0, 104],
      "AngioFlag": "N",
      "BitsAllocated": 16,
      "BitsStored": 16,
      "BodyPartExamined": "BRAIN",
      "Columns": 832,
      "EchoNumbers": 1,
      "EchoTime": 37.0,
      "EchoTrainLength": 104,
      "FlipAngle": 52.0,
      "HighBit": 15,
      "ImageOrientationPatient": [0.99846966870296, -0.0487714330174, 0.02607044306542, 0.05512393078712, 0.91553256000167, -0.3984488471954],
      "ImagePositionPatient": [-874.75590804372, -745.69045418415, 261.85502989852],
      "ImageType": [
        "ORIGINAL",
        "PRIMARY",
        "M",
        "MB",
        "ND",
        "MOSAIC"
],
      "ImagedNucleus": "1H",
      "ImagingFrequency": 123.259175,
      "InPlanePhaseEncodingDirection": "COL",
      "MRAcquisitionType": "2D",
      "MagneticFieldStrength": 3.0,
      "Manufacturer": "SIEMENS",
      "ManufacturerModelName": "Prisma_fit",
      "Modality": "MR",
      "NumberOfAverages": 1.0,
      "NumberOfPhaseEncodingSteps": 104,
      "PercentPhaseFieldOfView": 100.0,
      "PercentSampling": 100.0,
      "PerformedProcedureStepStartTime": "130734.901000",
      "PhotometricInterpretation": "MONOCHROME2",
      "PixelBandwidth": 2290.0,
      "PixelRepresentation": 0,
      "PixelSpacing": [2.0, 2.0],
      "ProtocolName": "func_task-friends-s01e17b",
      "RepetitionTime": 1490.0,
      "Rows": 832,
      "SAR": 0.02890282223237,
      "SamplesPerPixel": 1,
      "ScanOptions": "FS",
      "ScanningSequence": "EP",
      "SequenceName": "epfid2d1_104",
      "SequenceVariant": [
        "SK",
        "SS"
],
      "SeriesDescription": "func_task-friends-s01e17b",
      "SeriesNumber": 33,
      "SeriesTime": "152919.051000",
      "SliceLocation": -53.782618635176,
      "SliceThickness": 2.0,
      "SmallestImagePixelValue": 0,
      "SoftwareVersions": "syngo MR E11",
      "SpacingBetweenSlices": 1.9999999668573,
      "SpecificCharacterSet": "ISO_IR 100",
      "StudyID": "1",
      "StudyTime": "130734.810000",
      "TransmitCoilName": "Body",
      "VariableFlipAngleFlag": "N",
      "WindowCenterWidthExplanation": "Algo1",
      "dBdt": 0.0},
    "slices": {}
  },
  "time": {
    "samples": {
      "AcquisitionNumber": [1, 2, 3, 4, 5, 6, 7, 8, 9, 10, 11, 12, 13, 14, 15, 16, 17, 18, 19, 20, 21, 22, 23, 24, 25, 26, 27, 28, 29, 30, 31, 32, 33, 34, 35, 36, 37, 38, 39, 40, 41, 42, 43, 44, 45, 46, 47, 48, 49, 50, 51, 52, 53, 54, 55, 56, 57, 58, 59, 60, 61, 62, 63, 64, 65, 66, 67, 68, 69, 70, 71, 72, 73, 74, 75, 76, 77, 78, 79, 80, 81, 82, 83, 84, 85, 86, 87, 88, 89, 90, 91, 92, 93, 94, 95, 96, 97, 98, 99, 100, 101, 102, 103, 104, 105, 106, 107, 108, 109, 110, 111, 112, 113, 114, 115, 116, 117, 118, 119, 120, 121, 122, 123, 124, 125, 126, 127, 128, 129, 130, 131, 132, 133, 134, 135, 136, 137, 138, 139, 140, 141, 142, 143, 144, 145, 146, 147, 148, 149, 150, 151, 152, 153, 154, 155, 156, 157, 158, 159, 160, 161, 162, 163, 164, 165, 166, 167, 168, 169, 170, 171, 172, 173, 174, 175, 176, 177, 178, 179, 180, 181, 182, 183, 184, 185, 186, 187, 188, 189, 190, 191, 192, 193, 194, 195, 196, 197, 198, 199, 200, 201, 202, 203, 204, 205, 206, 207, 208, 209, 210, 211, 212, 213, 214, 215, 216, 217, 218, 219, 220, 221, 222, 223, 224, 225, 226, 227, 228, 229, 230, 231, 232, 233, 234, 235, 236, 237, 238, 239, 240, 241, 242, 243, 244, 245, 246, 247, 248, 249, 250, 251, 252, 253, 254, 255, 256, 257, 258, 259, 260, 261, 262, 263, 264, 265, 266, 267, 268, 269, 270, 271, 272, 273, 274, 275, 276, 277, 278, 279, 280, 281, 282, 283, 284, 285, 286, 287, 288, 289, 290, 291, 292, 293, 294, 295, 296, 297, 298, 299, 300, 301, 302, 303, 304, 305, 306, 307, 308, 309, 310, 311, 312, 313, 314, 315, 316, 317, 318, 319, 320, 321, 322, 323, 324, 325, 326, 327, 328, 329, 330, 331, 332, 333, 334, 335, 336, 337, 338, 339, 340, 341, 342, 343, 344, 345, 346, 347, 348, 349, 350, 351, 352, 353, 354, 355, 356, 357, 358, 359, 360, 361, 362, 363, 364, 365, 366, 367, 368, 369, 370, 371, 372, 373, 374, 375, 376, 377, 378, 379, 380, 381, 382, 383, 384, 385, 386, 387, 388, 389, 390, 391, 392, 393, 394, 395, 396, 397, 398, 399, 400, 401, 402, 403, 404, 405, 406, 407, 408, 409, 410, 411, 412, 413, 414, 415, 416, 417, 418, 419, 420, 421, 422, 423, 424, 425, 426, 427, 428, 429, 430, 431, 432, 433, 434, 435, 436, 437, 438, 439, 440, 441, 442, 443, 444, 445, 446, 447, 448, 449, 450, 451, 452, 453, 454, 455, 456, 457, 458, 459, 460, 461, 462, 463, 464, 465, 466, 467, 468, 469, 470, 471, 472, 473, 474, 475, 476, 477, 478, 479, 480, 481, 482, 483],
      "AcquisitionTime": ["152758.962500", "152800.452500", "152801.942500", "152803.432500", "152804.922500", "152806.412500", "152807.902500", "152809.392500", "152810.882500", "152812.372500", "152813.862500", "152815.352500", "152816.842500", "152818.332500", "152819.822500", "152821.312500", "152822.802500", "152824.292500", "152825.782500", "152827.272500", "152828.762500", "152830.252500", "152831.742500", "152833.232500", "152834.722500", "152836.212500", "152837.702500", "152839.192500", "152840.682500", "152842.172500", "152843.662500", "152845.152500", "152846.642500", "152848.132500", "152849.622500", "152851.112500", "152852.602500", "152854.092500", "152855.582500", "152857.072500", "152858.562500", "152900.052500", "152901.542500", "152903.032500", "152904.522500", "152906.012500", "152907.502500", "152908.992500", "152910.482500", "152911.972500", "152913.462500", "152914.952500", "152916.442500", "152917.932500", "152919.422500", "152920.912500", "152922.402500", "152923.892500", "152925.382500", "152926.872500", "152928.362500", "152929.852500", "152931.342500", "152932.832500", "152934.322500", "152935.812500", "152937.302500", "152938.792500", "152940.282500", "152941.772500", "152943.262500", "152944.752500", "152946.242500", "152947.732500", "152949.222500", "152950.712500", "152952.202500", "152953.692500", "152955.182500", "152956.672500", "152958.162500", "152959.652500", "153001.142500", "153002.632500", "153004.122500", "153005.612500", "153007.102500", "153008.592500", "153010.082500", "153011.572500", "153013.062500", "153014.552500", "153016.042500", "153017.532500", "153019.022500", "153020.512500", "153022.002500", "153023.492500", "153024.982500", "153026.472500", "153027.962500", "153029.452500", "153030.942500", "153032.432500", "153033.922500", "153035.412500", "153036.902500", "153038.392500", "153039.882500", "153041.372500", "153042.862500", "153044.352500", "153045.842500", "153047.332500", "153048.822500", "153050.312500", "153051.802500", "153053.292500", "153054.782500", "153056.272500", "153057.762500", "153059.252500", "153100.742500", "153102.232500", "153103.722500", "153105.212500", "153106.702500", "153108.192500", "153109.682500", "153111.172500", "153112.662500", "153114.152500", "153115.642500", "153117.132500", "153118.622500", "153120.112500", "153121.602500", "153123.092500", "153124.582500", "153126.072500", "153127.562500", "153129.052500", "153130.542500", "153132.032500", "153133.522500", "153135.012500", "153136.502500", "153137.992500", "153139.482500", "153140.972500", "153142.462500", "153143.952500", "153145.442500", "153146.932500", "153148.422500", "153149.912500", "153151.402500", "153152.892500", "153154.382500", "153155.872500", "153157.362500", "153158.852500", "153200.342500", "153201.832500", "153203.322500", "153204.812500", "153206.302500", "153207.792500", "153209.282500", "153210.772500", "153212.262500", "153213.752500", "153215.242500", "153216.732500", "153218.222500", "153219.712500", "153221.202500", "153222.692500", "153224.182500", "153225.672500", "153227.162500", "153228.652500", "153230.142500", "153231.632500", "153233.122500", "153234.612500", "153236.102500", "153237.592500", "153239.082500", "153240.572500", "153242.062500", "153243.552500", "153245.042500", "153246.532500", "153248.022500", "153249.512500", "153251.002500", "153252.492500", "153253.982500", "153255.472500", "153256.962500", "153258.452500", "153259.942500", "153301.432500", "153302.922500", "153304.412500", "153305.902500", "153307.392500", "153308.882500", "153310.372500", "153311.862500", "153313.352500", "153314.842500", "153316.332500", "153317.822500", "153319.312500", "153320.802500", "153322.292500", "153323.782500", "153325.272500", "153326.762500", "153328.252500", "153329.742500", "153331.232500", "153332.722500", "153334.212500", "153335.702500", "153337.192500", "153338.682500", "153340.172500", "153341.662500", "153343.152500", "153344.642500", "153346.132500", "153347.622500", "153349.112500", "153350.602500", "153352.092500", "153353.582500", "153355.072500", "153356.562500", "153358.052500", "153359.542500", "153401.032500", "153402.522500", "153404.012500", "153405.502500", "153406.992500", "153408.482500", "153409.972500", "153411.462500", "153412.952500", "153414.442500", "153415.932500", "153417.422500", "153418.912500", "153420.402500", "153421.892500", "153423.382500", "153424.872500", "153426.362500", "153427.852500", "153429.342500", "153430.832500", "153432.322500", "153433.812500", "153435.302500", "153436.792500", "153438.282500", "153439.772500", "153441.262500", "153442.752500", "153444.242500", "153445.732500", "153447.222500", "153448.712500", "153450.202500", "153451.692500", "153453.182500", "153454.672500", "153456.162500", "153457.652500", "153459.142500", "153500.632500", "153502.122500", "153503.612500", "153505.102500", "153506.592500", "153508.082500", "153509.572500", "153511.062500", "153512.552500", "153514.042500", "153515.532500", "153517.022500", "153518.512500", "153520.002500", "153521.492500", "153522.982500", "153524.472500", "153525.962500", "153527.452500", "153528.942500", "153530.432500", "153531.922500", "153533.412500", "153534.902500", "153536.392500", "153537.882500", "153539.372500", "153540.862500", "153542.352500", "153543.842500", "153545.332500", "153546.822500", "153548.312500", "153549.802500", "153551.292500", "153552.782500", "153554.272500", "153555.762500", "153557.252500", "153558.742500", "153600.232500", "153601.722500", "153603.212500", "153604.702500", "153606.192500", "153607.682500", "153609.172500", "153610.662500", "153612.152500", "153613.642500", "153615.132500", "153616.622500", "153618.112500", "153619.602500", "153621.092500", "153622.582500", "153624.072500", "153625.562500", "153627.052500", "153628.542500", "153630.032500", "153631.522500", "153633.012500", "153634.502500", "153635.992500", "153637.482500", "153638.972500", "153640.462500", "153641.952500", "153643.442500", "153644.932500", "153646.422500", "153647.912500", "153649.402500", "153650.892500", "153652.382500", "153653.872500", "153655.362500", "153656.852500", "153658.342500", "153659.832500", "153701.322500", "153702.812500", "153704.302500", "153705.792500", "153707.282500", "153708.772500", "153710.262500", "153711.752500", "153713.242500", "153714.732500", "153716.222500", "153717.712500", "153719.202500", "153720.692500", "153722.182500", "153723.672500", "153725.162500", "153726.652500", "153728.142500", "153729.632500", "153731.122500", "153732.612500", "153734.102500", "153735.592500", "153737.082500", "153738.572500", "153740.062500", "153741.552500", "153743.042500", "153744.532500", "153746.022500", "153747.512500", "153749.002500", "153750.492500", "153751.982500", "153753.472500", "153754.962500", "153756.452500", "153757.942500", "153759.432500", "153800.922500", "153802.412500", "153803.902500", "153805.392500", "153806.882500", "153808.372500", "153809.862500", "153811.352500", "153812.842500", "153814.332500", "153815.822500", "153817.312500", "153818.802500", "153820.292500", "153821.782500", "153823.272500", "153824.762500", "153826.252500", "153827.742500", "153829.232500", "153830.722500", "153832.212500", "153833.702500", "153835.192500", "153836.682500", "153838.172500", "153839.662500", "153841.152500", "153842.642500", "153844.132500", "153845.622500", "153847.112500", "153848.602500", "153850.092500", "153851.582500", "153853.072500", "153854.562500", "153856.052500", "153857.542500", "153859.032500", "153900.522500", "153902.012500", "153903.502500", "153904.992500", "153906.482500", "153907.972500", "153909.462500", "153910.952500", "153912.442500", "153913.932500", "153915.422500", "153916.912500", "153918.402500", "153919.892500", "153921.382500", "153922.872500", "153924.362500", "153925.852500", "153927.342500", "153928.832500", "153930.322500", "153931.812500", "153933.302500", "153934.792500", "153936.282500", "153937.772500", "153939.262500", "153940.752500", "153942.242500", "153943.732500", "153945.222500", "153946.712500", "153948.202500", "153949.692500", "153951.182500", "153952.672500", "153954.162500", "153955.652500", "153957.142500"],
      "ContentTime": ["152919.054000", "152919.057000", "152919.060000", "152919.068000", "152919.071000", "152919.074000", "152919.076000", "152919.079000", "152919.082000", "152919.085000", "152919.088000", "152919.099000", "152919.102000", "152919.105000", "152919.108000", "152919.110000", "152919.113000", "152919.116000", "152919.119000", "152919.122000", "152919.125000", "152919.127000", "152919.130000", "152919.133000", "152919.136000", "152919.139000", "152939.021000", "152939.024000", "152939.027000", "152939.030000", "152939.033000", "152939.035000", "152939.038000", "152939.041000", "152939.044000", "152939.047000", "152939.065000", "152939.067000", "152939.070000", "152939.073000", "152939.081000", "152939.084000", "152939.087000", "152939.089000", "152939.092000", "152939.095000", "152959.021000", "152959.024000", "152959.027000", "152959.030000", "152959.033000", "152959.035000", "152959.038000", "152959.041000", "152959.044000", "152959.047000", "152959.050000", "152959.052000", "152959.063000", "152959.066000", "152959.069000", "152959.072000", "152959.075000", "152959.077000", "152959.080000", "152959.083000", "152959.086000", "153019.021000", "153019.024000", "153019.027000", "153019.029000", "153019.032000", "153019.035000", "153019.038000", "153019.041000", "153019.044000", "153019.046000", "153019.049000", "153019.052000", "153019.055000", "153019.058000", "153019.061000", "153019.064000", "153019.066000", "153019.069000", "153019.072000", "153019.080000", "153059.021000", "153059.024000", "153059.027000", "153059.030000", "153059.033000", "153059.035000", "153059.038000", "153059.041000", "153059.044000", "153059.047000", "153059.050000", "153059.052000", "153059.055000", "153059.058000", "153059.061000", "153059.064000", "153059.067000", "153059.069000", "153059.072000", "153059.075000", "153059.078000", "153059.081000", "153059.084000", "153059.087000", "153059.089000", "153059.092000", "153059.095000", "153059.098000", "153059.101000", "153059.104000", "153059.107000", "153059.109000", "153059.112000", "153139.020000", "153139.023000", "153139.026000", "153139.029000", "153139.032000", "153139.034000", "153139.037000", "153139.040000", "153139.043000", "153139.046000", "153139.049000", "153139.052000", "153139.055000", "153139.058000", "153139.060000", "153139.063000", "153139.066000", "153139.069000", "153139.072000", "153139.075000", "153139.077000", "153139.080000", "153139.083000", "153139.086000", "153139.089000", "153139.092000", "153139.095000", "153219.021000", "153219.024000", "153219.027000", "153219.030000", "153219.033000", "153219.036000", "153219.038000", "153219.041000", "153219.044000", "153219.047000", "153219.067000", "153219.070000", "153219.072000", "153219.075000", "153219.078000", "153219.081000", "153219.084000", "153219.087000", "153219.089000", "153219.092000", "153219.095000", "153219.098000", "153219.101000", "153219.104000", "153219.107000", "153219.109000", "153219.112000", "153259.021000", "153259.024000", "153259.027000", "153259.030000", "153259.033000", "153259.035000", "153259.038000", "153259.041000", "153259.044000", "153259.047000", "153259.050000", "153259.053000", "153259.056000", "153259.058000", "153259.062000", "153259.065000", "153259.068000", "153259.071000", "153259.074000", "153259.077000", "153259.079000", "153259.082000", "153259.085000", "153259.088000", "153259.091000", "153259.094000", "153339.021000", "153339.024000", "153339.027000", "153339.030000", "153339.033000", "153339.036000", "153339.038000", "153339.041000", "153339.056000", "153339.058000", "153339.061000", "153339.064000", "153339.067000", "153339.070000", "153339.073000", "153339.076000", "153339.079000", "153339.081000", "153339.084000", "153339.087000", "153339.090000", "153339.093000", "153339.096000", "153339.098000", "153339.101000", "153339.104000", "153339.107000", "153419.021000", "153419.024000", "153419.027000", "153419.030000", "153419.033000", "153419.036000", "153419.038000", "153419.041000", "153419.044000", "153419.047000", "153419.050000", "153419.053000", "153419.056000", "153419.067000", "153419.070000", "153419.073000", "153419.076000", "153419.079000", "153419.082000", "153419.085000", "153419.088000", "153419.091000", "153419.094000", "153419.097000", "153419.099000", "153419.102000", "153419.105000", "153459.021000", "153459.024000", "153459.027000", "153459.030000", "153459.033000", "153459.035000", "153459.038000", "153459.041000", "153459.044000", "153459.047000", "153459.050000", "153459.053000", "153459.055000", "153459.058000", "153459.061000", "153459.064000", "153459.067000", "153459.070000", "153459.072000", "153459.075000", "153459.078000", "153459.081000", "153459.084000", "153459.087000", "153459.090000", "153459.093000", "153459.095000", "153539.021000", "153539.024000", "153539.027000", "153539.030000", "153539.033000", "153539.035000", "153539.038000", "153539.041000", "153539.044000", "153539.047000", "153539.050000", "153539.053000", "153539.056000", "153539.058000", "153539.061000", "153539.064000", "153539.067000", "153539.070000", "153539.073000", "153539.076000", "153539.078000", "153539.081000", "153539.084000", "153539.087000", "153539.090000", "153539.093000", "153539.095000", "153619.020000", "153619.023000", "153619.026000", "153619.029000", "153619.032000", "153619.034000", "153619.037000", "153619.040000", "153619.043000", "153619.046000", "153619.049000", "153619.052000", "153619.054000", "153619.057000", "153619.060000", "153619.063000", "153619.066000", "153619.069000", "153619.072000", "153619.075000", "153619.077000", "153619.080000", "153619.083000", "153619.094000", "153619.097000", "153619.100000", "153619.103000", "153659.021000", "153659.024000", "153659.027000", "153659.030000", "153659.033000", "153659.036000", "153659.038000", "153659.041000", "153659.044000", "153659.047000", "153659.050000", "153659.053000", "153659.056000", "153659.058000", "153659.061000", "153659.064000", "153659.067000", "153659.070000", "153659.073000", "153659.076000", "153659.080000", "153659.083000", "153659.086000", "153659.089000", "153659.091000", "153659.094000", "153739.021000", "153739.024000", "153739.027000", "153739.030000", "153739.033000", "153739.036000", "153739.039000", "153739.041000", "153739.044000", "153739.047000", "153739.050000", "153739.053000", "153739.056000", "153739.059000", "153739.061000", "153739.064000", "153739.067000", "153739.070000", "153739.073000", "153739.076000", "153739.079000", "153739.081000", "153739.084000", "153739.087000", "153739.090000", "153739.093000", "153739.096000", "153819.021000", "153819.024000", "153819.027000", "153819.030000", "153819.047000", "153819.050000", "153819.052000", "153819.055000", "153819.058000", "153819.061000", "153819.064000", "153819.067000", "153819.070000", "153819.072000", "153819.075000", "153819.078000", "153819.081000", "153819.084000", "153819.087000", "153819.090000", "153819.092000", "153819.095000", "153819.098000", "153819.101000", "153819.104000", "153819.106000", "153819.109000", "153859.021000", "153859.024000", "153859.027000", "153859.030000", "153859.033000", "153859.036000", "153859.038000", "153859.041000", "153859.044000", "153859.047000", "153859.050000", "153859.053000", "153859.056000", "153859.058000", "153859.061000", "153859.064000", "153859.067000", "153859.070000", "153859.073000", "153859.076000", "153859.079000", "153859.082000", "153859.084000", "153859.087000", "153859.090000", "153859.093000", "153859.096000", "153939.021000", "153939.024000", "153939.027000", "153939.030000", "153939.033000", "153939.036000", "153939.039000", "153939.042000", "153939.045000", "153939.047000", "153939.050000", "153939.053000", "153939.056000", "153939.059000", "153939.062000", "153939.065000", "153939.068000", "153939.070000", "153939.073000", "153939.076000", "153939.079000", "153939.082000", "153939.085000", "153939.088000", "153939.091000", "153939.093000", "153939.096000", "153959.424000", "153959.427000", "153959.431000", "153959.434000", "153959.437000", "153959.440000", "153959.443000", "153959.446000", "153959.449000", "153959.452000", "153959.455000", "153959.458000", "153959.462000", "153959.465000"],
