{
  "AcquisitionMatrixPE": 104,
  "AcquisitionNumber": 1,
  "AcquisitionTime": "19:10:59.967500",
  "BandwidthPerPixelPhaseEncode": 17.17,
  "BaseResolution": 104,
  "BodyPartExamined": "BRAIN",
  "CoilString": "HC1-7;NC1_2",
  "ConsistencyInfo": "N4_VE11C_LATEST_20160120",
  "ConversionSoftware": "dcm2niix",
  "ConversionSoftwareVersion": "v1.0.20190720  (JP2:OpenJPEG) GCC7.3.0",
  "DerivedVendorReportedEchoSpacing": 0.000560011,
  "DeviceSerialNumber": "167006",
  "DwellTime": 2.1e-06,
  "EchoTime": 0.037,
  "EchoTrainLength": 104,
  "EffectiveEchoSpacing": 0.000560011,
  "FlipAngle": 52,
  "ImageComments": "Unaliased_MB4_PE3_LB",
  "ImageOrientationPatientDICOM": [0.999945, -0.00912154, -0.00519231, 0.0073301, 0.960975, -0.276538],
  "ImageType": [
    "ORIGINAL",
    "PRIMARY",
    "M",
    "MB",
    "ND",
    "MOSAIC"
],
  "ImagingFrequency": 123.259,
  "InPlanePhaseEncodingDirectionDICOM": "COL",
  "InstitutionAddress": "Chemin_Queen-Mary_4565_Montreal_District_CA_H3W_1W5",
  "InstitutionName": "IUGM",
  "InstitutionalDepartmentName": "Department",
  "MRAcquisitionType": "2D",
  "MagneticFieldStrength": 3,
  "Manufacturer": "Siemens",
  "ManufacturersModelName": "Prisma_fit",
  "Modality": "MR",
  "MultibandAccelerationFactor": 4,
  "PartialFourier": 1,
  "PatientPosition": "HFS",
  "PercentPhaseFOV": 100,
  "PhaseEncodingDirection": "j",
  "PhaseEncodingSteps": 104,
  "PhaseResolution": 1,
  "PixelBandwidth": 2290,
  "ProcedureStepDescription": "video_friends",
  "ProtocolName": "func_task-s01e23a",
  "PulseSequenceDetails": "%CustomerSeq%_cmrr_mbep2d_bold",
  "ReceiveCoilActiveElements": "HC1-7;NC1,2",
  "ReceiveCoilName": "HeadNeck_64",
  "ReconMatrixPE": 104,
  "RepetitionTime": 1.49,
  "SAR": 0.030599,
  "ScanOptions": "FS",
  "ScanningSequence": "EP",
  "SequenceName": "epfid2d1_104",
  "SequenceVariant": "SK_SS",
  "SeriesDescription": "func_task-s01e23a",
  "SeriesNumber": 9,
  "ShimSetting": [618, -7220, -8793, 707, -2, -49, 56, 14],
  "SliceThickness": 2,
  "SliceTiming": [0, 0.7825, 0.0975, 0.88, 0.195, 0.98, 0.2925, 1.0775, 0.3925, 1.175, 0.49, 1.2725, 0.5875, 1.37, 0.685, 0, 0.7825, 0.0975, 0.88, 0.195, 0.98, 0.2925, 1.0775, 0.3925, 1.175, 0.49, 1.2725, 0.5875, 1.37, 0.685, 0, 0.7825, 0.0975, 0.88, 0.195, 0.98, 0.2925, 1.0775, 0.3925, 1.175, 0.49, 1.2725, 0.5875, 1.37, 0.685, 0, 0.7825, 0.0975, 0.88, 0.195, 0.98, 0.2925, 1.0775, 0.3925, 1.175, 0.49, 1.2725, 0.5875, 1.37, 0.685],
  "SoftwareVersions": "syngo_MR_E11",
  "SpacingBetweenSlices": 2,
  "StationName": "MRC35049",
  "TaskName": "friends",
  "TotalReadoutTime": 0.0576811,
  "TxRefAmp": 206.538,
  "WipMemBlock": "c7d59aa1-5426-4c65-ae6e-c7f0d83c18c6||Sequence: R016 ve11c/master r/e634e98; Dec 19 2017 11:00:25 by eja",
  "dcmmeta_affine": [
    [-1.999889850616455, 0.014660204760730267, -0.015024268999695778, 104.24618530273438],
    [0.018243081867694855, 1.9219497442245483, -0.5529704093933105, -80.61619567871094],
    [-0.010384615510702133, 0.553076982498169, 1.9219776391983032, -58.91562271118164],
    [0.0, 0.0, 0.0, 1.0]
],
  "dcmmeta_reorient_transform": [
    [0.0, -1.0, 0.0, 103.0],
    [1.0, 0.0, 0.0, 0.0],
    [0.0, 0.0, 1.0, 0.0],
    [0.0, 0.0, 0.0, 1.0]
],
  "dcmmeta_shape": [104, 104, 60, 462],
  "dcmmeta_slice_dim": 2,
  "dcmmeta_version": 0.6,
  "global": {
    "const": {
      "AcquisitionMatrix": [104, 0, 0, 104],
      "AngioFlag": "N",
      "BitsAllocated": 16,
      "BitsStored": 16,
      "BodyPartExamined": "BRAIN",
      "Columns": 832,
      "EchoNumbers": 1,
      "EchoTime": 37.0,
      "EchoTrainLength": 104,
      "FlipAngle": 52.0,
      "HighBit": 15,
      "ImageOrientationPatient": [0.99994491720158, -0.0091215406428, -0.0051923076792, 0.0073301023057, 0.96097488615779, -0.2765384923916],
      "ImagePositionPatient": [-839.05240030885, -810.29387021773, 203.15133028539],
      "ImageType": [
        "ORIGINAL",
        "PRIMARY",
        "M",
        "MB",
        "ND",
        "MOSAIC"
],
      "ImagedNucleus": "1H",
      "ImagingFrequency": 123.259131,
      "InPlanePhaseEncodingDirection": "COL",
      "MRAcquisitionType": "2D",
      "MagneticFieldStrength": 3.0,
      "Manufacturer": "SIEMENS",
      "ManufacturerModelName": "Prisma_fit",
      "Modality": "MR",
      "NumberOfAverages": 1.0,
      "NumberOfPhaseEncodingSteps": 104,
      "PercentPhaseFieldOfView": 100.0,
      "PercentSampling": 100.0,
      "PerformedProcedureStepStartTime": "190543.327000",
      "PhotometricInterpretation": "MONOCHROME2",
      "PixelBandwidth": 2290.0,
      "PixelRepresentation": 0,
      "PixelSpacing": [2.0, 2.0],
      "ProtocolName": "func_task-s01e23a",
      "RepetitionTime": 1490.0,
      "Rows": 832,
      "SAR": 0.03059899701593,
      "SamplesPerPixel": 1,
      "ScanOptions": "FS",
      "ScanningSequence": "EP",
      "SequenceName": "epfid2d1_104",
      "SequenceVariant": [
        "SK",
        "SS"
],
      "SeriesDescription": "func_task-s01e23a",
      "SeriesNumber": 9,
      "SeriesTime": "191221.841000",
      "SliceLocation": -35.111180814231,
      "SliceThickness": 2.0,
      "SmallestImagePixelValue": 0,
      "SoftwareVersions": "syngo MR E11",
      "SpacingBetweenSlices": 2.0000000428217,
      "SpecificCharacterSet": "ISO_IR 100",
      "StudyID": "1",
      "StudyTime": "190543.255000",
      "TransmitCoilName": "Body",
      "VariableFlipAngleFlag": "N",
      "WindowCenterWidthExplanation": "Algo1",
      "dBdt": 0.0},
    "slices": {}
  },
  "time": {
    "samples": {
      "AcquisitionNumber": [1, 2, 3, 4, 5, 6, 7, 8, 9, 10, 11, 12, 13, 14, 15, 16, 17, 18, 19, 20, 21, 22, 23, 24, 25, 26, 27, 28, 29, 30, 31, 32, 33, 34, 35, 36, 37, 38, 39, 40, 41, 42, 43, 44, 45, 46, 47, 48, 49, 50, 51, 52, 53, 54, 55, 56, 57, 58, 59, 60, 61, 62, 63, 64, 65, 66, 67, 68, 69, 70, 71, 72, 73, 74, 75, 76, 77, 78, 79, 80, 81, 82, 83, 84, 85, 86, 87, 88, 89, 90, 91, 92, 93, 94, 95, 96, 97, 98, 99, 100, 101, 102, 103, 104, 105, 106, 107, 108, 109, 110, 111, 112, 113, 114, 115, 116, 117, 118, 119, 120, 121, 122, 123, 124, 125, 126, 127, 128, 129, 130, 131, 132, 133, 134, 135, 136, 137, 138, 139, 140, 141, 142, 143, 144, 145, 146, 147, 148, 149, 150, 151, 152, 153, 154, 155, 156, 157, 158, 159, 160, 161, 162, 163, 164, 165, 166, 167, 168, 169, 170, 171, 172, 173, 174, 175, 176, 177, 178, 179, 180, 181, 182, 183, 184, 185, 186, 187, 188, 189, 190, 191, 192, 193, 194, 195, 196, 197, 198, 199, 200, 201, 202, 203, 204, 205, 206, 207, 208, 209, 210, 211, 212, 213, 214, 215, 216, 217, 218, 219, 220, 221, 222, 223, 224, 225, 226, 227, 228, 229, 230, 231, 232, 233, 234, 235, 236, 237, 238, 239, 240, 241, 242, 243, 244, 245, 246, 247, 248, 249, 250, 251, 252, 253, 254, 255, 256, 257, 258, 259, 260, 261, 262, 263, 264, 265, 266, 267, 268, 269, 270, 271, 272, 273, 274, 275, 276, 277, 278, 279, 280, 281, 282, 283, 284, 285, 286, 287, 288, 289, 290, 291, 292, 293, 294, 295, 296, 297, 298, 299, 300, 301, 302, 303, 304, 305, 306, 307, 308, 309, 310, 311, 312, 313, 314, 315, 316, 317, 318, 319, 320, 321, 322, 323, 324, 325, 326, 327, 328, 329, 330, 331, 332, 333, 334, 335, 336, 337, 338, 339, 340, 341, 342, 343, 344, 345, 346, 347, 348, 349, 350, 351, 352, 353, 354, 355, 356, 357, 358, 359, 360, 361, 362, 363, 364, 365, 366, 367, 368, 369, 370, 371, 372, 373, 374, 375, 376, 377, 378, 379, 380, 381, 382, 383, 384, 385, 386, 387, 388, 389, 390, 391, 392, 393, 394, 395, 396, 397, 398, 399, 400, 401, 402, 403, 404, 405, 406, 407, 408, 409, 410, 411, 412, 413, 414, 415, 416, 417, 418, 419, 420, 421, 422, 423, 424, 425, 426, 427, 428, 429, 430, 431, 432, 433, 434, 435, 436, 437, 438, 439, 440, 441, 442, 443, 444, 445, 446, 447, 448, 449, 450, 451, 452, 453, 454, 455, 456, 457, 458, 459, 460, 461, 462],
      "AcquisitionTime": ["191059.967500", "191101.457500", "191102.947500", "191104.437500", "191105.927500", "191107.417500", "191108.907500", "191110.397500", "191111.887500", "191113.377500", "191114.867500", "191116.357500", "191117.847500", "191119.337500", "191120.827500", "191122.317500", "191123.807500", "191125.297500", "191126.787500", "191128.277500", "191129.767500", "191131.257500", "191132.747500", "191134.237500", "191135.727500", "191137.217500", "191138.707500", "191140.197500", "191141.687500", "191143.177500", "191144.667500", "191146.157500", "191147.647500", "191149.137500", "191150.627500", "191152.117500", "191153.607500", "191155.097500", "191156.587500", "191158.077500", "191159.567500", "191201.057500", "191202.547500", "191204.037500", "191205.527500", "191207.017500", "191208.507500", "191209.997500", "191211.487500", "191212.977500", "191214.467500", "191215.957500", "191217.447500", "191218.937500", "191220.427500", "191221.917500", "191223.407500", "191224.897500", "191226.387500", "191227.877500", "191229.367500", "191230.857500", "191232.347500", "191233.837500", "191235.327500", "191236.817500", "191238.307500", "191239.797500", "191241.287500", "191242.777500", "191244.267500", "191245.757500", "191247.247500", "191248.737500", "191250.227500", "191251.717500", "191253.207500", "191254.697500", "191256.187500", "191257.677500", "191259.167500", "191300.657500", "191302.147500", "191303.637500", "191305.127500", "191306.617500", "191308.107500", "191309.597500", "191311.087500", "191312.577500", "191314.067500", "191315.557500", "191317.047500", "191318.537500", "191320.027500", "191321.517500", "191323.007500", "191324.497500", "191325.987500", "191327.477500", "191328.967500", "191330.457500", "191331.947500", "191333.437500", "191334.927500", "191336.417500", "191337.907500", "191339.397500", "191340.887500", "191342.377500", "191343.867500", "191345.357500", "191346.847500", "191348.337500", "191349.827500", "191351.317500", "191352.807500", "191354.297500", "191355.787500", "191357.277500", "191358.767500", "191400.257500", "191401.747500", "191403.237500", "191404.727500", "191406.217500", "191407.707500", "191409.197500", "191410.687500", "191412.177500", "191413.667500", "191415.157500", "191416.647500", "191418.137500", "191419.627500", "191421.117500", "191422.607500", "191424.097500", "191425.587500", "191427.077500", "191428.567500", "191430.057500", "191431.547500", "191433.037500", "191434.527500", "191436.017500", "191437.507500", "191438.997500", "191440.487500", "191441.977500", "191443.467500", "191444.957500", "191446.447500", "191447.937500", "191449.427500", "191450.917500", "191452.407500", "191453.897500", "191455.387500", "191456.877500", "191458.367500", "191459.857500", "191501.347500", "191502.837500", "191504.327500", "191505.817500", "191507.307500", "191508.797500", "191510.287500", "191511.777500", "191513.267500", "191514.757500", "191516.247500", "191517.737500", "191519.227500", "191520.717500", "191522.207500", "191523.697500", "191525.187500", "191526.677500", "191528.167500", "191529.657500", "191531.147500", "191532.637500", "191534.127500", "191535.617500", "191537.107500", "191538.597500", "191540.087500", "191541.577500", "191543.067500", "191544.557500", "191546.047500", "191547.537500", "191549.027500", "191550.517500", "191552.007500", "191553.497500", "191554.987500", "191556.477500", "191557.967500", "191559.457500", "191600.947500", "191602.437500", "191603.927500", "191605.417500", "191606.907500", "191608.397500", "191609.887500", "191611.377500", "191612.867500", "191614.357500", "191615.847500", "191617.337500", "191618.827500", "191620.317500", "191621.807500", "191623.297500", "191624.787500", "191626.277500", "191627.767500", "191629.257500", "191630.747500", "191632.237500", "191633.727500", "191635.217500", "191636.707500", "191638.197500", "191639.687500", "191641.177500", "191642.667500", "191644.157500", "191645.647500", "191647.137500", "191648.627500", "191650.117500", "191651.607500", "191653.097500", "191654.587500", "191656.077500", "191657.567500", "191659.057500", "191700.547500", "191702.037500", "191703.527500", "191705.017500", "191706.507500", "191707.997500", "191709.487500", "191710.977500", "191712.467500", "191713.957500", "191715.447500", "191716.937500", "191718.427500", "191719.917500", "191721.407500", "191722.897500", "191724.387500", "191725.877500", "191727.367500", "191728.857500", "191730.347500", "191731.837500", "191733.327500", "191734.817500", "191736.307500", "191737.797500", "191739.287500", "191740.777500", "191742.267500", "191743.757500", "191745.247500", "191746.737500", "191748.227500", "191749.717500", "191751.207500", "191752.697500", "191754.187500", "191755.677500", "191757.167500", "191758.657500", "191800.147500", "191801.637500", "191803.127500", "191804.617500", "191806.107500", "191807.597500", "191809.087500", "191810.577500", "191812.067500", "191813.557500", "191815.047500", "191816.537500", "191818.027500", "191819.517500", "191821.007500", "191822.497500", "191823.987500", "191825.477500", "191826.967500", "191828.457500", "191829.947500", "191831.437500", "191832.927500", "191834.417500", "191835.907500", "191837.397500", "191838.887500", "191840.377500", "191841.867500", "191843.357500", "191844.847500", "191846.337500", "191847.827500", "191849.317500", "191850.807500", "191852.297500", "191853.787500", "191855.277500", "191856.767500", "191858.257500", "191859.747500", "191901.237500", "191902.727500", "191904.217500", "191905.707500", "191907.197500", "191908.687500", "191910.177500", "191911.667500", "191913.157500", "191914.647500", "191916.137500", "191917.627500", "191919.117500", "191920.607500", "191922.097500", "191923.587500", "191925.077500", "191926.567500", "191928.057500", "191929.547500", "191931.037500", "191932.527500", "191934.017500", "191935.507500", "191936.997500", "191938.487500", "191939.977500", "191941.467500", "191942.957500", "191944.447500", "191945.937500", "191947.427500", "191948.917500", "191950.407500", "191951.897500", "191953.387500", "191954.877500", "191956.367500", "191957.857500", "191959.347500", "192000.837500", "192002.327500", "192003.817500", "192005.307500", "192006.797500", "192008.287500", "192009.777500", "192011.267500", "192012.757500", "192014.247500", "192015.737500", "192017.227500", "192018.717500", "192020.207500", "192021.697500", "192023.187500", "192024.677500", "192026.167500", "192027.657500", "192029.147500", "192030.637500", "192032.127500", "192033.617500", "192035.107500", "192036.597500", "192038.087500", "192039.577500", "192041.067500", "192042.557500", "192044.047500", "192045.537500", "192047.027500", "192048.517500", "192050.007500", "192051.497500", "192052.987500", "192054.477500", "192055.967500", "192057.457500", "192058.947500", "192100.437500", "192101.927500", "192103.417500", "192104.907500", "192106.397500", "192107.887500", "192109.377500", "192110.867500", "192112.357500", "192113.847500", "192115.337500", "192116.827500", "192118.317500", "192119.807500", "192121.297500", "192122.787500", "192124.277500", "192125.767500", "192127.257500", "192128.747500", "192130.237500", "192131.727500", "192133.217500", "192134.707500", "192136.197500", "192137.687500", "192139.177500", "192140.667500", "192142.157500", "192143.647500", "192145.137500", "192146.627500", "192148.117500", "192149.607500", "192151.097500", "192152.587500", "192154.077500", "192155.567500", "192157.057500", "192158.547500", "192200.037500", "192201.527500", "192203.017500", "192204.507500", "192205.997500", "192207.487500", "192208.977500", "192210.467500", "192211.957500", "192213.447500", "192214.937500", "192216.427500", "192217.917500", "192219.407500", "192220.897500", "192222.387500", "192223.877500", "192225.367500", "192226.857500"],
      "ContentTime": ["191221.844000", "191221.853000", "191221.856000", "191221.859000", "191221.865000", "191221.874000", "191221.876000", "191221.879000", "191221.882000", "191221.885000", "191221.888000", "191221.891000", "191221.897000", "191221.900000", "191221.903000", "191221.906000", "191221.909000", "191221.912000", "191221.915000", "191221.918000", "191221.921000", "191221.924000", "191221.926000", "191221.929000", "191221.932000", "191221.935000", "191221.938000", "191221.941000", "191241.806000", "191241.809000", "191241.812000", "191241.815000", "191241.818000", "191241.820000", "191241.823000", "191241.826000", "191241.829000", "191241.832000", "191241.835000", "191241.843000", "191241.846000", "191241.849000", "191241.852000", "191241.862000", "191241.865000", "191241.868000", "191241.871000", "191241.874000", "191301.807000", "191301.810000", "191301.813000", "191301.817000", "191301.820000", "191301.823000", "191301.826000", "191301.829000", "191301.832000", "191301.835000", "191301.838000", "191301.841000", "191301.844000", "191301.847000", "191301.850000", "191301.853000", "191301.856000", "191301.859000", "191301.862000", "191301.866000", "191321.807000", "191321.810000", "191321.813000", "191321.816000", "191321.819000", "191321.821000", "191321.824000", "191321.827000", "191321.831000", "191321.834000", "191321.837000", "191321.840000", "191321.843000", "191321.846000", "191321.849000", "191321.852000", "191321.855000", "191321.858000", "191321.861000", "191321.864000", "191341.807000", "191341.810000", "191341.813000", "191341.816000", "191341.819000", "191341.822000", "191341.825000", "191341.828000", "191341.830000", "191341.833000", "191341.836000", "191341.839000", "191341.842000", "191341.845000", "191341.848000", "191341.851000", "191341.854000", "191341.857000", "191341.860000", "191341.869000", "191421.807000", "191421.810000", "191421.813000", "191421.816000", "191421.819000", "191421.822000", "191421.825000", "191421.828000", "191421.831000", "191421.834000", "191421.837000", "191421.840000", "191421.843000", "191421.846000", "191421.848000", "191421.851000", "191421.859000", "191421.862000", "191421.865000", "191421.868000", "191421.870000", "191421.873000", "191421.876000", "191421.879000", "191421.882000", "191421.885000", "191421.888000", "191501.806000", "191501.809000", "191501.812000", "191501.815000", "191501.818000", "191501.821000", "191501.823000", "191501.827000", "191501.829000", "191501.832000", "191501.835000", "191501.838000", "191501.841000", "191501.844000", "191501.847000", "191501.850000", "191501.853000", "191501.856000", "191501.859000", "191501.862000", "191501.865000", "191501.868000", "191501.871000", "191501.874000", "191501.877000", "191501.880000", "191501.882000", "191541.807000", "191541.810000", "191541.813000", "191541.816000", "191541.819000", "191541.822000", "191541.825000", "191541.827000", "191541.831000", "191541.833000", "191541.836000", "191541.839000", "191541.842000", "191541.845000", "191541.848000", "191541.851000", "191541.854000", "191541.857000", "191541.860000", "191541.863000", "191541.866000", "191541.869000", "191541.872000", "191541.875000", "191541.878000", "191541.881000", "191621.807000", "191621.810000", "191621.813000", "191621.816000", "191621.819000", "191621.822000", "191621.825000", "191621.828000", "191621.831000", "191621.834000", "191621.837000", "191621.840000", "191621.843000", "191621.846000", "191621.849000", "191621.852000", "191621.855000", "191621.858000", "191621.861000", "191621.864000", "191621.867000", "191621.871000", "191621.873000", "191621.876000", "191621.879000", "191621.882000", "191621.885000", "191701.806000", "191701.809000", "191701.812000", "191701.815000", "191701.818000", "191701.821000", "191701.824000", "191701.827000", "191701.830000", "191701.833000", "191701.835000", "191701.839000", "191701.856000", "191701.859000", "191701.861000", "191701.864000", "191701.867000", "191701.870000", "191701.873000", "191701.876000", "191701.879000", "191701.882000", "191701.885000", "191701.888000", "191701.891000", "191701.894000", "191701.897000", "191741.807000", "191741.810000", "191741.813000", "191741.816000", "191741.819000", "191741.822000", "191741.825000", "191741.828000", "191741.831000", "191741.834000", "191741.837000", "191741.839000", "191741.842000", "191741.845000", "191741.849000", "191741.851000", "191741.854000", "191741.857000", "191741.860000", "191741.863000", "191741.866000", "191741.869000", "191741.872000", "191741.875000", "191741.878000", "191741.881000", "191741.884000", "191821.807000", "191821.810000", "191821.813000", "191821.816000", "191821.819000", "191821.822000", "191821.825000", "191821.828000", "191821.831000", "191821.834000", "191821.837000", "191821.840000", "191821.843000", "191821.846000", "191821.849000", "191821.851000", "191821.854000", "191821.857000", "191821.860000", "191821.863000", "191821.866000", "191821.869000", "191821.872000", "191821.875000", "191821.878000", "191821.881000", "191821.884000", "191901.807000", "191901.810000", "191901.813000", "191901.816000", "191901.819000", "191901.822000", "191901.825000", "191901.828000", "191901.831000", "191901.834000", "191901.837000", "191901.840000", "191901.848000", "191901.851000", "191901.854000", "191901.857000", "191901.860000", "191901.863000", "191901.866000", "191901.869000", "191901.872000", "191901.875000", "191901.878000", "191901.881000", "191901.884000", "191901.887000", "191901.890000", "191941.807000", "191941.810000", "191941.814000", "191941.817000", "191941.820000", "191941.823000", "191941.826000", "191941.828000", "191941.832000", "191941.835000", "191941.838000", "191941.840000", "191941.843000", "191941.847000", "191941.849000", "191941.852000", "191941.856000", "191941.859000", "191941.862000", "191941.865000", "191941.868000", "191941.871000", "191941.873000", "191941.876000", "191941.879000", "191941.882000", "192021.807000", "192021.810000", "192021.813000", "192021.816000", "192021.819000", "192021.822000", "192021.825000", "192021.828000", "192021.831000", "192021.834000", "192021.837000", "192021.840000", "192021.843000", "192021.846000", "192021.849000", "192021.852000", "192021.855000", "192021.858000", "192021.860000", "192021.863000", "192021.866000", "192021.869000", "192021.872000", "192021.875000", "192021.878000", "192021.881000", "192021.884000", "192101.807000", "192101.810000", "192101.813000", "192101.816000", "192101.819000", "192101.822000", "192101.825000", "192101.828000", "192101.831000", "192101.834000", "192101.837000", "192101.840000", "192101.843000", "192101.846000", "192101.849000", "192101.851000", "192101.855000", "192101.857000", "192101.860000", "192101.863000", "192101.866000", "192101.869000", "192101.872000", "192101.875000", "192101.878000", "192101.881000", "192101.884000", "192141.806000", "192141.809000", "192141.812000", "192141.815000", "192141.818000", "192141.821000", "192141.824000", "192141.827000", "192141.830000", "192141.832000", "192141.835000", "192141.839000", "192141.842000", "192141.844000", "192141.847000", "192141.850000", "192141.853000", "192141.857000", "192141.860000", "192141.863000", "192141.866000", "192141.869000", "192141.871000", "192141.874000", "192141.877000", "192141.880000", "192141.883000", "192221.807000", "192221.810000", "192221.813000", "192221.816000", "192221.819000", "192221.822000", "192221.825000", "192221.828000", "192221.831000", "192221.834000", "192221.837000", "192221.840000", "192221.843000", "192221.845000", "192221.849000", "192221.851000", "192221.854000", "192221.857000", "192221.860000", "192221.863000", "192221.866000", "192221.869000", "192221.872000", "192221.875000", "192221.878000", "192221.881000", "192221.884000", "192228.831000", "192228.834000", "192228.837000", "192228.840000", "192228.843000"],
