{
  "AcquisitionMatrixPE": 104,
  "AcquisitionNumber": 1,
  "AcquisitionTime": "19:41:36.915000",
  "BandwidthPerPixelPhaseEncode": 17.17,
  "BaseResolution": 104,
  "BodyPartExamined": "BRAIN",
  "CoilString": "HC1-7;NC1_2",
  "ConsistencyInfo": "N4_VE11C_LATEST_20160120",
  "ConversionSoftware": "dcm2niix",
  "ConversionSoftwareVersion": "v1.0.20190720  (JP2:OpenJPEG) GCC7.3.0",
  "DerivedVendorReportedEchoSpacing": 0.000560011,
  "DeviceSerialNumber": "167006",
  "DwellTime": 2.1e-06,
  "EchoTime": 0.037,
  "EchoTrainLength": 104,
  "EffectiveEchoSpacing": 0.000560011,
  "FlipAngle": 52,
  "ImageComments": "Unaliased_MB4_PE3_LB",
  "ImageOrientationPatientDICOM": [0.999723, -0.0235203, 0.000141701, 0.0225123, 0.955097, -0.295436],
  "ImageType": [
    "ORIGINAL",
    "PRIMARY",
    "M",
    "MB",
    "ND",
    "MOSAIC"
],
  "ImagingFrequency": 123.259,
  "InPlanePhaseEncodingDirectionDICOM": "COL",
  "InstitutionAddress": "Chemin_Queen-Mary_4565_Montreal_District_CA_H3W_1W5",
  "InstitutionName": "IUGM",
  "InstitutionalDepartmentName": "Department",
  "MRAcquisitionType": "2D",
  "MagneticFieldStrength": 3,
  "Manufacturer": "Siemens",
  "ManufacturersModelName": "Prisma_fit",
  "Modality": "MR",
  "MultibandAccelerationFactor": 4,
  "PartialFourier": 1,
  "PatientPosition": "HFS",
  "PercentPhaseFOV": 100,
  "PhaseEncodingDirection": "j",
  "PhaseEncodingSteps": 104,
  "PhaseResolution": 1,
  "PixelBandwidth": 2290,
  "ProcedureStepDescription": "video_friends",
  "ProtocolName": "func_task-s01e24a",
  "PulseSequenceDetails": "%CustomerSeq%_cmrr_mbep2d_bold",
  "ReceiveCoilActiveElements": "HC1-7;NC1,2",
  "ReceiveCoilName": "HeadNeck_64",
  "ReconMatrixPE": 104,
  "RepetitionTime": 1.49,
  "SAR": 0.0307503,
  "ScanOptions": "FS",
  "ScanningSequence": "EP",
  "SequenceName": "epfid2d1_104",
  "SequenceVariant": "SK_SS",
  "SeriesDescription": "func_task-s01e24a",
  "SeriesNumber": 20,
  "ShimSetting": [633, -7232, -8805, 691, 44, -90, 40, 0],
  "SliceThickness": 2,
  "SliceTiming": [0, 0.7825, 0.0975, 0.8825, 0.195, 0.98, 0.2925, 1.0775, 0.3925, 1.175, 0.49, 1.2725, 0.5875, 1.3725, 0.685, 0, 0.7825, 0.0975, 0.8825, 0.195, 0.98, 0.2925, 1.0775, 0.3925, 1.175, 0.49, 1.2725, 0.5875, 1.3725, 0.685, 0, 0.7825, 0.0975, 0.8825, 0.195, 0.98, 0.2925, 1.0775, 0.3925, 1.175, 0.49, 1.2725, 0.5875, 1.3725, 0.685, 0, 0.7825, 0.0975, 0.8825, 0.195, 0.98, 0.2925, 1.0775, 0.3925, 1.175, 0.49, 1.2725, 0.5875, 1.3725, 0.685],
  "SoftwareVersions": "syngo_MR_E11",
  "SpacingBetweenSlices": 2,
  "StationName": "MRC35049",
  "TaskName": "friends",
  "TotalReadoutTime": 0.0576811,
  "TxRefAmp": 207.62,
  "WipMemBlock": "8f4a46c7-c26b-4114-91fa-144632dcedd8||Sequence: R016 ve11c/master r/e634e98; Dec 19 2017 11:00:25 by eja",
  "dcmmeta_affine": [
    [-1.9994467496871948, 0.045024555176496506, -0.013626822270452976, 102.45738220214844],
    [0.04704062640666962, 1.9101945161819458, -0.5907150506973267, -82.45620727539062],
    [0.0002834013430401683, 0.5908721685409546, 1.9107249975204468, -60.942989349365234],
    [0.0, 0.0, 0.0, 1.0]
],
  "dcmmeta_reorient_transform": [
    [0.0, -1.0, 0.0, 103.0],
    [1.0, 0.0, 0.0, 0.0],
    [0.0, 0.0, 1.0, 0.0],
    [0.0, 0.0, 0.0, 1.0]
],
  "dcmmeta_shape": [104, 104, 60, 515],
  "dcmmeta_slice_dim": 2,
  "dcmmeta_version": 0.6,
  "global": {
    "const": {
      "AcquisitionMatrix": [104, 0, 0, 104],
      "AngioFlag": "N",
      "BitsAllocated": 16,
      "BitsStored": 16,
      "BodyPartExamined": "BRAIN",
      "Columns": 832,
      "EchoNumbers": 1,
      "EchoTime": 37.0,
      "EchoTrainLength": 104,
      "FlipAngle": 52.0,
      "HighBit": 15,
      "ImageOrientationPatient": [0.99972334910725, -0.0235203140011, 0.00014170066428, 0.02251227836082, 0.95509723341038, -0.2954360710117],
      "ImagePositionPatient": [-851.28244599936, -792.48181941251, 214.89114438529],
      "ImageType": [
        "ORIGINAL",
        "PRIMARY",
        "M",
        "MB",
        "ND",
        "MOSAIC"
],
      "ImagedNucleus": "1H",
      "ImagingFrequency": 123.259142,
      "InPlanePhaseEncodingDirection": "COL",
      "MRAcquisitionType": "2D",
      "MagneticFieldStrength": 3.0,
      "Manufacturer": "SIEMENS",
      "ManufacturerModelName": "Prisma_fit",
      "Modality": "MR",
      "NumberOfAverages": 1.0,
      "NumberOfPhaseEncodingSteps": 104,
      "PercentPhaseFieldOfView": 100.0,
      "PercentSampling": 100.0,
      "PerformedProcedureStepStartTime": "190543.327000",
      "PhotometricInterpretation": "MONOCHROME2",
      "PixelBandwidth": 2290.0,
      "PixelRepresentation": 0,
      "PixelSpacing": [2.0, 2.0],
      "ProtocolName": "func_task-s01e24a",
      "RepetitionTime": 1490.0,
      "Rows": 832,
      "SAR": 0.03075033897939,
      "SamplesPerPixel": 1,
      "ScanOptions": "FS",
      "ScanningSequence": "EP",
      "SequenceName": "epfid2d1_104",
      "SequenceVariant": [
        "SK",
        "SS"
],
      "SeriesDescription": "func_task-s01e24a",
      "SeriesNumber": 20,
      "SeriesTime": "194301.876000",
      "SliceLocation": -34.566667753147,
      "SliceThickness": 2.0,
      "SmallestImagePixelValue": 0,
      "SoftwareVersions": "syngo MR E11",
      "SpacingBetweenSlices": 1.999999993108,
      "SpecificCharacterSet": "ISO_IR 100",
      "StudyID": "1",
      "StudyTime": "190543.255000",
      "TransmitCoilName": "Body",
      "VariableFlipAngleFlag": "N",
      "WindowCenterWidthExplanation": "Algo1",
      "dBdt": 0.0},
    "slices": {}
  },
  "time": {
    "samples": {
      "AcquisitionNumber": [1, 2, 3, 4, 5, 6, 7, 8, 9, 10, 11, 12, 13, 14, 15, 16, 17, 18, 19, 20, 21, 22, 23, 24, 25, 26, 27, 28, 29, 30, 31, 32, 33, 34, 35, 36, 37, 38, 39, 40, 41, 42, 43, 44, 45, 46, 47, 48, 49, 50, 51, 52, 53, 54, 55, 56, 57, 58, 59, 60, 61, 62, 63, 64, 65, 66, 67, 68, 69, 70, 71, 72, 73, 74, 75, 76, 77, 78, 79, 80, 81, 82, 83, 84, 85, 86, 87, 88, 89, 90, 91, 92, 93, 94, 95, 96, 97, 98, 99, 100, 101, 102, 103, 104, 105, 106, 107, 108, 109, 110, 111, 112, 113, 114, 115, 116, 117, 118, 119, 120, 121, 122, 123, 124, 125, 126, 127, 128, 129, 130, 131, 132, 133, 134, 135, 136, 137, 138, 139, 140, 141, 142, 143, 144, 145, 146, 147, 148, 149, 150, 151, 152, 153, 154, 155, 156, 157, 158, 159, 160, 161, 162, 163, 164, 165, 166, 167, 168, 169, 170, 171, 172, 173, 174, 175, 176, 177, 178, 179, 180, 181, 182, 183, 184, 185, 186, 187, 188, 189, 190, 191, 192, 193, 194, 195, 196, 197, 198, 199, 200, 201, 202, 203, 204, 205, 206, 207, 208, 209, 210, 211, 212, 213, 214, 215, 216, 217, 218, 219, 220, 221, 222, 223, 224, 225, 226, 227, 228, 229, 230, 231, 232, 233, 234, 235, 236, 237, 238, 239, 240, 241, 242, 243, 244, 245, 246, 247, 248, 249, 250, 251, 252, 253, 254, 255, 256, 257, 258, 259, 260, 261, 262, 263, 264, 265, 266, 267, 268, 269, 270, 271, 272, 273, 274, 275, 276, 277, 278, 279, 280, 281, 282, 283, 284, 285, 286, 287, 288, 289, 290, 291, 292, 293, 294, 295, 296, 297, 298, 299, 300, 301, 302, 303, 304, 305, 306, 307, 308, 309, 310, 311, 312, 313, 314, 315, 316, 317, 318, 319, 320, 321, 322, 323, 324, 325, 326, 327, 328, 329, 330, 331, 332, 333, 334, 335, 336, 337, 338, 339, 340, 341, 342, 343, 344, 345, 346, 347, 348, 349, 350, 351, 352, 353, 354, 355, 356, 357, 358, 359, 360, 361, 362, 363, 364, 365, 366, 367, 368, 369, 370, 371, 372, 373, 374, 375, 376, 377, 378, 379, 380, 381, 382, 383, 384, 385, 386, 387, 388, 389, 390, 391, 392, 393, 394, 395, 396, 397, 398, 399, 400, 401, 402, 403, 404, 405, 406, 407, 408, 409, 410, 411, 412, 413, 414, 415, 416, 417, 418, 419, 420, 421, 422, 423, 424, 425, 426, 427, 428, 429, 430, 431, 432, 433, 434, 435, 436, 437, 438, 439, 440, 441, 442, 443, 444, 445, 446, 447, 448, 449, 450, 451, 452, 453, 454, 455, 456, 457, 458, 459, 460, 461, 462, 463, 464, 465, 466, 467, 468, 469, 470, 471, 472, 473, 474, 475, 476, 477, 478, 479, 480, 481, 482, 483, 484, 485, 486, 487, 488, 489, 490, 491, 492, 493, 494, 495, 496, 497, 498, 499, 500, 501, 502, 503, 504, 505, 506, 507, 508, 509, 510, 511, 512, 513, 514, 515],
      "AcquisitionTime": ["194136.915000", "194138.405000", "194139.895000", "194141.385000", "194142.875000", "194144.365000", "194145.855000", "194147.345000", "194148.835000", "194150.325000", "194151.815000", "194153.305000", "194154.795000", "194156.285000", "194157.775000", "194159.265000", "194200.755000", "194202.245000", "194203.735000", "194205.225000", "194206.715000", "194208.205000", "194209.695000", "194211.185000", "194212.675000", "194214.165000", "194215.655000", "194217.145000", "194218.635000", "194220.125000", "194221.615000", "194223.105000", "194224.595000", "194226.085000", "194227.575000", "194229.065000", "194230.555000", "194232.045000", "194233.535000", "194235.025000", "194236.515000", "194238.005000", "194239.495000", "194240.985000", "194242.475000", "194243.965000", "194245.455000", "194246.945000", "194248.435000", "194249.925000", "194251.415000", "194252.905000", "194254.395000", "194255.885000", "194257.375000", "194258.865000", "194300.355000", "194301.845000", "194303.335000", "194304.825000", "194306.315000", "194307.805000", "194309.295000", "194310.785000", "194312.275000", "194313.765000", "194315.255000", "194316.745000", "194318.235000", "194319.725000", "194321.215000", "194322.705000", "194324.195000", "194325.685000", "194327.175000", "194328.665000", "194330.155000", "194331.645000", "194333.135000", "194334.625000", "194336.115000", "194337.605000", "194339.095000", "194340.585000", "194342.075000", "194343.565000", "194345.055000", "194346.545000", "194348.035000", "194349.525000", "194351.015000", "194352.505000", "194353.995000", "194355.485000", "194356.975000", "194358.465000", "194359.955000", "194401.445000", "194402.935000", "194404.425000", "194405.915000", "194407.405000", "194408.895000", "194410.385000", "194411.875000", "194413.365000", "194414.855000", "194416.345000", "194417.835000", "194419.325000", "194420.815000", "194422.305000", "194423.795000", "194425.285000", "194426.775000", "194428.265000", "194429.755000", "194431.245000", "194432.735000", "194434.225000", "194435.715000", "194437.205000", "194438.695000", "194440.185000", "194441.675000", "194443.165000", "194444.655000", "194446.145000", "194447.635000", "194449.125000", "194450.615000", "194452.105000", "194453.595000", "194455.085000", "194456.575000", "194458.065000", "194459.555000", "194501.045000", "194502.535000", "194504.025000", "194505.515000", "194507.005000", "194508.495000", "194509.985000", "194511.475000", "194512.965000", "194514.455000", "194515.945000", "194517.435000", "194518.925000", "194520.415000", "194521.905000", "194523.395000", "194524.885000", "194526.375000", "194527.865000", "194529.355000", "194530.845000", "194532.335000", "194533.825000", "194535.315000", "194536.805000", "194538.295000", "194539.785000", "194541.275000", "194542.765000", "194544.255000", "194545.745000", "194547.235000", "194548.725000", "194550.215000", "194551.705000", "194553.195000", "194554.685000", "194556.175000", "194557.665000", "194559.155000", "194600.645000", "194602.135000", "194603.625000", "194605.115000", "194606.605000", "194608.095000", "194609.585000", "194611.075000", "194612.565000", "194614.055000", "194615.545000", "194617.035000", "194618.525000", "194620.015000", "194621.505000", "194622.995000", "194624.485000", "194625.975000", "194627.465000", "194628.955000", "194630.445000", "194631.935000", "194633.425000", "194634.915000", "194636.405000", "194637.895000", "194639.385000", "194640.875000", "194642.365000", "194643.855000", "194645.345000", "194646.835000", "194648.325000", "194649.815000", "194651.305000", "194652.795000", "194654.285000", "194655.775000", "194657.265000", "194658.755000", "194700.245000", "194701.735000", "194703.225000", "194704.715000", "194706.205000", "194707.695000", "194709.185000", "194710.675000", "194712.165000", "194713.655000", "194715.145000", "194716.635000", "194718.125000", "194719.615000", "194721.105000", "194722.595000", "194724.085000", "194725.575000", "194727.065000", "194728.555000", "194730.045000", "194731.535000", "194733.025000", "194734.515000", "194736.005000", "194737.495000", "194738.985000", "194740.475000", "194741.965000", "194743.455000", "194744.945000", "194746.435000", "194747.925000", "194749.415000", "194750.905000", "194752.395000", "194753.885000", "194755.375000", "194756.865000", "194758.355000", "194759.845000", "194801.335000", "194802.825000", "194804.315000", "194805.805000", "194807.295000", "194808.785000", "194810.275000", "194811.765000", "194813.255000", "194814.745000", "194816.235000", "194817.725000", "194819.215000", "194820.705000", "194822.195000", "194823.685000", "194825.175000", "194826.665000", "194828.155000", "194829.645000", "194831.135000", "194832.625000", "194834.115000", "194835.605000", "194837.095000", "194838.585000", "194840.075000", "194841.565000", "194843.055000", "194844.545000", "194846.035000", "194847.525000", "194849.015000", "194850.505000", "194851.995000", "194853.485000", "194854.975000", "194856.465000", "194857.955000", "194859.445000", "194900.935000", "194902.425000", "194903.915000", "194905.405000", "194906.895000", "194908.385000", "194909.875000", "194911.365000", "194912.855000", "194914.345000", "194915.835000", "194917.325000", "194918.815000", "194920.305000", "194921.795000", "194923.285000", "194924.775000", "194926.265000", "194927.755000", "194929.245000", "194930.735000", "194932.225000", "194933.715000", "194935.205000", "194936.695000", "194938.185000", "194939.675000", "194941.165000", "194942.655000", "194944.145000", "194945.635000", "194947.125000", "194948.615000", "194950.105000", "194951.595000", "194953.085000", "194954.575000", "194956.065000", "194957.555000", "194959.045000", "195000.535000", "195002.025000", "195003.515000", "195005.005000", "195006.495000", "195007.985000", "195009.475000", "195010.965000", "195012.455000", "195013.945000", "195015.435000", "195016.925000", "195018.415000", "195019.905000", "195021.395000", "195022.885000", "195024.375000", "195025.865000", "195027.355000", "195028.845000", "195030.335000", "195031.825000", "195033.315000", "195034.805000", "195036.295000", "195037.785000", "195039.275000", "195040.765000", "195042.255000", "195043.745000", "195045.235000", "195046.725000", "195048.215000", "195049.705000", "195051.195000", "195052.685000", "195054.175000", "195055.665000", "195057.155000", "195058.645000", "195100.135000", "195101.625000", "195103.115000", "195104.605000", "195106.095000", "195107.585000", "195109.075000", "195110.565000", "195112.055000", "195113.545000", "195115.035000", "195116.525000", "195118.015000", "195119.505000", "195120.995000", "195122.485000", "195123.975000", "195125.465000", "195126.955000", "195128.445000", "195129.935000", "195131.425000", "195132.915000", "195134.405000", "195135.895000", "195137.385000", "195138.875000", "195140.365000", "195141.855000", "195143.345000", "195144.835000", "195146.325000", "195147.815000", "195149.305000", "195150.795000", "195152.285000", "195153.775000", "195155.265000", "195156.755000", "195158.245000", "195159.735000", "195201.225000", "195202.715000", "195204.205000", "195205.695000", "195207.185000", "195208.675000", "195210.165000", "195211.655000", "195213.145000", "195214.635000", "195216.125000", "195217.615000", "195219.105000", "195220.595000", "195222.085000", "195223.575000", "195225.065000", "195226.555000", "195228.045000", "195229.535000", "195231.025000", "195232.515000", "195234.005000", "195235.495000", "195236.985000", "195238.475000", "195239.965000", "195241.455000", "195242.945000", "195244.435000", "195245.925000", "195247.415000", "195248.905000", "195250.395000", "195251.885000", "195253.375000", "195254.865000", "195256.355000", "195257.845000", "195259.335000", "195300.825000", "195302.315000", "195303.805000", "195305.295000", "195306.785000", "195308.275000", "195309.765000", "195311.255000", "195312.745000", "195314.235000", "195315.725000", "195317.215000", "195318.705000", "195320.195000", "195321.685000", "195323.175000", "195324.665000", "195326.155000", "195327.645000", "195329.135000", "195330.625000", "195332.115000", "195333.605000", "195335.095000", "195336.585000", "195338.075000", "195339.565000", "195341.055000", "195342.545000", "195344.035000", "195345.525000", "195347.015000", "195348.505000", "195349.995000", "195351.485000", "195352.975000", "195354.465000", "195355.955000", "195357.445000", "195358.935000", "195400.425000", "195401.915000", "195403.405000", "195404.895000", "195406.385000", "195407.875000", "195409.365000", "195410.855000", "195412.345000", "195413.835000", "195415.325000", "195416.815000", "195418.305000", "195419.795000", "195421.285000", "195422.775000"],
      "ContentTime": ["194301.879000", "194301.882000", "194301.885000", "194301.888000", "194301.897000", "194301.900000", "194301.903000", "194301.906000", "194301.914000", "194301.917000", "194301.920000", "194301.923000", "194301.926000", "194301.928000", "194301.931000", "194301.934000", "194301.937000", "194301.940000", "194301.943000", "194301.946000", "194301.949000", "194301.958000", "194301.961000", "194301.965000", "194301.968000", "194301.971000", "194301.974000", "194301.977000", "194301.980000", "194301.983000", "194301.986000", "194301.989000", "194321.807000", "194321.810000", "194321.813000", "194321.816000", "194321.819000", "194321.822000", "194321.824000", "194321.827000", "194321.830000", "194321.833000", "194321.836000", "194321.839000", "194321.842000", "194321.845000", "194321.848000", "194321.851000", "194321.854000", "194321.857000", "194321.859000", "194321.863000", "194341.807000", "194341.850000", "194341.853000", "194341.856000", "194341.859000", "194341.862000", "194341.864000", "194341.867000", "194341.870000", "194341.873000", "194341.876000", "194341.879000", "194341.882000", "194341.885000", "194341.895000", "194341.898000", "194341.901000", "194341.904000", "194341.907000", "194341.910000", "194401.807000", "194401.811000", "194401.814000", "194401.818000", "194401.821000", "194401.824000", "194401.827000", "194401.831000", "194401.834000", "194401.837000", "194401.847000", "194401.850000", "194401.853000", "194401.856000", "194401.859000", "194401.862000", "194401.865000", "194401.868000", "194401.883000", "194401.886000", "194441.826000", "194441.829000", "194441.832000", "194441.835000", "194441.838000", "194441.841000", "194441.844000", "194441.847000", "194441.850000", "194441.853000", "194441.856000", "194441.859000", "194441.862000", "194441.865000", "194441.868000", "194441.871000", "194441.873000", "194441.877000", "194441.879000", "194441.882000", "194441.885000", "194441.897000", "194441.900000", "194441.903000", "194441.905000", "194441.909000", "194441.912000", "194441.914000", "194441.917000", "194441.920000", "194441.923000", "194521.807000", "194521.810000", "194521.813000", "194521.816000", "194521.819000", "194521.822000", "194521.825000", "194521.827000", "194521.831000", "194521.833000", "194521.836000", "194521.839000", "194521.842000", "194521.845000", "194521.848000", "194521.851000", "194521.854000", "194521.857000", "194521.860000", "194521.863000", "194521.866000", "194521.869000", "194521.872000", "194521.874000", "194521.877000", "194521.880000", "194521.883000", "194601.807000", "194601.810000", "194601.813000", "194601.816000", "194601.819000", "194601.822000", "194601.825000", "194601.828000", "194601.831000", "194601.834000", "194601.837000", "194601.840000", "194601.843000", "194601.846000", "194601.849000", "194601.852000", "194601.855000", "194601.857000", "194601.860000", "194601.863000", "194601.866000", "194601.869000", "194601.872000", "194601.875000", "194601.878000", "194601.881000", "194601.884000", "194641.807000", "194641.810000", "194641.821000", "194641.824000", "194641.827000", "194641.830000", "194641.833000", "194641.836000", "194641.839000", "194641.842000", "194641.845000", "194641.848000", "194641.851000", "194641.854000", "194641.857000", "194641.860000", "194641.863000", "194641.865000", "194641.869000", "194641.872000", "194641.875000", "194641.877000", "194641.880000", "194641.883000", "194641.886000", "194641.889000", "194641.892000", "194721.806000", "194721.809000", "194721.812000", "194721.815000", "194721.818000", "194721.821000", "194721.824000", "194721.827000", "194721.830000", "194721.833000", "194721.836000", "194721.839000", "194721.841000", "194721.845000", "194721.847000", "194721.850000", "194721.853000", "194721.857000", "194721.860000", "194721.862000", "194721.865000", "194721.868000", "194721.871000", "194721.874000", "194721.877000", "194721.880000", "194721.883000", "194801.807000", "194801.810000", "194801.813000", "194801.816000", "194801.819000", "194801.822000", "194801.825000", "194801.828000", "194801.831000", "194801.834000", "194801.836000", "194801.839000", "194801.842000", "194801.850000", "194801.852000", "194801.855000", "194801.859000", "194801.861000", "194801.864000", "194801.867000", "194801.870000", "194801.873000", "194801.876000", "194801.879000", "194801.882000", "194801.885000", "194801.888000", "194841.807000", "194841.810000", "194841.813000", "194841.816000", "194841.819000", "194841.822000", "194841.825000", "194841.828000", "194841.831000", "194841.834000", "194841.837000", "194841.840000", "194841.843000", "194841.846000", "194841.849000", "194841.852000", "194841.855000", "194841.858000", "194841.860000", "194841.864000", "194841.866000", "194841.869000", "194841.872000", "194841.875000", "194841.878000", "194841.881000", "194901.807000", "194901.810000", "194901.813000", "194901.836000", "194901.839000", "194901.842000", "194901.844000", "194901.848000", "194901.850000", "194901.853000", "194901.856000", "194901.859000", "194901.862000", "194901.865000", "194941.806000", "194941.809000", "194941.812000", "194941.815000", "194941.818000", "194941.821000", "194941.824000", "194941.827000", "194941.830000", "194941.833000", "194941.835000", "194941.839000", "194941.841000", "194941.844000", "194941.847000", "194941.850000", "194941.853000", "194941.856000", "194941.859000", "194941.862000", "194941.865000", "194941.868000", "194941.871000", "194941.874000", "194941.877000", "194941.880000", "194941.883000", "195021.807000", "195021.810000", "195021.813000", "195021.816000", "195021.819000", "195021.822000", "195021.825000", "195021.828000", "195021.831000", "195021.834000", "195021.837000", "195021.840000", "195021.843000", "195021.846000", "195021.849000", "195021.852000", "195021.855000", "195021.857000", "195021.861000", "195021.864000", "195021.866000", "195021.869000", "195021.872000", "195021.875000", "195021.878000", "195021.881000", "195021.884000", "195101.807000", "195101.810000", "195101.813000", "195101.816000", "195101.819000", "195101.822000", "195101.825000", "195101.828000", "195101.831000", "195101.834000", "195101.837000", "195101.840000", "195101.843000", "195101.846000", "195101.849000", "195101.852000", "195101.855000", "195101.858000", "195101.861000", "195101.864000", "195101.867000", "195101.870000", "195101.873000", "195101.876000", "195101.879000", "195101.882000", "195141.806000", "195141.809000", "195141.812000", "195141.815000", "195141.818000", "195141.821000", "195141.824000", "195141.827000", "195141.830000", "195141.833000", "195141.836000", "195141.839000", "195141.842000", "195141.845000", "195141.848000", "195141.859000", "195141.862000", "195141.864000", "195141.867000", "195141.870000", "195141.873000", "195141.876000", "195141.879000", "195141.882000", "195141.885000", "195141.888000", "195141.891000", "195221.807000", "195221.810000", "195221.813000", "195221.816000", "195221.819000", "195221.822000", "195221.825000", "195221.828000", "195221.831000", "195221.834000", "195221.837000", "195221.840000", "195221.843000", "195221.846000", "195221.849000", "195221.852000", "195221.855000", "195221.858000", "195221.861000", "195221.864000", "195221.867000", "195221.870000", "195221.873000", "195221.876000", "195221.878000", "195221.881000", "195221.885000", "195301.807000", "195301.810000", "195301.813000", "195301.816000", "195301.819000", "195301.822000", "195301.825000", "195301.828000", "195301.831000", "195301.834000", "195301.837000", "195301.840000", "195301.843000", "195301.846000", "195301.849000", "195301.852000", "195301.855000", "195301.858000", "195301.861000", "195301.864000", "195301.867000", "195301.870000", "195301.873000", "195301.875000", "195301.878000", "195301.881000", "195301.884000", "195341.807000", "195341.810000", "195341.813000", "195341.816000", "195341.819000", "195341.822000", "195341.825000", "195341.828000", "195341.831000", "195341.834000", "195341.837000", "195341.840000", "195341.843000", "195341.846000", "195341.848000", "195341.851000", "195341.855000", "195341.857000", "195341.860000", "195341.863000", "195341.866000", "195341.869000", "195341.872000", "195341.875000", "195341.878000", "195341.881000", "195341.884000", "195421.806000", "195421.809000", "195421.812000", "195421.815000", "195421.818000", "195421.821000", "195421.824000", "195421.827000", "195421.830000", "195421.833000", "195421.836000", "195421.839000", "195421.842000", "195421.845000", "195421.848000", "195421.851000", "195421.854000", "195421.857000", "195421.860000", "195421.863000", "195421.866000", "195421.869000", "195421.871000", "195421.874000", "195421.877000", "195421.880000", "195421.883000", "195424.555000", "195424.558000"],
