{
  "AcquisitionMatrixPE": 104,
  "AcquisitionNumber": 1,
  "AcquisitionTime": "19:55:2.877500",
  "BandwidthPerPixelPhaseEncode": 17.17,
  "BaseResolution": 104,
  "BodyPartExamined": "BRAIN",
  "CoilString": "HC1-7;NC1_2",
  "ConsistencyInfo": "N4_VE11C_LATEST_20160120",
  "ConversionSoftware": "dcm2niix",
  "ConversionSoftwareVersion": "v1.0.20190720  (JP2:OpenJPEG) GCC7.3.0",
  "DerivedVendorReportedEchoSpacing": 0.000560011,
  "DeviceSerialNumber": "167006",
  "DwellTime": 2.1e-06,
  "EchoTime": 0.037,
  "EchoTrainLength": 104,
  "EffectiveEchoSpacing": 0.000560011,
  "FlipAngle": 52,
  "ImageComments": "Unaliased_MB4_PE3_LB",
  "ImageOrientationPatientDICOM": [0.999723, -0.0235203, 0.000141701, 0.0225123, 0.955097, -0.295436],
  "ImageType": [
    "ORIGINAL",
    "PRIMARY",
    "M",
    "MB",
    "ND",
    "MOSAIC"
],
  "ImagingFrequency": 123.259,
  "InPlanePhaseEncodingDirectionDICOM": "COL",
  "InstitutionAddress": "Chemin_Queen-Mary_4565_Montreal_District_CA_H3W_1W5",
  "InstitutionName": "IUGM",
  "InstitutionalDepartmentName": "Department",
  "MRAcquisitionType": "2D",
  "MagneticFieldStrength": 3,
  "Manufacturer": "Siemens",
  "ManufacturersModelName": "Prisma_fit",
  "Modality": "MR",
  "MultibandAccelerationFactor": 4,
  "PartialFourier": 1,
  "PatientPosition": "HFS",
  "PercentPhaseFOV": 100,
  "PhaseEncodingDirection": "j",
  "PhaseEncodingSteps": 104,
  "PhaseResolution": 1,
  "PixelBandwidth": 2290,
  "ProcedureStepDescription": "video_friends",
  "ProtocolName": "func_task-s01e24b",
  "PulseSequenceDetails": "%CustomerSeq%_cmrr_mbep2d_bold",
  "ReceiveCoilActiveElements": "HC1-7;NC1,2",
  "ReceiveCoilName": "HeadNeck_64",
  "ReconMatrixPE": 104,
  "RepetitionTime": 1.49,
  "SAR": 0.0307503,
  "ScanOptions": "FS",
  "ScanningSequence": "EP",
  "SequenceName": "epfid2d1_104",
  "SequenceVariant": "SK_SS",
  "SeriesDescription": "func_task-s01e24b",
  "SeriesNumber": 22,
  "ShimSetting": [633, -7232, -8805, 691, 44, -90, 40, 0],
  "SliceThickness": 2,
  "SliceTiming": [0, 0.7825, 0.0975, 0.88, 0.195, 0.9775, 0.2925, 1.0775, 0.39, 1.175, 0.4875, 1.2725, 0.5875, 1.37, 0.685, 0, 0.7825, 0.0975, 0.88, 0.195, 0.9775, 0.2925, 1.0775, 0.39, 1.175, 0.4875, 1.2725, 0.5875, 1.37, 0.685, 0, 0.7825, 0.0975, 0.88, 0.195, 0.9775, 0.2925, 1.0775, 0.39, 1.175, 0.4875, 1.2725, 0.5875, 1.37, 0.685, 0, 0.7825, 0.0975, 0.88, 0.195, 0.9775, 0.2925, 1.0775, 0.39, 1.175, 0.4875, 1.2725, 0.5875, 1.37, 0.685],
  "SoftwareVersions": "syngo_MR_E11",
  "SpacingBetweenSlices": 2,
  "StationName": "MRC35049",
  "TaskName": "friends",
  "TotalReadoutTime": 0.0576811,
  "TxRefAmp": 207.62,
  "WipMemBlock": "8510c9a1-c241-4ac9-9a06-98e94b103a11||Sequence: R016 ve11c/master r/e634e98; Dec 19 2017 11:00:25 by eja",
  "dcmmeta_affine": [
    [-1.9994467496871948, 0.045024555176496506, -0.013626822270452976, 102.45738220214844],
    [0.04704062640666962, 1.9101945161819458, -0.5907150506973267, -82.45620727539062],
    [0.0002834013430401683, 0.5908721685409546, 1.9107249975204468, -60.942989349365234],
    [0.0, 0.0, 0.0, 1.0]
],
  "dcmmeta_reorient_transform": [
    [0.0, -1.0, 0.0, 103.0],
    [1.0, 0.0, 0.0, 0.0],
    [0.0, 0.0, 1.0, 0.0],
    [0.0, 0.0, 0.0, 1.0]
],
  "dcmmeta_shape": [104, 104, 60, 515],
  "dcmmeta_slice_dim": 2,
  "dcmmeta_version": 0.6,
  "global": {
    "const": {
      "AcquisitionMatrix": [104, 0, 0, 104],
      "AngioFlag": "N",
      "BitsAllocated": 16,
      "BitsStored": 16,
      "BodyPartExamined": "BRAIN",
      "Columns": 832,
      "EchoNumbers": 1,
      "EchoTime": 37.0,
      "EchoTrainLength": 104,
      "FlipAngle": 52.0,
      "HighBit": 15,
      "ImageOrientationPatient": [0.99972334910725, -0.0235203140011, 0.00014170066428, 0.02251227836082, 0.95509723341038, -0.2954360710117],
      "ImagePositionPatient": [-851.28244599936, -792.48181941251, 214.89114438529],
      "ImageType": [
        "ORIGINAL",
        "PRIMARY",
        "M",
        "MB",
        "ND",
        "MOSAIC"
],
      "ImagedNucleus": "1H",
      "ImagingFrequency": 123.259148,
      "InPlanePhaseEncodingDirection": "COL",
      "MRAcquisitionType": "2D",
      "MagneticFieldStrength": 3.0,
      "Manufacturer": "SIEMENS",
      "ManufacturerModelName": "Prisma_fit",
      "Modality": "MR",
      "NumberOfAverages": 1.0,
      "NumberOfPhaseEncodingSteps": 104,
      "PercentPhaseFieldOfView": 100.0,
      "PercentSampling": 100.0,
      "PerformedProcedureStepStartTime": "190543.327000",
      "PhotometricInterpretation": "MONOCHROME2",
      "PixelBandwidth": 2290.0,
      "PixelRepresentation": 0,
      "PixelSpacing": [2.0, 2.0],
      "ProtocolName": "func_task-s01e24b",
      "RepetitionTime": 1490.0,
      "Rows": 832,
      "SAR": 0.03075033897939,
      "SamplesPerPixel": 1,
      "ScanOptions": "FS",
      "ScanningSequence": "EP",
      "SequenceName": "epfid2d1_104",
      "SequenceVariant": [
        "SK",
        "SS"
],
      "SeriesDescription": "func_task-s01e24b",
      "SeriesNumber": 22,
      "SeriesTime": "195628.057000",
      "SliceLocation": -34.566667753147,
      "SliceThickness": 2.0,
      "SmallestImagePixelValue": 0,
      "SoftwareVersions": "syngo MR E11",
      "SpacingBetweenSlices": 1.999999993108,
      "SpecificCharacterSet": "ISO_IR 100",
      "StudyID": "1",
      "StudyTime": "190543.255000",
      "TransmitCoilName": "Body",
      "VariableFlipAngleFlag": "N",
      "WindowCenterWidthExplanation": "Algo1",
      "dBdt": 0.0},
    "slices": {}
  },
  "time": {
    "samples": {
      "AcquisitionNumber": [1, 2, 3, 4, 5, 6, 7, 8, 9, 10, 11, 12, 13, 14, 15, 16, 17, 18, 19, 20, 21, 22, 23, 24, 25, 26, 27, 28, 29, 30, 31, 32, 33, 34, 35, 36, 37, 38, 39, 40, 41, 42, 43, 44, 45, 46, 47, 48, 49, 50, 51, 52, 53, 54, 55, 56, 57, 58, 59, 60, 61, 62, 63, 64, 65, 66, 67, 68, 69, 70, 71, 72, 73, 74, 75, 76, 77, 78, 79, 80, 81, 82, 83, 84, 85, 86, 87, 88, 89, 90, 91, 92, 93, 94, 95, 96, 97, 98, 99, 100, 101, 102, 103, 104, 105, 106, 107, 108, 109, 110, 111, 112, 113, 114, 115, 116, 117, 118, 119, 120, 121, 122, 123, 124, 125, 126, 127, 128, 129, 130, 131, 132, 133, 134, 135, 136, 137, 138, 139, 140, 141, 142, 143, 144, 145, 146, 147, 148, 149, 150, 151, 152, 153, 154, 155, 156, 157, 158, 159, 160, 161, 162, 163, 164, 165, 166, 167, 168, 169, 170, 171, 172, 173, 174, 175, 176, 177, 178, 179, 180, 181, 182, 183, 184, 185, 186, 187, 188, 189, 190, 191, 192, 193, 194, 195, 196, 197, 198, 199, 200, 201, 202, 203, 204, 205, 206, 207, 208, 209, 210, 211, 212, 213, 214, 215, 216, 217, 218, 219, 220, 221, 222, 223, 224, 225, 226, 227, 228, 229, 230, 231, 232, 233, 234, 235, 236, 237, 238, 239, 240, 241, 242, 243, 244, 245, 246, 247, 248, 249, 250, 251, 252, 253, 254, 255, 256, 257, 258, 259, 260, 261, 262, 263, 264, 265, 266, 267, 268, 269, 270, 271, 272, 273, 274, 275, 276, 277, 278, 279, 280, 281, 282, 283, 284, 285, 286, 287, 288, 289, 290, 291, 292, 293, 294, 295, 296, 297, 298, 299, 300, 301, 302, 303, 304, 305, 306, 307, 308, 309, 310, 311, 312, 313, 314, 315, 316, 317, 318, 319, 320, 321, 322, 323, 324, 325, 326, 327, 328, 329, 330, 331, 332, 333, 334, 335, 336, 337, 338, 339, 340, 341, 342, 343, 344, 345, 346, 347, 348, 349, 350, 351, 352, 353, 354, 355, 356, 357, 358, 359, 360, 361, 362, 363, 364, 365, 366, 367, 368, 369, 370, 371, 372, 373, 374, 375, 376, 377, 378, 379, 380, 381, 382, 383, 384, 385, 386, 387, 388, 389, 390, 391, 392, 393, 394, 395, 396, 397, 398, 399, 400, 401, 402, 403, 404, 405, 406, 407, 408, 409, 410, 411, 412, 413, 414, 415, 416, 417, 418, 419, 420, 421, 422, 423, 424, 425, 426, 427, 428, 429, 430, 431, 432, 433, 434, 435, 436, 437, 438, 439, 440, 441, 442, 443, 444, 445, 446, 447, 448, 449, 450, 451, 452, 453, 454, 455, 456, 457, 458, 459, 460, 461, 462, 463, 464, 465, 466, 467, 468, 469, 470, 471, 472, 473, 474, 475, 476, 477, 478, 479, 480, 481, 482, 483, 484, 485, 486, 487, 488, 489, 490, 491, 492, 493, 494, 495, 496, 497, 498, 499, 500, 501, 502, 503, 504, 505, 506, 507, 508, 509, 510, 511, 512, 513, 514, 515],
      "AcquisitionTime": ["195502.877500", "195504.367500", "195505.857500", "195507.347500", "195508.837500", "195510.327500", "195511.817500", "195513.307500", "195514.797500", "195516.287500", "195517.777500", "195519.267500", "195520.757500", "195522.247500", "195523.737500", "195525.227500", "195526.717500", "195528.207500", "195529.697500", "195531.187500", "195532.677500", "195534.167500", "195535.657500", "195537.147500", "195538.637500", "195540.127500", "195541.617500", "195543.107500", "195544.597500", "195546.087500", "195547.577500", "195549.067500", "195550.557500", "195552.047500", "195553.537500", "195555.027500", "195556.517500", "195558.007500", "195559.497500", "195600.987500", "195602.477500", "195603.967500", "195605.457500", "195606.947500", "195608.437500", "195609.927500", "195611.417500", "195612.907500", "195614.397500", "195615.887500", "195617.377500", "195618.867500", "195620.357500", "195621.847500", "195623.337500", "195624.827500", "195626.317500", "195627.807500", "195629.297500", "195630.787500", "195632.277500", "195633.767500", "195635.257500", "195636.747500", "195638.237500", "195639.727500", "195641.217500", "195642.707500", "195644.197500", "195645.687500", "195647.177500", "195648.667500", "195650.157500", "195651.647500", "195653.137500", "195654.627500", "195656.117500", "195657.607500", "195659.097500", "195700.587500", "195702.077500", "195703.567500", "195705.057500", "195706.547500", "195708.037500", "195709.527500", "195711.017500", "195712.507500", "195713.997500", "195715.487500", "195716.977500", "195718.467500", "195719.957500", "195721.447500", "195722.937500", "195724.427500", "195725.917500", "195727.407500", "195728.897500", "195730.387500", "195731.877500", "195733.367500", "195734.857500", "195736.347500", "195737.837500", "195739.327500", "195740.817500", "195742.307500", "195743.797500", "195745.287500", "195746.777500", "195748.267500", "195749.757500", "195751.247500", "195752.737500", "195754.227500", "195755.717500", "195757.207500", "195758.697500", "195800.187500", "195801.677500", "195803.167500", "195804.657500", "195806.147500", "195807.637500", "195809.127500", "195810.617500", "195812.107500", "195813.597500", "195815.087500", "195816.577500", "195818.067500", "195819.557500", "195821.047500", "195822.537500", "195824.027500", "195825.517500", "195827.007500", "195828.497500", "195829.987500", "195831.477500", "195832.967500", "195834.457500", "195835.947500", "195837.437500", "195838.927500", "195840.417500", "195841.907500", "195843.397500", "195844.887500", "195846.377500", "195847.867500", "195849.357500", "195850.847500", "195852.337500", "195853.827500", "195855.317500", "195856.807500", "195858.297500", "195859.787500", "195901.277500", "195902.767500", "195904.257500", "195905.747500", "195907.237500", "195908.727500", "195910.217500", "195911.707500", "195913.197500", "195914.687500", "195916.177500", "195917.667500", "195919.157500", "195920.647500", "195922.137500", "195923.627500", "195925.117500", "195926.607500", "195928.097500", "195929.587500", "195931.077500", "195932.567500", "195934.057500", "195935.547500", "195937.037500", "195938.527500", "195940.017500", "195941.507500", "195942.997500", "195944.487500", "195945.977500", "195947.467500", "195948.957500", "195950.447500", "195951.937500", "195953.427500", "195954.917500", "195956.407500", "195957.897500", "195959.387500", "200000.877500", "200002.367500", "200003.857500", "200005.347500", "200006.837500", "200008.327500", "200009.817500", "200011.307500", "200012.797500", "200014.287500", "200015.777500", "200017.267500", "200018.757500", "200020.247500", "200021.737500", "200023.227500", "200024.717500", "200026.207500", "200027.697500", "200029.187500", "200030.677500", "200032.167500", "200033.657500", "200035.147500", "200036.637500", "200038.127500", "200039.617500", "200041.107500", "200042.597500", "200044.087500", "200045.577500", "200047.067500", "200048.557500", "200050.047500", "200051.537500", "200053.027500", "200054.517500", "200056.007500", "200057.497500", "200058.987500", "200100.477500", "200101.967500", "200103.457500", "200104.947500", "200106.437500", "200107.927500", "200109.417500", "200110.907500", "200112.397500", "200113.887500", "200115.377500", "200116.867500", "200118.357500", "200119.847500", "200121.337500", "200122.827500", "200124.317500", "200125.807500", "200127.297500", "200128.787500", "200130.277500", "200131.767500", "200133.257500", "200134.747500", "200136.237500", "200137.727500", "200139.217500", "200140.707500", "200142.197500", "200143.687500", "200145.177500", "200146.667500", "200148.157500", "200149.647500", "200151.137500", "200152.627500", "200154.117500", "200155.607500", "200157.097500", "200158.587500", "200200.077500", "200201.567500", "200203.057500", "200204.547500", "200206.037500", "200207.527500", "200209.017500", "200210.507500", "200211.997500", "200213.487500", "200214.977500", "200216.467500", "200217.957500", "200219.447500", "200220.937500", "200222.427500", "200223.917500", "200225.407500", "200226.897500", "200228.387500", "200229.877500", "200231.367500", "200232.857500", "200234.347500", "200235.837500", "200237.327500", "200238.817500", "200240.307500", "200241.797500", "200243.287500", "200244.777500", "200246.267500", "200247.757500", "200249.247500", "200250.737500", "200252.227500", "200253.717500", "200255.207500", "200256.697500", "200258.187500", "200259.677500", "200301.167500", "200302.657500", "200304.147500", "200305.637500", "200307.127500", "200308.617500", "200310.107500", "200311.597500", "200313.087500", "200314.577500", "200316.067500", "200317.557500", "200319.047500", "200320.537500", "200322.027500", "200323.517500", "200325.007500", "200326.497500", "200327.987500", "200329.477500", "200330.967500", "200332.457500", "200333.947500", "200335.437500", "200336.927500", "200338.417500", "200339.907500", "200341.397500", "200342.887500", "200344.377500", "200345.867500", "200347.357500", "200348.847500", "200350.337500", "200351.827500", "200353.317500", "200354.807500", "200356.297500", "200357.787500", "200359.277500", "200400.767500", "200402.257500", "200403.747500", "200405.237500", "200406.727500", "200408.217500", "200409.707500", "200411.197500", "200412.687500", "200414.177500", "200415.667500", "200417.157500", "200418.647500", "200420.137500", "200421.627500", "200423.117500", "200424.607500", "200426.097500", "200427.587500", "200429.077500", "200430.567500", "200432.057500", "200433.547500", "200435.037500", "200436.527500", "200438.017500", "200439.507500", "200440.997500", "200442.487500", "200443.977500", "200445.467500", "200446.957500", "200448.447500", "200449.937500", "200451.427500", "200452.917500", "200454.407500", "200455.897500", "200457.387500", "200458.877500", "200500.367500", "200501.857500", "200503.347500", "200504.837500", "200506.327500", "200507.817500", "200509.307500", "200510.797500", "200512.287500", "200513.777500", "200515.267500", "200516.757500", "200518.247500", "200519.737500", "200521.227500", "200522.717500", "200524.207500", "200525.697500", "200527.187500", "200528.677500", "200530.167500", "200531.657500", "200533.147500", "200534.637500", "200536.127500", "200537.617500", "200539.107500", "200540.597500", "200542.087500", "200543.577500", "200545.067500", "200546.557500", "200548.047500", "200549.537500", "200551.027500", "200552.517500", "200554.007500", "200555.497500", "200556.987500", "200558.477500", "200559.967500", "200601.457500", "200602.947500", "200604.437500", "200605.927500", "200607.417500", "200608.907500", "200610.397500", "200611.887500", "200613.377500", "200614.867500", "200616.357500", "200617.847500", "200619.337500", "200620.827500", "200622.317500", "200623.807500", "200625.297500", "200626.787500", "200628.277500", "200629.767500", "200631.257500", "200632.747500", "200634.237500", "200635.727500", "200637.217500", "200638.707500", "200640.197500", "200641.687500", "200643.177500", "200644.667500", "200646.157500", "200647.647500", "200649.137500", "200650.627500", "200652.117500", "200653.607500", "200655.097500", "200656.587500", "200658.077500", "200659.567500", "200701.057500", "200702.547500", "200704.037500", "200705.527500", "200707.017500", "200708.507500", "200709.997500", "200711.487500", "200712.977500", "200714.467500", "200715.957500", "200717.447500", "200718.937500", "200720.427500", "200721.917500", "200723.407500", "200724.897500", "200726.387500", "200727.877500", "200729.367500", "200730.857500", "200732.347500", "200733.837500", "200735.327500", "200736.817500", "200738.307500", "200739.797500", "200741.287500", "200742.777500", "200744.267500", "200745.757500", "200747.247500", "200748.737500"],
      "ContentTime": ["195628.060000", "195628.064000", "195628.067000", "195628.070000", "195628.073000", "195628.076000", "195628.078000", "195628.081000", "195628.084000", "195628.087000", "195628.090000", "195628.093000", "195628.096000", "195628.099000", "195628.102000", "195628.105000", "195628.108000", "195628.111000", "195628.114000", "195628.116000", "195628.119000", "195628.122000", "195628.125000", "195628.128000", "195628.138000", "195628.141000", "195628.144000", "195628.146000", "195628.149000", "195628.152000", "195648.023000", "195648.026000", "195648.029000", "195648.032000", "195648.035000", "195648.038000", "195648.041000", "195648.044000", "195648.047000", "195648.050000", "195648.053000", "195648.056000", "195648.058000", "195648.061000", "195648.064000", "195648.067000", "195648.070000", "195648.073000", "195648.076000", "195648.079000", "195708.023000", "195708.026000", "195708.029000", "195708.032000", "195708.035000", "195708.038000", "195708.041000", "195708.044000", "195708.047000", "195708.050000", "195708.053000", "195708.055000", "195708.058000", "195708.061000", "195708.064000", "195708.067000", "195708.070000", "195708.073000", "195708.076000", "195708.079000", "195728.023000", "195728.026000", "195728.029000", "195728.032000", "195728.035000", "195728.038000", "195728.041000", "195728.044000", "195728.047000", "195728.050000", "195728.054000", "195728.057000", "195728.059000", "195728.062000", "195728.066000", "195728.075000", "195728.078000", "195728.081000", "195728.084000", "195728.087000", "195748.023000", "195748.026000", "195748.029000", "195748.032000", "195748.035000", "195748.038000", "195748.041000", "195748.044000", "195748.047000", "195748.049000", "195748.052000", "195748.055000", "195748.058000", "195748.061000", "195748.064000", "195748.067000", "195748.070000", "195748.073000", "195748.076000", "195748.079000", "195828.023000", "195828.026000", "195828.029000", "195828.032000", "195828.035000", "195828.038000", "195828.041000", "195828.044000", "195828.047000", "195828.060000", "195828.063000", "195828.066000", "195828.069000", "195828.071000", "195828.074000", "195828.077000", "195828.087000", "195828.090000", "195828.093000", "195828.096000", "195828.099000", "195828.102000", "195828.105000", "195828.108000", "195828.111000", "195828.114000", "195828.116000", "195908.023000", "195908.026000", "195908.029000", "195908.032000", "195908.035000", "195908.038000", "195908.041000", "195908.044000", "195908.047000", "195908.050000", "195908.052000", "195908.055000", "195908.058000", "195908.061000", "195908.064000", "195908.067000", "195908.070000", "195908.073000", "195908.076000", "195908.079000", "195908.082000", "195908.085000", "195908.088000", "195908.091000", "195908.093000", "195908.096000", "195908.099000", "195948.023000", "195948.026000", "195948.029000", "195948.032000", "195948.035000", "195948.038000", "195948.041000", "195948.044000", "195948.047000", "195948.050000", "195948.053000", "195948.056000", "195948.059000", "195948.062000", "195948.065000", "195948.068000", "195948.071000", "195948.074000", "195948.076000", "195948.079000", "195948.082000", "195948.085000", "195948.088000", "195948.091000", "195948.094000", "195948.097000", "200028.023000", "200028.026000", "200028.029000", "200028.032000", "200028.035000", "200028.038000", "200028.041000", "200028.044000", "200028.047000", "200028.050000", "200028.053000", "200028.055000", "200028.059000", "200028.061000", "200028.064000", "200028.067000", "200028.070000", "200028.073000", "200028.076000", "200028.079000", "200028.082000", "200028.085000", "200028.088000", "200028.091000", "200028.094000", "200028.097000", "200028.099000", "200108.023000", "200108.026000", "200108.029000", "200108.032000", "200108.035000", "200108.038000", "200108.041000", "200108.044000", "200108.047000", "200108.050000", "200108.053000", "200108.056000", "200108.059000", "200108.062000", "200108.065000", "200108.068000", "200108.071000", "200108.073000", "200108.076000", "200108.079000", "200108.082000", "200108.085000", "200108.088000", "200108.091000", "200108.094000", "200108.097000", "200108.100000", "200148.023000", "200148.026000", "200148.029000", "200148.032000", "200148.035000", "200148.038000", "200148.041000", "200148.044000", "200148.047000", "200148.050000", "200148.053000", "200148.056000", "200148.059000", "200148.062000", "200148.065000", "200148.068000", "200148.071000", "200148.074000", "200148.077000", "200148.080000", "200148.082000", "200148.085000", "200148.088000", "200148.091000", "200148.094000", "200148.097000", "200148.100000", "200228.023000", "200228.026000", "200228.029000", "200228.032000", "200228.035000", "200228.038000", "200228.041000", "200228.044000", "200228.047000", "200228.050000", "200228.053000", "200228.056000", "200228.058000", "200228.062000", "200228.064000", "200228.067000", "200228.070000", "200228.073000", "200228.076000", "200228.079000", "200228.082000", "200228.085000", "200228.088000", "200228.091000", "200228.094000", "200228.097000", "200228.100000", "200308.023000", "200308.026000", "200308.029000", "200308.032000", "200308.035000", "200308.038000", "200308.041000", "200308.044000", "200308.047000", "200308.050000", "200308.053000", "200308.056000", "200308.059000", "200308.061000", "200308.064000", "200308.067000", "200308.070000", "200308.073000", "200308.076000", "200308.079000", "200308.082000", "200308.085000", "200308.088000", "200308.105000", "200308.108000", "200308.110000", "200308.113000", "200348.023000", "200348.026000", "200348.029000", "200348.032000", "200348.035000", "200348.038000", "200348.041000", "200348.044000", "200348.047000", "200348.050000", "200348.053000", "200348.056000", "200348.059000", "200348.062000", "200348.064000", "200348.068000", "200348.070000", "200348.073000", "200348.076000", "200348.079000", "200348.082000", "200348.085000", "200348.088000", "200348.091000", "200348.094000", "200348.097000", "200348.100000", "200428.023000", "200428.026000", "200428.029000", "200428.032000", "200428.035000", "200428.038000", "200428.041000", "200428.044000", "200428.047000", "200428.050000", "200428.053000", "200428.056000", "200428.059000", "200428.062000", "200428.064000", "200428.067000", "200428.074000", "200428.076000", "200428.079000", "200428.082000", "200428.085000", "200428.088000", "200428.091000", "200428.094000", "200428.097000", "200428.100000", "200508.023000", "200508.026000", "200508.029000", "200508.032000", "200508.035000", "200508.038000", "200508.041000", "200508.044000", "200508.047000", "200508.050000", "200508.053000", "200508.056000", "200508.059000", "200508.061000", "200508.064000", "200508.067000", "200508.070000", "200508.073000", "200508.076000", "200508.079000", "200508.082000", "200508.085000", "200508.088000", "200508.091000", "200508.094000", "200508.097000", "200508.099000", "200548.023000", "200548.026000", "200548.029000", "200548.032000", "200548.035000", "200548.038000", "200548.041000", "200548.044000", "200548.047000", "200548.050000", "200548.053000", "200548.056000", "200548.059000", "200548.062000", "200548.064000", "200548.068000", "200548.070000", "200548.073000", "200548.076000", "200548.079000", "200548.082000", "200548.085000", "200548.088000", "200548.092000", "200548.095000", "200548.098000", "200548.101000", "200628.023000", "200628.026000", "200628.029000", "200628.032000", "200628.035000", "200628.038000", "200628.041000", "200628.043000", "200628.047000", "200628.049000", "200628.052000", "200628.055000", "200628.058000", "200628.061000", "200628.064000", "200628.067000", "200628.070000", "200628.073000", "200628.076000", "200628.079000", "200628.082000", "200628.085000", "200628.088000", "200628.090000", "200628.093000", "200628.096000", "200628.099000", "200708.023000", "200708.026000", "200708.029000", "200708.032000", "200708.035000", "200708.038000", "200708.041000", "200708.044000", "200708.047000", "200708.050000", "200708.052000", "200708.055000", "200708.058000", "200708.061000", "200708.064000", "200708.067000", "200708.070000", "200708.073000", "200708.076000", "200708.079000", "200708.082000", "200708.085000", "200708.087000", "200708.091000", "200708.094000", "200708.097000", "200708.100000", "200748.023000", "200748.026000", "200748.029000", "200748.032000", "200748.035000", "200748.038000", "200748.041000", "200748.044000", "200748.047000", "200748.050000", "200748.071000", "200748.074000", "200748.077000", "200748.080000", "200748.083000", "200748.086000", "200748.089000", "200748.092000", "200748.095000", "200748.098000", "200748.101000", "200748.104000", "200748.107000", "200748.110000", "200748.113000", "200748.116000", "200748.119000", "200750.922000", "200750.925000"],
