{
  "AcquisitionMatrixPE": 104,
  "AcquisitionNumber": 1,
  "AcquisitionTime": "10:14:50.370000",
  "BandwidthPerPixelPhaseEncode": 17.17,
  "BaseResolution": 104,
  "BodyPartExamined": "BRAIN",
  "CoilCombinationMethod": "Sum of Squares",
  "ConsistencyInfo": "N4_VE11C_LATEST_20160120",
  "ConversionSoftware": "dcm2niix",
  "ConversionSoftwareVersion": "v1.0.20230411",
  "DerivedVendorReportedEchoSpacing": 0.000560011,
  "DeviceSerialNumber": "167006",
  "DwellTime": 2.1e-06,
  "EchoTime": 0.037,
  "EchoTrainLength": 104,
  "EffectiveEchoSpacing": 0.000560011,
  "FlipAngle": 52,
  "HeudiconvVersion": "0.5.3.post861+ge7d3c7f",
  "ImageComments": "Unaliased MB4/PE3/LB",
  "ImageOrientationPatientDICOM": [0.997791, 0.0664227, 0.00107476, -0.0613771, 0.927946, -0.367627],
  "ImageOrientationText": "Tra>Cor(-21.5)>Sag(1.5)",
  "ImageType": [
    "ORIGINAL",
    "PRIMARY",
    "M",
    "MB",
    "ND",
    "MOSAIC"
],
  "ImagingFrequency": 123.249565,
  "InPlanePhaseEncodingDirectionDICOM": "COL",
  "InstitutionAddress": "Chemin Queen-Mary 4565,Montreal,District,CA,H3W 1W5",
  "InstitutionName": "IUGM",
  "InstitutionalDepartmentName": "Department",
  "MRAcquisitionType": "2D",
  "MagneticFieldStrength": 3,
  "Manufacturer": "Siemens",
  "ManufacturersModelName": "Prisma_fit",
  "MatrixCoilMode": "SENSE",
  "Modality": "MR",
  "MultibandAccelerationFactor": 4,
  "NonlinearGradientCorrection": false,
  "PartialFourier": 1,
  "PatientPosition": "HFS",
  "PercentPhaseFOV": 100,
  "PercentSampling": 100,
  "PhaseEncodingDirection": "j",
  "PhaseEncodingSteps": 104,
  "PhaseResolution": 1,
  "PixelBandwidth": 2290,
  "ProcedureStepDescription": "video^friends",
  "ProtocolName": "func_task-friends-s07e18a",
  "PulseSequenceDetails": "%CustomerSeq%\\cmrr_mbep2d_bold",
  "ReceiveCoilActiveElements": "HC1-7;NC1,2",
  "ReceiveCoilName": "HeadNeck_64",
  "ReconMatrixPE": 104,
  "RepetitionTime": 1.49,
  "SAR": 0.0629642,
  "ScanOptions": "FS",
  "ScanningSequence": "EP",
  "SequenceName": "epfid2d1_104",
  "SequenceVariant": "SK\\SS",
  "SeriesDescription": "func_task-friends-s07e18a",
  "SeriesNumber": 12,
  "ShimSetting": [605, -7208, -8809, 607, 107, -18, -107, 58],
  "SliceThickness": 2,
  "SliceTiming": [0, 0.785, 0.0975, 0.8825, 0.1975, 0.98, 0.295, 1.0775, 0.3925, 1.1775, 0.49, 1.275, 0.5875, 1.3725, 0.6875, 0, 0.785, 0.0975, 0.8825, 0.1975, 0.98, 0.295, 1.0775, 0.3925, 1.1775, 0.49, 1.275, 0.5875, 1.3725, 0.6875, 0, 0.785, 0.0975, 0.8825, 0.1975, 0.98, 0.295, 1.0775, 0.3925, 1.1775, 0.49, 1.275, 0.5875, 1.3725, 0.6875, 0, 0.785, 0.0975, 0.8825, 0.1975, 0.98, 0.295, 1.0775, 0.3925, 1.1775, 0.49, 1.275, 0.5875, 1.3725, 0.6875],
  "SoftwareVersions": "syngo MR E11",
  "SpacingBetweenSlices": 2,
  "StationName": "MRC35049",
  "TaskName": "s07e18a",
  "TotalReadoutTime": 0.0576811,
  "TxRefAmp": 270.201,
  "WipMemBlock": "c2d092fc-2f50-40fa-a28b-1980aa8aec22||Sequence: R017 ve11c/master r/75a17815+; Jun 28 2022 16:32:11 by eja",
  "dcmmeta_affine": [
    [-1.9955819845199585, -0.1227542832493782, 0.050832219421863556, 108.06460571289062],
    [-0.1328454315662384, 1.855891227722168, -0.733498215675354, -60.745849609375],
    [0.002149510197341442, 0.7352544069290161, 1.8599451780319214, -61.60017776489258],
    [0.0, 0.0, 0.0, 1.0]
],
  "dcmmeta_reorient_transform": [
    [0.0, -1.0, 0.0, 103.0],
    [1.0, 0.0, 0.0, 0.0],
    [0.0, 0.0, 1.0, 0.0],
    [0.0, 0.0, 0.0, 1.0]
],
  "dcmmeta_shape": [104, 104, 60, 477],
  "dcmmeta_slice_dim": 2,
  "dcmmeta_version": 0.6,
  "global": {
    "const": {
      "AcquisitionMatrix": [104, 0, 0, 104],
      "AngioFlag": "N",
      "BitsAllocated": 16,
      "BitsStored": 16,
      "BodyPartExamined": "BRAIN",
      "Columns": 832,
      "EchoNumbers": 1,
      "EchoTime": 37.0,
      "EchoTrainLength": 104,
      "FlipAngle": 52.0,
      "HighBit": 15,
      "ImageOrientationPatient": [0.99779099408506, 0.06642271467161, 0.00107475504218, -0.0613771412067, 0.92794563155761, -0.3676271907931],
      "ImagePositionPatient": [-777.13020010648, -854.31110522177, 280.98119762021],
      "ImageType": [
        "ORIGINAL",
        "PRIMARY",
        "M",
        "MB",
        "ND",
        "MOSAIC"
],
      "ImagedNucleus": "1H",
      "ImagingFrequency": 123.249565,
      "InPlanePhaseEncodingDirection": "COL",
      "MRAcquisitionType": "2D",
      "MagneticFieldStrength": 3.0,
      "Manufacturer": "SIEMENS",
      "ManufacturerModelName": "Prisma_fit",
      "Modality": "MR",
      "NumberOfAverages": 1.0,
      "NumberOfPhaseEncodingSteps": 104,
      "PercentPhaseFieldOfView": 100.0,
      "PercentSampling": 100.0,
      "PerformedProcedureStepStartTime": "095615.991000",
      "PhotometricInterpretation": "MONOCHROME2",
      "PixelBandwidth": 2290.0,
      "PixelRepresentation": 0,
      "PixelSpacing": [2.0, 2.0],
      "ProtocolName": "func_task-friends-s07e18a",
      "RepetitionTime": 1490.0,
      "Rows": 832,
      "SAR": 0.06296421826092,
      "SamplesPerPixel": 1,
      "ScanOptions": "FS",
      "ScanningSequence": "EP",
      "SequenceName": "epfid2d1_104",
      "SequenceVariant": [
        "SK",
        "SS"
],
      "SeriesDescription": "func_task-friends-s07e18a",
      "SeriesNumber": 12,
      "SeriesTime": "101611.718000",
      "SliceLocation": -32.261408342689,
      "SliceThickness": 2.0,
      "SmallestImagePixelValue": 0,
      "SoftwareVersions": "syngo MR E11",
      "SpacingBetweenSlices": 1.9999999295605,
      "SpecificCharacterSet": "ISO_IR 100",
      "StudyID": "1",
      "StudyTime": "095615.916000",
      "TransmitCoilName": "Body",
      "VariableFlipAngleFlag": "N",
      "WindowCenterWidthExplanation": "Algo1",
      "dBdt": 0.0},
    "slices": {}
  },
  "time": {
    "samples": {
      "AcquisitionNumber": [1, 2, 3, 4, 5, 6, 7, 8, 9, 10, 11, 12, 13, 14, 15, 16, 17, 18, 19, 20, 21, 22, 23, 24, 25, 26, 27, 28, 29, 30, 31, 32, 33, 34, 35, 36, 37, 38, 39, 40, 41, 42, 43, 44, 45, 46, 47, 48, 49, 50, 51, 52, 53, 54, 55, 56, 57, 58, 59, 60, 61, 62, 63, 64, 65, 66, 67, 68, 69, 70, 71, 72, 73, 74, 75, 76, 77, 78, 79, 80, 81, 82, 83, 84, 85, 86, 87, 88, 89, 90, 91, 92, 93, 94, 95, 96, 97, 98, 99, 100, 101, 102, 103, 104, 105, 106, 107, 108, 109, 110, 111, 112, 113, 114, 115, 116, 117, 118, 119, 120, 121, 122, 123, 124, 125, 126, 127, 128, 129, 130, 131, 132, 133, 134, 135, 136, 137, 138, 139, 140, 141, 142, 143, 144, 145, 146, 147, 148, 149, 150, 151, 152, 153, 154, 155, 156, 157, 158, 159, 160, 161, 162, 163, 164, 165, 166, 167, 168, 169, 170, 171, 172, 173, 174, 175, 176, 177, 178, 179, 180, 181, 182, 183, 184, 185, 186, 187, 188, 189, 190, 191, 192, 193, 194, 195, 196, 197, 198, 199, 200, 201, 202, 203, 204, 205, 206, 207, 208, 209, 210, 211, 212, 213, 214, 215, 216, 217, 218, 219, 220, 221, 222, 223, 224, 225, 226, 227, 228, 229, 230, 231, 232, 233, 234, 235, 236, 237, 238, 239, 240, 241, 242, 243, 244, 245, 246, 247, 248, 249, 250, 251, 252, 253, 254, 255, 256, 257, 258, 259, 260, 261, 262, 263, 264, 265, 266, 267, 268, 269, 270, 271, 272, 273, 274, 275, 276, 277, 278, 279, 280, 281, 282, 283, 284, 285, 286, 287, 288, 289, 290, 291, 292, 293, 294, 295, 296, 297, 298, 299, 300, 301, 302, 303, 304, 305, 306, 307, 308, 309, 310, 311, 312, 313, 314, 315, 316, 317, 318, 319, 320, 321, 322, 323, 324, 325, 326, 327, 328, 329, 330, 331, 332, 333, 334, 335, 336, 337, 338, 339, 340, 341, 342, 343, 344, 345, 346, 347, 348, 349, 350, 351, 352, 353, 354, 355, 356, 357, 358, 359, 360, 361, 362, 363, 364, 365, 366, 367, 368, 369, 370, 371, 372, 373, 374, 375, 376, 377, 378, 379, 380, 381, 382, 383, 384, 385, 386, 387, 388, 389, 390, 391, 392, 393, 394, 395, 396, 397, 398, 399, 400, 401, 402, 403, 404, 405, 406, 407, 408, 409, 410, 411, 412, 413, 414, 415, 416, 417, 418, 419, 420, 421, 422, 423, 424, 425, 426, 427, 428, 429, 430, 431, 432, 433, 434, 435, 436, 437, 438, 439, 440, 441, 442, 443, 444, 445, 446, 447, 448, 449, 450, 451, 452, 453, 454, 455, 456, 457, 458, 459, 460, 461, 462, 463, 464, 465, 466, 467, 468, 469, 470, 471, 472, 473, 474, 475, 476, 477],
      "AcquisitionTime": ["101450.370000", "101451.860000", "101453.350000", "101454.840000", "101456.330000", "101457.820000", "101459.310000", "101500.800000", "101502.290000", "101503.780000", "101505.270000", "101506.760000", "101508.250000", "101509.740000", "101511.230000", "101512.720000", "101514.210000", "101515.700000", "101517.190000", "101518.680000", "101520.170000", "101521.660000", "101523.150000", "101524.640000", "101526.130000", "101527.620000", "101529.110000", "101530.600000", "101532.090000", "101533.580000", "101535.070000", "101536.560000", "101538.050000", "101539.540000", "101541.030000", "101542.520000", "101544.010000", "101545.500000", "101546.990000", "101548.480000", "101549.970000", "101551.460000", "101552.950000", "101554.440000", "101555.930000", "101557.420000", "101558.910000", "101600.400000", "101601.890000", "101603.380000", "101604.870000", "101606.360000", "101607.850000", "101609.340000", "101610.830000", "101612.320000", "101613.810000", "101615.300000", "101616.790000", "101618.280000", "101619.770000", "101621.260000", "101622.750000", "101624.240000", "101625.730000", "101627.220000", "101628.710000", "101630.200000", "101631.690000", "101633.180000", "101634.670000", "101636.160000", "101637.650000", "101639.140000", "101640.630000", "101642.120000", "101643.610000", "101645.100000", "101646.590000", "101648.080000", "101649.570000", "101651.060000", "101652.550000", "101654.040000", "101655.530000", "101657.020000", "101658.510000", "101700.000000", "101701.490000", "101702.980000", "101704.470000", "101705.960000", "101707.450000", "101708.940000", "101710.430000", "101711.920000", "101713.410000", "101714.900000", "101716.390000", "101717.880000", "101719.370000", "101720.860000", "101722.350000", "101723.840000", "101725.330000", "101726.820000", "101728.310000", "101729.800000", "101731.290000", "101732.780000", "101734.270000", "101735.760000", "101737.250000", "101738.740000", "101740.230000", "101741.720000", "101743.210000", "101744.700000", "101746.190000", "101747.680000", "101749.170000", "101750.660000", "101752.150000", "101753.640000", "101755.130000", "101756.620000", "101758.110000", "101759.600000", "101801.090000", "101802.580000", "101804.070000", "101805.560000", "101807.050000", "101808.540000", "101810.030000", "101811.520000", "101813.010000", "101814.500000", "101815.990000", "101817.480000", "101818.970000", "101820.460000", "101821.950000", "101823.440000", "101824.930000", "101826.420000", "101827.910000", "101829.400000", "101830.890000", "101832.380000", "101833.870000", "101835.360000", "101836.850000", "101838.340000", "101839.830000", "101841.320000", "101842.810000", "101844.300000", "101845.790000", "101847.280000", "101848.770000", "101850.260000", "101851.750000", "101853.240000", "101854.730000", "101856.220000", "101857.710000", "101859.200000", "101900.690000", "101902.180000", "101903.670000", "101905.160000", "101906.650000", "101908.140000", "101909.630000", "101911.120000", "101912.610000", "101914.100000", "101915.590000", "101917.080000", "101918.570000", "101920.060000", "101921.550000", "101923.040000", "101924.530000", "101926.020000", "101927.510000", "101929.000000", "101930.490000", "101931.980000", "101933.470000", "101934.960000", "101936.450000", "101937.940000", "101939.430000", "101940.920000", "101942.410000", "101943.900000", "101945.390000", "101946.880000", "101948.370000", "101949.860000", "101951.350000", "101952.840000", "101954.330000", "101955.820000", "101957.310000", "101958.800000", "102000.290000", "102001.780000", "102003.270000", "102004.760000", "102006.250000", "102007.740000", "102009.230000", "102010.720000", "102012.210000", "102013.700000", "102015.190000", "102016.680000", "102018.170000", "102019.660000", "102021.150000", "102022.640000", "102024.130000", "102025.620000", "102027.110000", "102028.600000", "102030.090000", "102031.580000", "102033.070000", "102034.560000", "102036.050000", "102037.540000", "102039.030000", "102040.520000", "102042.010000", "102043.500000", "102044.990000", "102046.480000", "102047.970000", "102049.460000", "102050.950000", "102052.440000", "102053.930000", "102055.420000", "102056.910000", "102058.400000", "102059.890000", "102101.380000", "102102.870000", "102104.360000", "102105.850000", "102107.340000", "102108.830000", "102110.320000", "102111.810000", "102113.300000", "102114.790000", "102116.280000", "102117.770000", "102119.260000", "102120.750000", "102122.240000", "102123.730000", "102125.220000", "102126.710000", "102128.200000", "102129.690000", "102131.180000", "102132.670000", "102134.160000", "102135.650000", "102137.140000", "102138.630000", "102140.120000", "102141.610000", "102143.100000", "102144.590000", "102146.080000", "102147.570000", "102149.060000", "102150.550000", "102152.040000", "102153.530000", "102155.020000", "102156.510000", "102158.000000", "102159.490000", "102200.980000", "102202.470000", "102203.960000", "102205.450000", "102206.940000", "102208.430000", "102209.920000", "102211.410000", "102212.900000", "102214.390000", "102215.880000", "102217.370000", "102218.860000", "102220.350000", "102221.840000", "102223.330000", "102224.820000", "102226.310000", "102227.800000", "102229.290000", "102230.780000", "102232.270000", "102233.760000", "102235.250000", "102236.740000", "102238.230000", "102239.720000", "102241.210000", "102242.700000", "102244.190000", "102245.680000", "102247.170000", "102248.660000", "102250.150000", "102251.640000", "102253.130000", "102254.620000", "102256.110000", "102257.600000", "102259.090000", "102300.580000", "102302.070000", "102303.560000", "102305.050000", "102306.540000", "102308.030000", "102309.520000", "102311.010000", "102312.500000", "102313.990000", "102315.480000", "102316.970000", "102318.460000", "102319.950000", "102321.440000", "102322.930000", "102324.420000", "102325.910000", "102327.400000", "102328.890000", "102330.380000", "102331.870000", "102333.360000", "102334.850000", "102336.340000", "102337.830000", "102339.320000", "102340.810000", "102342.300000", "102343.790000", "102345.280000", "102346.770000", "102348.260000", "102349.750000", "102351.240000", "102352.730000", "102354.220000", "102355.710000", "102357.200000", "102358.690000", "102400.180000", "102401.670000", "102403.160000", "102404.650000", "102406.140000", "102407.630000", "102409.120000", "102410.610000", "102412.100000", "102413.590000", "102415.080000", "102416.570000", "102418.060000", "102419.550000", "102421.040000", "102422.530000", "102424.020000", "102425.510000", "102427.000000", "102428.490000", "102429.980000", "102431.470000", "102432.960000", "102434.450000", "102435.940000", "102437.430000", "102438.920000", "102440.410000", "102441.900000", "102443.390000", "102444.880000", "102446.370000", "102447.860000", "102449.350000", "102450.840000", "102452.330000", "102453.820000", "102455.310000", "102456.800000", "102458.290000", "102459.780000", "102501.270000", "102502.760000", "102504.250000", "102505.740000", "102507.230000", "102508.720000", "102510.210000", "102511.700000", "102513.190000", "102514.680000", "102516.170000", "102517.660000", "102519.150000", "102520.640000", "102522.130000", "102523.620000", "102525.110000", "102526.600000", "102528.090000", "102529.580000", "102531.070000", "102532.560000", "102534.050000", "102535.540000", "102537.030000", "102538.520000", "102540.010000", "102541.500000", "102542.990000", "102544.480000", "102545.970000", "102547.460000", "102548.950000", "102550.440000", "102551.930000", "102553.420000", "102554.910000", "102556.400000", "102557.890000", "102559.380000", "102600.870000", "102602.360000", "102603.850000", "102605.340000", "102606.830000", "102608.320000", "102609.810000", "102611.300000", "102612.790000", "102614.280000", "102615.770000", "102617.260000", "102618.750000", "102620.240000", "102621.730000", "102623.220000", "102624.710000", "102626.200000", "102627.690000", "102629.180000", "102630.670000", "102632.160000", "102633.650000", "102635.140000", "102636.630000", "102638.120000", "102639.610000"],
      "ContentTime": ["101611.722000", "101611.725000", "101611.728000", "101611.731000", "101611.734000", "101611.737000", "101611.749000", "101611.761000", "101611.764000", "101611.767000", "101611.770000", "101611.774000", "101611.777000", "101611.780000", "101611.783000", "101611.786000", "101611.789000", "101611.792000", "101611.795000", "101611.798000", "101611.801000", "101611.804000", "101611.807000", "101611.810000", "101611.813000", "101611.875000", "101611.878000", "101611.881000", "101611.884000", "101611.887000", "101611.890000", "101631.685000", "101631.688000", "101631.691000", "101631.694000", "101631.697000", "101631.700000", "101631.703000", "101631.707000", "101631.710000", "101631.713000", "101631.716000", "101631.719000", "101631.722000", "101631.725000", "101631.728000", "101631.731000", "101631.734000", "101631.737000", "101631.740000", "101631.743000", "101651.685000", "101651.688000", "101651.691000", "101651.694000", "101651.697000", "101651.700000", "101651.703000", "101651.707000", "101651.710000", "101651.713000", "101651.716000", "101651.719000", "101651.722000", "101651.725000", "101651.728000", "101651.731000", "101651.734000", "101651.737000", "101651.740000", "101651.743000", "101711.685000", "101711.688000", "101711.691000", "101711.694000", "101711.704000", "101711.707000", "101711.711000", "101711.714000", "101711.717000", "101711.720000", "101711.723000", "101711.726000", "101711.729000", "101711.732000", "101711.735000", "101711.738000", "101711.741000", "101711.744000", "101711.747000", "101711.750000", "101751.685000", "101751.688000", "101751.692000", "101751.695000", "101751.698000", "101751.701000", "101751.704000", "101751.707000", "101751.710000", "101751.713000", "101751.716000", "101751.719000", "101751.722000", "101751.725000", "101751.728000", "101751.731000", "101751.734000", "101751.737000", "101751.740000", "101751.743000", "101751.746000", "101751.749000", "101751.752000", "101751.756000", "101751.759000", "101751.762000", "101751.765000", "101751.768000", "101751.771000", "101831.685000", "101831.688000", "101831.691000", "101831.695000", "101831.698000", "101831.701000", "101831.704000", "101831.707000", "101831.710000", "101831.713000", "101831.716000", "101831.719000", "101831.722000", "101831.726000", "101831.729000", "101831.732000", "101831.735000", "101831.738000", "101831.741000", "101831.744000", "101831.748000", "101831.751000", "101831.754000", "101831.757000", "101831.760000", "101831.763000", "101831.766000", "101911.685000", "101911.688000", "101911.691000", "101911.694000", "101911.698000", "101911.701000", "101911.704000", "101911.707000", "101911.710000", "101911.713000", "101911.716000", "101911.719000", "101911.722000", "101911.725000", "101911.728000", "101911.731000", "101911.734000", "101911.737000", "101911.740000", "101911.743000", "101911.746000", "101911.749000", "101911.752000", "101911.756000", "101911.759000", "101911.762000", "101911.765000", "101951.685000", "101951.688000", "101951.691000", "101951.694000", "101951.698000", "101951.701000", "101951.704000", "101951.707000", "101951.710000", "101951.713000", "101951.716000", "101951.719000", "101951.722000", "101951.725000", "101951.728000", "101951.731000", "101951.734000", "101951.737000", "101951.740000", "101951.744000", "101951.747000", "101951.750000", "101951.753000", "101951.756000", "101951.759000", "101951.762000", "101951.774000", "102031.685000", "102031.688000", "102031.691000", "102031.695000", "102031.698000", "102031.701000", "102031.704000", "102031.707000", "102031.710000", "102031.713000", "102031.716000", "102031.719000", "102031.722000", "102031.725000", "102031.728000", "102031.731000", "102031.734000", "102031.738000", "102031.741000", "102031.744000", "102031.748000", "102031.751000", "102031.754000", "102031.757000", "102031.760000", "102031.763000", "102111.685000", "102111.688000", "102111.691000", "102111.695000", "102111.698000", "102111.701000", "102111.704000", "102111.707000", "102111.710000", "102111.713000", "102111.716000", "102111.719000", "102111.722000", "102111.725000", "102111.728000", "102111.731000", "102111.734000", "102111.737000", "102111.741000", "102111.744000", "102111.747000", "102111.750000", "102111.753000", "102111.756000", "102111.765000", "102111.768000", "102111.771000", "102151.685000", "102151.688000", "102151.692000", "102151.695000", "102151.698000", "102151.701000", "102151.704000", "102151.707000", "102151.710000", "102151.713000", "102151.716000", "102151.719000", "102151.722000", "102151.725000", "102151.728000", "102151.731000", "102151.735000", "102151.738000", "102151.741000", "102151.744000", "102151.747000", "102151.750000", "102151.753000", "102151.756000", "102151.759000", "102151.762000", "102151.766000", "102231.685000", "102231.688000", "102231.692000", "102231.695000", "102231.698000", "102231.701000", "102231.704000", "102231.707000", "102231.710000", "102231.713000", "102231.716000", "102231.719000", "102231.722000", "102231.725000", "102231.728000", "102231.731000", "102231.734000", "102231.738000", "102231.741000", "102231.744000", "102231.747000", "102231.750000", "102231.753000", "102231.756000", "102231.759000", "102231.762000", "102231.765000", "102311.685000", "102311.688000", "102311.692000", "102311.695000", "102311.698000", "102311.701000", "102311.704000", "102311.707000", "102311.710000", "102311.713000", "102311.716000", "102311.719000", "102311.722000", "102311.725000", "102311.728000", "102311.731000", "102311.734000", "102311.737000", "102311.741000", "102311.744000", "102311.747000", "102311.750000", "102311.753000", "102311.762000", "102311.765000", "102311.768000", "102311.771000", "102351.685000", "102351.689000", "102351.692000", "102351.695000", "102351.698000", "102351.701000", "102351.704000", "102351.707000", "102351.710000", "102351.713000", "102351.716000", "102351.719000", "102351.722000", "102351.726000", "102351.729000", "102351.732000", "102351.735000", "102351.738000", "102351.741000", "102351.744000", "102351.747000", "102351.750000", "102351.753000", "102351.756000", "102351.759000", "102351.762000", "102351.765000", "102431.685000", "102431.689000", "102431.692000", "102431.695000", "102431.698000", "102431.701000", "102431.704000", "102431.707000", "102431.710000", "102431.713000", "102431.716000", "102431.720000", "102431.723000", "102431.726000", "102431.729000", "102431.732000", "102431.735000", "102431.738000", "102431.741000", "102431.744000", "102431.747000", "102431.750000", "102431.754000", "102431.757000", "102431.760000", "102431.763000", "102511.685000", "102511.688000", "102511.692000", "102511.695000", "102511.698000", "102511.701000", "102511.704000", "102511.707000", "102511.710000", "102511.713000", "102511.716000", "102511.719000", "102511.722000", "102511.725000", "102511.728000", "102511.731000", "102511.735000", "102511.738000", "102511.741000", "102511.744000", "102511.747000", "102511.750000", "102511.753000", "102511.756000", "102511.759000", "102511.762000", "102511.765000", "102551.685000", "102551.689000", "102551.692000", "102551.695000", "102551.698000", "102551.701000", "102551.704000", "102551.707000", "102551.710000", "102551.713000", "102551.716000", "102551.719000", "102551.722000", "102551.725000", "102551.729000", "102551.732000", "102551.735000", "102551.738000", "102551.741000", "102551.744000", "102551.747000", "102551.750000", "102551.753000", "102551.756000", "102551.759000", "102551.762000", "102551.765000", "102631.685000", "102631.688000", "102631.692000", "102631.695000", "102631.698000", "102631.701000", "102631.704000", "102631.707000", "102631.710000", "102631.713000", "102631.716000", "102631.719000", "102631.722000", "102631.725000", "102631.728000", "102631.731000", "102631.735000", "102631.738000", "102631.741000", "102631.744000", "102631.758000", "102631.762000", "102631.765000", "102631.768000", "102631.771000", "102631.774000", "102631.777000", "102642.982000", "102642.986000", "102642.989000", "102642.992000", "102642.996000", "102643.000000", "102643.003000", "102643.006000"],
