{
  "AcquisitionMatrixPE": 104,
  "AcquisitionNumber": 1,
  "AcquisitionTime": "16:56:18.597500",
  "BandwidthPerPixelPhaseEncode": 17.17,
  "BaseResolution": 104,
  "BodyPartExamined": "BRAIN",
  "CoilString": "HC1-7;NC1_2",
  "ConsistencyInfo": "N4_VE11C_LATEST_20160120",
  "ConversionSoftware": "dcm2niix",
  "ConversionSoftwareVersion": "v1.0.20190902",
  "DerivedVendorReportedEchoSpacing": 0.000560011,
  "DeviceSerialNumber": "167006",
  "DwellTime": 2.1e-06,
  "EchoTime": 0.037,
  "EchoTrainLength": 104,
  "EffectiveEchoSpacing": 0.000560011,
  "FlipAngle": 52,
  "ImageComments": "Unaliased_MB4_PE3_LB",
  "ImageOrientationPatientDICOM": [0.99987, 0.0115282, -0.0112789, -0.0137872, 0.973824, -0.226886],
  "ImageType": [
    "ORIGINAL",
    "PRIMARY",
    "M",
    "MB",
    "ND",
    "MOSAIC"
],
  "ImagingFrequency": 123.259,
  "InPlanePhaseEncodingDirectionDICOM": "COL",
  "InstitutionAddress": "Chemin_Queen-Mary_4565_Montreal_District_CA_H3W_1W5",
  "InstitutionName": "IUGM",
  "InstitutionalDepartmentName": "Department",
  "MRAcquisitionType": "2D",
  "MagneticFieldStrength": 3,
  "Manufacturer": "Siemens",
  "ManufacturersModelName": "Prisma_fit",
  "Modality": "MR",
  "MultibandAccelerationFactor": 4,
  "PartialFourier": 1,
  "PatientPosition": "HFS",
  "PercentPhaseFOV": 100,
  "PhaseEncodingDirection": "j",
  "PhaseEncodingSteps": 104,
  "PhaseResolution": 1,
  "PixelBandwidth": 2290,
  "ProcedureStepDescription": "video_friends",
  "ProtocolName": "func_task-friends-s04e22a",
  "PulseSequenceDetails": "%CustomerSeq%_cmrr_mbep2d_bold",
  "ReceiveCoilActiveElements": "HC1-7;NC1,2",
  "ReceiveCoilName": "HeadNeck_64",
  "ReconMatrixPE": 104,
  "RepetitionTime": 1.49,
  "SAR": 0.0299663,
  "ScanOptions": "FS",
  "ScanningSequence": "EP",
  "SequenceName": "epfid2d1_104",
  "SequenceVariant": "SK_SS",
  "SeriesDescription": "func_task-friends-s04e22a",
  "SeriesNumber": 11,
  "ShimSetting": [629, -7236, -8780, 740, 30, -59, 158, -19],
  "SliceThickness": 2,
  "SliceTiming": [0, 0.7825, 0.0975, 0.8825, 0.195, 0.98, 0.2925, 1.0775, 0.3925, 1.175, 0.49, 1.2725, 0.5875, 1.3725, 0.685, 0, 0.7825, 0.0975, 0.8825, 0.195, 0.98, 0.2925, 1.0775, 0.3925, 1.175, 0.49, 1.2725, 0.5875, 1.3725, 0.685, 0, 0.7825, 0.0975, 0.8825, 0.195, 0.98, 0.2925, 1.0775, 0.3925, 1.175, 0.49, 1.2725, 0.5875, 1.3725, 0.685, 0, 0.7825, 0.0975, 0.8825, 0.195, 0.98, 0.2925, 1.0775, 0.3925, 1.175, 0.49, 1.2725, 0.5875, 1.3725, 0.685],
  "SoftwareVersions": "syngo_MR_E11",
  "SpacingBetweenSlices": 2,
  "StationName": "MRC35049",
  "TaskName": "s04e22a",
  "TotalReadoutTime": 0.0576811,
  "TxRefAmp": 208.618,
  "WipMemBlock": "2eb161f4-245d-43f5-aabf-a100b3126136||Sequence: R016 ve11c/master r/e634e98; Dec 19 2017 11:00:25 by eja",
  "dcmmeta_affine": [
    [-1.9997398853302002, -0.027574418112635612, -0.016736146062612534, 106.80307006835938],
    [-0.02305632457137108, 1.9476476907730103, -0.45402321219444275, -84.73739624023438],
    [-0.02255777083337307, 0.4537712037563324, 1.9477123022079468, -54.756168365478516],
    [0.0, 0.0, 0.0, 1.0]
],
  "dcmmeta_reorient_transform": [
    [0.0, -1.0, 0.0, 103.0],
    [1.0, 0.0, 0.0, 0.0],
    [0.0, 0.0, 1.0, 0.0],
    [0.0, 0.0, 0.0, 1.0]
],
  "dcmmeta_shape": [104, 104, 60, 459],
  "dcmmeta_slice_dim": 2,
  "dcmmeta_version": 0.6,
  "global": {
    "const": {
      "AcquisitionMatrix": [104, 0, 0, 104],
      "AngioFlag": "N",
      "BitsAllocated": 16,
      "BitsStored": 16,
      "BodyPartExamined": "BRAIN",
      "Columns": 832,
      "EchoNumbers": 1,
      "EchoTime": 37.0,
      "EchoTrainLength": 104,
      "FlipAngle": 52.0,
      "HighBit": 15,
      "ImageOrientationPatient": [0.99986993565489, 0.01152816208669, -0.0112788852458, -0.0137872087453, 0.97382382244289, -0.2268856005077],
      "ImagePositionPatient": [-821.83112868595, -833.20655363563, 165.36600980069],
      "ImageType": [
        "ORIGINAL",
        "PRIMARY",
        "M",
        "MB",
        "ND",
        "MOSAIC"
],
      "ImagedNucleus": "1H",
      "ImagingFrequency": 123.259004,
      "InPlanePhaseEncodingDirection": "COL",
      "MRAcquisitionType": "2D",
      "MagneticFieldStrength": 3.0,
      "Manufacturer": "SIEMENS",
      "ManufacturerModelName": "Prisma_fit",
      "Modality": "MR",
      "NumberOfAverages": 1.0,
      "NumberOfPhaseEncodingSteps": 104,
      "PercentPhaseFieldOfView": 100.0,
      "PercentSampling": 100.0,
      "PerformedProcedureStepStartTime": "163709.666000",
      "PhotometricInterpretation": "MONOCHROME2",
      "PixelBandwidth": 2290.0,
      "PixelRepresentation": 0,
      "PixelSpacing": [2.0, 2.0],
      "ProtocolName": "func_task-friends-s04e22a",
      "RepetitionTime": 1490.0,
      "Rows": 832,
      "SAR": 0.0299662895314,
      "SamplesPerPixel": 1,
      "ScanOptions": "FS",
      "ScanningSequence": "EP",
      "SequenceName": "epfid2d1_104",
      "SequenceVariant": [
        "SK",
        "SS"
],
      "SeriesDescription": "func_task-friends-s04e22a",
      "SeriesNumber": 11,
      "SeriesTime": "165739.822000",
      "SliceLocation": -34.981993808695,
      "SliceThickness": 2.0,
      "SmallestImagePixelValue": 0,
      "SoftwareVersions": "syngo MR E11",
      "SpacingBetweenSlices": 2.0000000570072,
      "SpecificCharacterSet": "ISO_IR 100",
      "StudyID": "1",
      "StudyTime": "163709.552000",
      "TransmitCoilName": "Body",
      "VariableFlipAngleFlag": "N",
      "WindowCenterWidthExplanation": "Algo1",
      "dBdt": 0.0},
    "slices": {}
  },
  "time": {
    "samples": {
      "AcquisitionNumber": [1, 2, 3, 4, 5, 6, 7, 8, 9, 10, 11, 12, 13, 14, 15, 16, 17, 18, 19, 20, 21, 22, 23, 24, 25, 26, 27, 28, 29, 30, 31, 32, 33, 34, 35, 36, 37, 38, 39, 40, 41, 42, 43, 44, 45, 46, 47, 48, 49, 50, 51, 52, 53, 54, 55, 56, 57, 58, 59, 60, 61, 62, 63, 64, 65, 66, 67, 68, 69, 70, 71, 72, 73, 74, 75, 76, 77, 78, 79, 80, 81, 82, 83, 84, 85, 86, 87, 88, 89, 90, 91, 92, 93, 94, 95, 96, 97, 98, 99, 100, 101, 102, 103, 104, 105, 106, 107, 108, 109, 110, 111, 112, 113, 114, 115, 116, 117, 118, 119, 120, 121, 122, 123, 124, 125, 126, 127, 128, 129, 130, 131, 132, 133, 134, 135, 136, 137, 138, 139, 140, 141, 142, 143, 144, 145, 146, 147, 148, 149, 150, 151, 152, 153, 154, 155, 156, 157, 158, 159, 160, 161, 162, 163, 164, 165, 166, 167, 168, 169, 170, 171, 172, 173, 174, 175, 176, 177, 178, 179, 180, 181, 182, 183, 184, 185, 186, 187, 188, 189, 190, 191, 192, 193, 194, 195, 196, 197, 198, 199, 200, 201, 202, 203, 204, 205, 206, 207, 208, 209, 210, 211, 212, 213, 214, 215, 216, 217, 218, 219, 220, 221, 222, 223, 224, 225, 226, 227, 228, 229, 230, 231, 232, 233, 234, 235, 236, 237, 238, 239, 240, 241, 242, 243, 244, 245, 246, 247, 248, 249, 250, 251, 252, 253, 254, 255, 256, 257, 258, 259, 260, 261, 262, 263, 264, 265, 266, 267, 268, 269, 270, 271, 272, 273, 274, 275, 276, 277, 278, 279, 280, 281, 282, 283, 284, 285, 286, 287, 288, 289, 290, 291, 292, 293, 294, 295, 296, 297, 298, 299, 300, 301, 302, 303, 304, 305, 306, 307, 308, 309, 310, 311, 312, 313, 314, 315, 316, 317, 318, 319, 320, 321, 322, 323, 324, 325, 326, 327, 328, 329, 330, 331, 332, 333, 334, 335, 336, 337, 338, 339, 340, 341, 342, 343, 344, 345, 346, 347, 348, 349, 350, 351, 352, 353, 354, 355, 356, 357, 358, 359, 360, 361, 362, 363, 364, 365, 366, 367, 368, 369, 370, 371, 372, 373, 374, 375, 376, 377, 378, 379, 380, 381, 382, 383, 384, 385, 386, 387, 388, 389, 390, 391, 392, 393, 394, 395, 396, 397, 398, 399, 400, 401, 402, 403, 404, 405, 406, 407, 408, 409, 410, 411, 412, 413, 414, 415, 416, 417, 418, 419, 420, 421, 422, 423, 424, 425, 426, 427, 428, 429, 430, 431, 432, 433, 434, 435, 436, 437, 438, 439, 440, 441, 442, 443, 444, 445, 446, 447, 448, 449, 450, 451, 452, 453, 454, 455, 456, 457, 458, 459],
      "AcquisitionTime": ["165618.597500", "165620.087500", "165621.577500", "165623.067500", "165624.557500", "165626.047500", "165627.537500", "165629.027500", "165630.517500", "165632.007500", "165633.497500", "165634.987500", "165636.477500", "165637.967500", "165639.457500", "165640.947500", "165642.437500", "165643.927500", "165645.417500", "165646.907500", "165648.397500", "165649.887500", "165651.377500", "165652.867500", "165654.357500", "165655.847500", "165657.337500", "165658.827500", "165700.317500", "165701.807500", "165703.297500", "165704.787500", "165706.277500", "165707.767500", "165709.257500", "165710.747500", "165712.237500", "165713.727500", "165715.217500", "165716.707500", "165718.197500", "165719.687500", "165721.177500", "165722.667500", "165724.157500", "165725.647500", "165727.137500", "165728.627500", "165730.117500", "165731.607500", "165733.097500", "165734.587500", "165736.077500", "165737.567500", "165739.057500", "165740.547500", "165742.037500", "165743.527500", "165745.017500", "165746.507500", "165747.997500", "165749.487500", "165750.977500", "165752.467500", "165753.957500", "165755.447500", "165756.937500", "165758.427500", "165759.917500", "165801.407500", "165802.897500", "165804.387500", "165805.877500", "165807.367500", "165808.857500", "165810.347500", "165811.837500", "165813.327500", "165814.817500", "165816.307500", "165817.797500", "165819.287500", "165820.777500", "165822.267500", "165823.757500", "165825.247500", "165826.737500", "165828.227500", "165829.717500", "165831.207500", "165832.697500", "165834.187500", "165835.677500", "165837.167500", "165838.657500", "165840.147500", "165841.637500", "165843.127500", "165844.617500", "165846.107500", "165847.597500", "165849.087500", "165850.577500", "165852.067500", "165853.557500", "165855.047500", "165856.537500", "165858.027500", "165859.517500", "165901.007500", "165902.497500", "165903.987500", "165905.477500", "165906.967500", "165908.457500", "165909.947500", "165911.437500", "165912.927500", "165914.417500", "165915.907500", "165917.397500", "165918.887500", "165920.377500", "165921.867500", "165923.357500", "165924.847500", "165926.337500", "165927.827500", "165929.317500", "165930.807500", "165932.297500", "165933.787500", "165935.277500", "165936.767500", "165938.257500", "165939.747500", "165941.237500", "165942.727500", "165944.217500", "165945.707500", "165947.197500", "165948.687500", "165950.177500", "165951.667500", "165953.157500", "165954.647500", "165956.137500", "165957.627500", "165959.117500", "170000.607500", "170002.097500", "170003.587500", "170005.077500", "170006.567500", "170008.057500", "170009.547500", "170011.037500", "170012.527500", "170014.017500", "170015.507500", "170016.997500", "170018.487500", "170019.977500", "170021.467500", "170022.957500", "170024.447500", "170025.937500", "170027.427500", "170028.917500", "170030.407500", "170031.897500", "170033.387500", "170034.877500", "170036.367500", "170037.857500", "170039.347500", "170040.837500", "170042.327500", "170043.817500", "170045.307500", "170046.797500", "170048.287500", "170049.777500", "170051.267500", "170052.757500", "170054.247500", "170055.737500", "170057.227500", "170058.717500", "170100.207500", "170101.697500", "170103.187500", "170104.677500", "170106.167500", "170107.657500", "170109.147500", "170110.637500", "170112.127500", "170113.617500", "170115.107500", "170116.597500", "170118.087500", "170119.577500", "170121.067500", "170122.557500", "170124.047500", "170125.537500", "170127.027500", "170128.517500", "170130.007500", "170131.497500", "170132.987500", "170134.477500", "170135.967500", "170137.457500", "170138.947500", "170140.437500", "170141.927500", "170143.417500", "170144.907500", "170146.397500", "170147.887500", "170149.377500", "170150.867500", "170152.357500", "170153.847500", "170155.337500", "170156.827500", "170158.317500", "170159.807500", "170201.297500", "170202.787500", "170204.277500", "170205.767500", "170207.257500", "170208.747500", "170210.237500", "170211.727500", "170213.217500", "170214.707500", "170216.197500", "170217.687500", "170219.177500", "170220.667500", "170222.157500", "170223.647500", "170225.137500", "170226.627500", "170228.117500", "170229.607500", "170231.097500", "170232.587500", "170234.077500", "170235.567500", "170237.057500", "170238.547500", "170240.037500", "170241.527500", "170243.017500", "170244.507500", "170245.997500", "170247.487500", "170248.977500", "170250.467500", "170251.957500", "170253.447500", "170254.937500", "170256.427500", "170257.917500", "170259.407500", "170300.897500", "170302.387500", "170303.877500", "170305.367500", "170306.857500", "170308.347500", "170309.837500", "170311.327500", "170312.817500", "170314.307500", "170315.797500", "170317.287500", "170318.777500", "170320.267500", "170321.757500", "170323.247500", "170324.737500", "170326.227500", "170327.717500", "170329.207500", "170330.697500", "170332.187500", "170333.677500", "170335.167500", "170336.657500", "170338.147500", "170339.637500", "170341.127500", "170342.617500", "170344.107500", "170345.597500", "170347.087500", "170348.577500", "170350.067500", "170351.557500", "170353.047500", "170354.537500", "170356.027500", "170357.517500", "170359.007500", "170400.497500", "170401.987500", "170403.477500", "170404.967500", "170406.457500", "170407.947500", "170409.437500", "170410.927500", "170412.417500", "170413.907500", "170415.397500", "170416.887500", "170418.377500", "170419.867500", "170421.357500", "170422.847500", "170424.337500", "170425.827500", "170427.317500", "170428.807500", "170430.297500", "170431.787500", "170433.277500", "170434.767500", "170436.257500", "170437.747500", "170439.237500", "170440.727500", "170442.217500", "170443.707500", "170445.197500", "170446.687500", "170448.177500", "170449.667500", "170451.157500", "170452.647500", "170454.137500", "170455.627500", "170457.117500", "170458.607500", "170500.097500", "170501.587500", "170503.077500", "170504.567500", "170506.057500", "170507.547500", "170509.037500", "170510.527500", "170512.017500", "170513.507500", "170514.997500", "170516.487500", "170517.977500", "170519.467500", "170520.957500", "170522.447500", "170523.937500", "170525.427500", "170526.917500", "170528.407500", "170529.897500", "170531.387500", "170532.877500", "170534.367500", "170535.857500", "170537.347500", "170538.837500", "170540.327500", "170541.817500", "170543.307500", "170544.797500", "170546.287500", "170547.777500", "170549.267500", "170550.757500", "170552.247500", "170553.737500", "170555.227500", "170556.717500", "170558.207500", "170559.697500", "170601.187500", "170602.677500", "170604.167500", "170605.657500", "170607.147500", "170608.637500", "170610.127500", "170611.617500", "170613.107500", "170614.597500", "170616.087500", "170617.577500", "170619.067500", "170620.557500", "170622.047500", "170623.537500", "170625.027500", "170626.517500", "170628.007500", "170629.497500", "170630.987500", "170632.477500", "170633.967500", "170635.457500", "170636.947500", "170638.437500", "170639.927500", "170641.417500", "170642.907500", "170644.397500", "170645.887500", "170647.377500", "170648.867500", "170650.357500", "170651.847500", "170653.337500", "170654.827500", "170656.317500", "170657.807500", "170659.297500", "170700.787500", "170702.277500", "170703.767500", "170705.257500", "170706.747500", "170708.237500", "170709.727500", "170711.217500", "170712.707500", "170714.197500", "170715.687500", "170717.177500", "170718.667500", "170720.157500", "170721.647500", "170723.137500", "170724.627500", "170726.117500", "170727.607500", "170729.097500", "170730.587500", "170732.077500", "170733.567500", "170735.057500", "170736.547500", "170738.037500", "170739.527500", "170741.017500"],
      "ContentTime": ["165739.824000", "165739.828000", "165739.831000", "165739.834000", "165739.837000", "165739.839000", "165739.847000", "165739.850000", "165739.853000", "165739.856000", "165739.859000", "165739.862000", "165739.865000", "165739.868000", "165739.870000", "165739.874000", "165739.876000", "165739.879000", "165739.882000", "165739.885000", "165739.888000", "165739.891000", "165739.895000", "165739.898000", "165739.901000", "165739.904000", "165739.907000", "165759.781000", "165759.784000", "165759.787000", "165759.790000", "165759.793000", "165759.796000", "165759.799000", "165759.802000", "165759.805000", "165759.807000", "165759.810000", "165759.813000", "165759.816000", "165759.819000", "165759.822000", "165759.825000", "165759.829000", "165759.832000", "165759.835000", "165759.838000", "165819.781000", "165819.784000", "165819.787000", "165819.790000", "165819.793000", "165819.796000", "165819.799000", "165819.802000", "165819.805000", "165819.808000", "165819.810000", "165819.813000", "165819.816000", "165819.819000", "165819.822000", "165819.825000", "165819.828000", "165819.831000", "165819.834000", "165819.837000", "165839.781000", "165839.784000", "165839.787000", "165839.790000", "165839.793000", "165839.796000", "165839.799000", "165839.802000", "165839.805000", "165839.808000", "165839.810000", "165839.813000", "165839.816000", "165839.819000", "165839.822000", "165839.825000", "165839.828000", "165839.831000", "165839.834000", "165839.837000", "165859.780000", "165859.783000", "165859.786000", "165859.789000", "165859.792000", "165859.795000", "165859.798000", "165859.801000", "165859.804000", "165859.807000", "165859.810000", "165859.813000", "165859.815000", "165859.818000", "165859.821000", "165859.824000", "165859.827000", "165859.830000", "165859.833000", "165859.836000", "165939.781000", "165939.784000", "165939.787000", "165939.790000", "165939.793000", "165939.796000", "165939.799000", "165939.802000", "165939.805000", "165939.808000", "165939.811000", "165939.814000", "165939.817000", "165939.820000", "165939.823000", "165939.825000", "165939.828000", "165939.831000", "165939.834000", "165939.837000", "165939.840000", "165939.843000", "165939.846000", "165939.849000", "165939.852000", "165939.855000", "165939.858000", "170019.781000", "170019.784000", "170019.787000", "170019.790000", "170019.793000", "170019.796000", "170019.799000", "170019.802000", "170019.805000", "170019.808000", "170019.811000", "170019.814000", "170019.817000", "170019.820000", "170019.822000", "170019.825000", "170019.828000", "170019.831000", "170019.834000", "170019.837000", "170019.840000", "170019.843000", "170019.846000", "170019.849000", "170019.852000", "170019.855000", "170019.858000", "170059.781000", "170059.784000", "170059.787000", "170059.790000", "170059.793000", "170059.796000", "170059.799000", "170059.802000", "170059.805000", "170059.808000", "170059.811000", "170059.814000", "170059.817000", "170059.820000", "170059.823000", "170059.826000", "170059.829000", "170059.832000", "170059.835000", "170059.838000", "170059.841000", "170059.843000", "170059.846000", "170059.850000", "170059.852000", "170059.855000", "170059.858000", "170139.781000", "170139.784000", "170139.787000", "170139.790000", "170139.793000", "170139.796000", "170139.799000", "170139.802000", "170139.805000", "170139.808000", "170139.811000", "170139.814000", "170139.817000", "170139.820000", "170139.823000", "170139.826000", "170139.829000", "170139.832000", "170139.835000", "170139.838000", "170139.841000", "170139.844000", "170139.847000", "170139.849000", "170139.853000", "170139.874000", "170219.781000", "170219.784000", "170219.787000", "170219.790000", "170219.793000", "170219.796000", "170219.799000", "170219.802000", "170219.805000", "170219.808000", "170219.811000", "170219.814000", "170219.817000", "170219.820000", "170219.822000", "170219.825000", "170219.828000", "170219.831000", "170219.834000", "170219.837000", "170219.840000", "170219.843000", "170219.846000", "170219.849000", "170219.852000", "170219.855000", "170219.858000", "170259.781000", "170259.790000", "170259.793000", "170259.796000", "170259.799000", "170259.802000", "170259.805000", "170259.808000", "170259.811000", "170259.814000", "170259.817000", "170259.820000", "170259.823000", "170259.826000", "170259.829000", "170259.832000", "170259.835000", "170259.838000", "170259.841000", "170259.844000", "170259.847000", "170259.849000", "170259.852000", "170259.855000", "170259.858000", "170259.861000", "170259.864000", "170339.780000", "170339.783000", "170339.786000", "170339.789000", "170339.792000", "170339.795000", "170339.798000", "170339.801000", "170339.804000", "170339.807000", "170339.810000", "170339.813000", "170339.816000", "170339.819000", "170339.822000", "170339.825000", "170339.828000", "170339.830000", "170339.834000", "170339.836000", "170339.839000", "170339.842000", "170339.845000", "170339.848000", "170339.851000", "170339.854000", "170339.857000", "170419.781000", "170419.784000", "170419.787000", "170419.790000", "170419.793000", "170419.796000", "170419.799000", "170419.802000", "170419.805000", "170419.808000", "170419.811000", "170419.814000", "170419.817000", "170419.820000", "170419.825000", "170419.828000", "170419.831000", "170419.834000", "170419.837000", "170419.840000", "170419.843000", "170419.846000", "170419.849000", "170419.852000", "170419.855000", "170419.858000", "170419.861000", "170459.781000", "170459.784000", "170459.787000", "170459.790000", "170459.793000", "170459.796000", "170459.799000", "170459.802000", "170459.805000", "170459.808000", "170459.811000", "170459.814000", "170459.817000", "170459.820000", "170459.823000", "170459.826000", "170459.829000", "170459.832000", "170459.835000", "170459.838000", "170459.841000", "170459.844000", "170459.846000", "170459.849000", "170459.852000", "170459.855000", "170459.858000", "170539.781000", "170539.785000", "170539.788000", "170539.790000", "170539.794000", "170539.797000", "170539.800000", "170539.804000", "170539.807000", "170539.810000", "170539.812000", "170539.815000", "170539.818000", "170539.821000", "170539.824000", "170539.827000", "170539.830000", "170539.833000", "170539.836000", "170539.839000", "170539.842000", "170539.845000", "170539.848000", "170539.851000", "170539.854000", "170539.857000", "170619.780000", "170619.783000", "170619.786000", "170619.789000", "170619.792000", "170619.795000", "170619.804000", "170619.807000", "170619.810000", "170619.813000", "170619.816000", "170619.819000", "170619.822000", "170619.825000", "170619.829000", "170619.832000", "170619.834000", "170619.837000", "170619.840000", "170619.843000", "170619.846000", "170619.849000", "170619.852000", "170619.855000", "170619.858000", "170619.861000", "170619.864000", "170659.781000", "170659.784000", "170659.787000", "170659.790000", "170659.793000", "170659.796000", "170659.799000", "170659.802000", "170659.805000", "170659.808000", "170659.811000", "170659.814000", "170659.817000", "170659.820000", "170659.823000", "170659.826000", "170659.829000", "170659.832000", "170659.835000", "170659.838000", "170659.841000", "170659.844000", "170659.846000", "170659.849000", "170659.852000", "170659.855000", "170659.858000", "170739.781000", "170739.784000", "170739.787000", "170739.790000", "170739.793000", "170739.796000", "170739.799000", "170739.802000", "170739.805000", "170739.808000", "170739.811000", "170739.814000", "170739.817000", "170739.820000", "170739.823000", "170739.826000", "170739.829000", "170739.832000", "170739.834000", "170739.837000", "170739.840000", "170739.843000", "170739.846000", "170739.849000", "170739.852000", "170739.855000", "170739.858000", "170743.507000", "170743.510000", "170743.513000"],
