{
  "AcquisitionMatrixPE": 104,
  "AcquisitionNumber": 1,
  "AcquisitionTime": "09:25:53.657500",
  "BandwidthPerPixelPhaseEncode": 17.17,
  "BaseResolution": 104,
  "BodyPartExamined": "BRAIN",
  "CoilString": "HC1-7;NC1_2",
  "ConsistencyInfo": "N4_VE11C_LATEST_20160120",
  "ConversionSoftware": "dcm2niix",
  "ConversionSoftwareVersion": "v1.0.20190902",
  "DerivedVendorReportedEchoSpacing": 0.000560011,
  "DeviceSerialNumber": "167006",
  "DwellTime": 2.1e-06,
  "EchoTime": 0.037,
  "EchoTrainLength": 104,
  "EffectiveEchoSpacing": 0.000560011,
  "FlipAngle": 52,
  "ImageComments": "Unaliased_MB4_PE3_LB",
  "ImageOrientationPatientDICOM": [0.999541, 0.00216553, 0.0302275, 0.0137827, 0.855832, -0.51707],
  "ImageType": [
    "ORIGINAL",
    "PRIMARY",
    "M",
    "MB",
    "ND",
    "MOSAIC"
],
  "ImagingFrequency": 123.259,
  "InPlanePhaseEncodingDirectionDICOM": "COL",
  "InstitutionAddress": "Chemin_Queen-Mary_4565_Montreal_District_CA_H3W_1W5",
  "InstitutionName": "IUGM",
  "InstitutionalDepartmentName": "Department",
  "MRAcquisitionType": "2D",
  "MagneticFieldStrength": 3,
  "Manufacturer": "Siemens",
  "ManufacturersModelName": "Prisma_fit",
  "Modality": "MR",
  "MultibandAccelerationFactor": 4,
  "PartialFourier": 1,
  "PatientPosition": "HFS",
  "PercentPhaseFOV": 100,
  "PhaseEncodingDirection": "j",
  "PhaseEncodingSteps": 104,
  "PhaseResolution": 1,
  "PixelBandwidth": 2290,
  "ProcedureStepDescription": "video_friends",
  "ProtocolName": "func_task-friends-s03e12a",
  "PulseSequenceDetails": "%CustomerSeq%_cmrr_mbep2d_bold",
  "ReceiveCoilActiveElements": "HC1-7;NC1,2",
  "ReceiveCoilName": "HeadNeck_64",
  "ReconMatrixPE": 104,
  "RepetitionTime": 1.49,
  "SAR": 0.0352829,
  "ScanOptions": "FS",
  "ScanningSequence": "EP",
  "SequenceName": "epfid2d1_104",
  "SequenceVariant": "SK_SS",
  "SeriesDescription": "func_task-friends-s03e12a",
  "SeriesNumber": 9,
  "ShimSetting": [625, -7194, -8890, 403, -23, -209, -3, -42],
  "SliceThickness": 2,
  "SliceTiming": [0, 0.7825, 0.0975, 0.8825, 0.195, 0.98, 0.295, 1.0775, 0.3925, 1.175, 0.49, 1.2725, 0.5875, 1.3725, 0.685, 0, 0.7825, 0.0975, 0.8825, 0.195, 0.98, 0.295, 1.0775, 0.3925, 1.175, 0.49, 1.2725, 0.5875, 1.3725, 0.685, 0, 0.7825, 0.0975, 0.8825, 0.195, 0.98, 0.295, 1.0775, 0.3925, 1.175, 0.49, 1.2725, 0.5875, 1.3725, 0.685, 0, 0.7825, 0.0975, 0.8825, 0.195, 0.98, 0.295, 1.0775, 0.3925, 1.175, 0.49, 1.2725, 0.5875, 1.3725, 0.685],
  "SoftwareVersions": "syngo_MR_E11",
  "SpacingBetweenSlices": 2,
  "StationName": "MRC35049",
  "TaskName": "s03e12a",
  "TotalReadoutTime": 0.0576811,
  "TxRefAmp": 250.719,
  "WipMemBlock": "e157b9df-7fe4-48ed-acc3-f3ddcc233a48||Sequence: R016 ve11c/master r/e634e98; Dec 19 2017 11:00:25 by eja",
  "dcmmeta_affine": [
    [-1.9990813732147217, 0.02756544202566147, 0.05397871136665344, 100.08673095703125],
    [-0.004331065807491541, 1.711663842201233, -1.0344990491867065, -58.927371978759766],
    [0.06045491248369217, 1.0341408252716064, 1.7108179330825806, -107.06742095947266],
    [0.0, 0.0, 0.0, 1.0]
],
  "dcmmeta_reorient_transform": [
    [0.0, -1.0, 0.0, 103.0],
    [1.0, 0.0, 0.0, 0.0],
    [0.0, 0.0, 1.0, 0.0],
    [0.0, 0.0, 0.0, 1.0]
],
  "dcmmeta_shape": [104, 104, 60, 464],
  "dcmmeta_slice_dim": 2,
  "dcmmeta_version": 0.6,
  "global": {
    "const": {
      "AcquisitionMatrix": [104, 0, 0, 104],
      "AngioFlag": "N",
      "BitsAllocated": 16,
      "BitsStored": 16,
      "BodyPartExamined": "BRAIN",
      "Columns": 832,
      "EchoNumbers": 1,
      "EchoTime": 37.0,
      "EchoTrainLength": 104,
      "FlipAngle": 52.0,
      "HighBit": 15,
      "ImageOrientationPatient": [0.99954070020717, 0.0021655329588, 0.03022745600233, 0.01378272087188, 0.85583190039263, -0.5170703964411],
      "ImagePositionPatient": [-840.62542175456, -741.99612986821, 353.8707397751],
      "ImageType": [
        "ORIGINAL",
        "PRIMARY",
        "M",
        "MB",
        "ND",
        "MOSAIC"
],
      "ImagedNucleus": "1H",
      "ImagingFrequency": 123.259066,
      "InPlanePhaseEncodingDirection": "COL",
      "MRAcquisitionType": "2D",
      "MagneticFieldStrength": 3.0,
      "Manufacturer": "SIEMENS",
      "ManufacturerModelName": "Prisma_fit",
      "Modality": "MR",
      "NumberOfAverages": 1.0,
      "NumberOfPhaseEncodingSteps": 104,
      "PercentPhaseFieldOfView": 100.0,
      "PercentSampling": 100.0,
      "PerformedProcedureStepStartTime": "090607.904000",
      "PhotometricInterpretation": "MONOCHROME2",
      "PixelBandwidth": 2290.0,
      "PixelRepresentation": 0,
      "PixelSpacing": [2.0, 2.0],
      "ProtocolName": "func_task-friends-s03e12a",
      "RepetitionTime": 1490.0,
      "Rows": 832,
      "SAR": 0.0352829081044,
      "SamplesPerPixel": 1,
      "ScanOptions": "FS",
      "ScanningSequence": "EP",
      "SequenceName": "epfid2d1_104",
      "SequenceVariant": [
        "SK",
        "SS"
],
      "SeriesDescription": "func_task-friends-s03e12a",
      "SeriesNumber": 9,
      "SeriesTime": "092720.906000",
      "SliceLocation": -58.405001810279,
      "SliceThickness": 2.0,
      "SmallestImagePixelValue": 0,
      "SoftwareVersions": "syngo MR E11",
      "SpacingBetweenSlices": 2.0000000546227,
      "SpecificCharacterSet": "ISO_IR 100",
      "StudyID": "1",
      "StudyTime": "090607.768000",
      "TransmitCoilName": "Body",
      "VariableFlipAngleFlag": "N",
      "WindowCenterWidthExplanation": "Algo1",
      "dBdt": 0.0},
    "slices": {}
  },
  "time": {
    "samples": {
      "AcquisitionNumber": [1, 2, 3, 4, 5, 6, 7, 8, 9, 10, 11, 12, 13, 14, 15, 16, 17, 18, 19, 20, 21, 22, 23, 24, 25, 26, 27, 28, 29, 30, 31, 32, 33, 34, 35, 36, 37, 38, 39, 40, 41, 42, 43, 44, 45, 46, 47, 48, 49, 50, 51, 52, 53, 54, 55, 56, 57, 58, 59, 60, 61, 62, 63, 64, 65, 66, 67, 68, 69, 70, 71, 72, 73, 74, 75, 76, 77, 78, 79, 80, 81, 82, 83, 84, 85, 86, 87, 88, 89, 90, 91, 92, 93, 94, 95, 96, 97, 98, 99, 100, 101, 102, 103, 104, 105, 106, 107, 108, 109, 110, 111, 112, 113, 114, 115, 116, 117, 118, 119, 120, 121, 122, 123, 124, 125, 126, 127, 128, 129, 130, 131, 132, 133, 134, 135, 136, 137, 138, 139, 140, 141, 142, 143, 144, 145, 146, 147, 148, 149, 150, 151, 152, 153, 154, 155, 156, 157, 158, 159, 160, 161, 162, 163, 164, 165, 166, 167, 168, 169, 170, 171, 172, 173, 174, 175, 176, 177, 178, 179, 180, 181, 182, 183, 184, 185, 186, 187, 188, 189, 190, 191, 192, 193, 194, 195, 196, 197, 198, 199, 200, 201, 202, 203, 204, 205, 206, 207, 208, 209, 210, 211, 212, 213, 214, 215, 216, 217, 218, 219, 220, 221, 222, 223, 224, 225, 226, 227, 228, 229, 230, 231, 232, 233, 234, 235, 236, 237, 238, 239, 240, 241, 242, 243, 244, 245, 246, 247, 248, 249, 250, 251, 252, 253, 254, 255, 256, 257, 258, 259, 260, 261, 262, 263, 264, 265, 266, 267, 268, 269, 270, 271, 272, 273, 274, 275, 276, 277, 278, 279, 280, 281, 282, 283, 284, 285, 286, 287, 288, 289, 290, 291, 292, 293, 294, 295, 296, 297, 298, 299, 300, 301, 302, 303, 304, 305, 306, 307, 308, 309, 310, 311, 312, 313, 314, 315, 316, 317, 318, 319, 320, 321, 322, 323, 324, 325, 326, 327, 328, 329, 330, 331, 332, 333, 334, 335, 336, 337, 338, 339, 340, 341, 342, 343, 344, 345, 346, 347, 348, 349, 350, 351, 352, 353, 354, 355, 356, 357, 358, 359, 360, 361, 362, 363, 364, 365, 366, 367, 368, 369, 370, 371, 372, 373, 374, 375, 376, 377, 378, 379, 380, 381, 382, 383, 384, 385, 386, 387, 388, 389, 390, 391, 392, 393, 394, 395, 396, 397, 398, 399, 400, 401, 402, 403, 404, 405, 406, 407, 408, 409, 410, 411, 412, 413, 414, 415, 416, 417, 418, 419, 420, 421, 422, 423, 424, 425, 426, 427, 428, 429, 430, 431, 432, 433, 434, 435, 436, 437, 438, 439, 440, 441, 442, 443, 444, 445, 446, 447, 448, 449, 450, 451, 452, 453, 454, 455, 456, 457, 458, 459, 460, 461, 462, 463, 464],
      "AcquisitionTime": ["092553.657500", "092555.147500", "092556.637500", "092558.127500", "092559.617500", "092601.107500", "092602.597500", "092604.087500", "092605.577500", "092607.067500", "092608.557500", "092610.047500", "092611.537500", "092613.027500", "092614.517500", "092616.007500", "092617.497500", "092618.987500", "092620.477500", "092621.967500", "092623.457500", "092624.947500", "092626.437500", "092627.927500", "092629.417500", "092630.907500", "092632.397500", "092633.887500", "092635.377500", "092636.867500", "092638.357500", "092639.847500", "092641.337500", "092642.827500", "092644.317500", "092645.807500", "092647.297500", "092648.787500", "092650.277500", "092651.767500", "092653.257500", "092654.747500", "092656.237500", "092657.727500", "092659.217500", "092700.707500", "092702.197500", "092703.687500", "092705.177500", "092706.667500", "092708.157500", "092709.647500", "092711.137500", "092712.627500", "092714.117500", "092715.607500", "092717.097500", "092718.587500", "092720.077500", "092721.567500", "092723.057500", "092724.547500", "092726.037500", "092727.527500", "092729.017500", "092730.507500", "092731.997500", "092733.487500", "092734.977500", "092736.467500", "092737.957500", "092739.447500", "092740.937500", "092742.427500", "092743.917500", "092745.407500", "092746.897500", "092748.387500", "092749.877500", "092751.367500", "092752.857500", "092754.347500", "092755.837500", "092757.327500", "092758.817500", "092800.307500", "092801.797500", "092803.287500", "092804.777500", "092806.267500", "092807.757500", "092809.247500", "092810.737500", "092812.227500", "092813.717500", "092815.207500", "092816.697500", "092818.187500", "092819.677500", "092821.167500", "092822.657500", "092824.147500", "092825.637500", "092827.127500", "092828.617500", "092830.107500", "092831.597500", "092833.087500", "092834.577500", "092836.067500", "092837.557500", "092839.047500", "092840.537500", "092842.027500", "092843.517500", "092845.007500", "092846.497500", "092847.987500", "092849.477500", "092850.967500", "092852.457500", "092853.947500", "092855.437500", "092856.927500", "092858.417500", "092859.907500", "092901.397500", "092902.887500", "092904.377500", "092905.867500", "092907.357500", "092908.847500", "092910.337500", "092911.827500", "092913.317500", "092914.807500", "092916.297500", "092917.787500", "092919.277500", "092920.767500", "092922.257500", "092923.747500", "092925.237500", "092926.727500", "092928.217500", "092929.707500", "092931.197500", "092932.687500", "092934.177500", "092935.667500", "092937.157500", "092938.647500", "092940.137500", "092941.627500", "092943.117500", "092944.607500", "092946.097500", "092947.587500", "092949.077500", "092950.567500", "092952.057500", "092953.547500", "092955.037500", "092956.527500", "092958.017500", "092959.507500", "093000.997500", "093002.487500", "093003.977500", "093005.467500", "093006.957500", "093008.447500", "093009.937500", "093011.427500", "093012.917500", "093014.407500", "093015.897500", "093017.387500", "093018.877500", "093020.367500", "093021.857500", "093023.347500", "093024.837500", "093026.327500", "093027.817500", "093029.307500", "093030.797500", "093032.287500", "093033.777500", "093035.267500", "093036.757500", "093038.247500", "093039.737500", "093041.227500", "093042.717500", "093044.207500", "093045.697500", "093047.187500", "093048.677500", "093050.167500", "093051.657500", "093053.147500", "093054.637500", "093056.127500", "093057.617500", "093059.107500", "093100.597500", "093102.087500", "093103.577500", "093105.067500", "093106.557500", "093108.047500", "093109.537500", "093111.027500", "093112.517500", "093114.007500", "093115.497500", "093116.987500", "093118.477500", "093119.967500", "093121.457500", "093122.947500", "093124.437500", "093125.927500", "093127.417500", "093128.907500", "093130.397500", "093131.887500", "093133.377500", "093134.867500", "093136.357500", "093137.847500", "093139.337500", "093140.827500", "093142.317500", "093143.807500", "093145.297500", "093146.787500", "093148.277500", "093149.767500", "093151.257500", "093152.747500", "093154.237500", "093155.727500", "093157.217500", "093158.707500", "093200.197500", "093201.687500", "093203.177500", "093204.667500", "093206.157500", "093207.647500", "093209.137500", "093210.627500", "093212.117500", "093213.607500", "093215.097500", "093216.587500", "093218.077500", "093219.567500", "093221.057500", "093222.547500", "093224.037500", "093225.527500", "093227.017500", "093228.507500", "093229.997500", "093231.487500", "093232.977500", "093234.467500", "093235.957500", "093237.447500", "093238.937500", "093240.427500", "093241.917500", "093243.407500", "093244.897500", "093246.387500", "093247.877500", "093249.367500", "093250.857500", "093252.347500", "093253.837500", "093255.327500", "093256.817500", "093258.307500", "093259.797500", "093301.287500", "093302.777500", "093304.267500", "093305.757500", "093307.247500", "093308.737500", "093310.227500", "093311.717500", "093313.207500", "093314.697500", "093316.187500", "093317.677500", "093319.167500", "093320.657500", "093322.147500", "093323.637500", "093325.127500", "093326.617500", "093328.107500", "093329.597500", "093331.087500", "093332.577500", "093334.067500", "093335.557500", "093337.047500", "093338.537500", "093340.027500", "093341.517500", "093343.007500", "093344.497500", "093345.987500", "093347.477500", "093348.967500", "093350.457500", "093351.947500", "093353.437500", "093354.927500", "093356.417500", "093357.907500", "093359.397500", "093400.887500", "093402.377500", "093403.867500", "093405.357500", "093406.847500", "093408.337500", "093409.827500", "093411.317500", "093412.807500", "093414.297500", "093415.787500", "093417.277500", "093418.767500", "093420.257500", "093421.747500", "093423.237500", "093424.727500", "093426.217500", "093427.707500", "093429.197500", "093430.687500", "093432.177500", "093433.667500", "093435.157500", "093436.647500", "093438.137500", "093439.627500", "093441.117500", "093442.607500", "093444.097500", "093445.587500", "093447.077500", "093448.567500", "093450.057500", "093451.547500", "093453.037500", "093454.527500", "093456.017500", "093457.507500", "093458.997500", "093500.487500", "093501.977500", "093503.467500", "093504.957500", "093506.447500", "093507.937500", "093509.427500", "093510.917500", "093512.407500", "093513.897500", "093515.387500", "093516.877500", "093518.367500", "093519.857500", "093521.347500", "093522.837500", "093524.327500", "093525.817500", "093527.307500", "093528.797500", "093530.287500", "093531.777500", "093533.267500", "093534.757500", "093536.247500", "093537.737500", "093539.227500", "093540.717500", "093542.207500", "093543.697500", "093545.187500", "093546.677500", "093548.167500", "093549.657500", "093551.147500", "093552.637500", "093554.127500", "093555.617500", "093557.107500", "093558.597500", "093600.087500", "093601.577500", "093603.067500", "093604.557500", "093606.047500", "093607.537500", "093609.027500", "093610.517500", "093612.007500", "093613.497500", "093614.987500", "093616.477500", "093617.967500", "093619.457500", "093620.947500", "093622.437500", "093623.927500", "093625.417500", "093626.907500", "093628.397500", "093629.887500", "093631.377500", "093632.867500", "093634.357500", "093635.847500", "093637.337500", "093638.827500", "093640.317500", "093641.807500", "093643.297500", "093644.787500", "093646.277500", "093647.767500", "093649.257500", "093650.747500", "093652.237500", "093653.727500", "093655.217500", "093656.707500", "093658.197500", "093659.687500", "093701.177500", "093702.667500", "093704.157500", "093705.647500", "093707.137500", "093708.627500", "093710.117500", "093711.607500", "093713.097500", "093714.587500", "093716.077500", "093717.567500", "093719.057500", "093720.547500", "093722.037500", "093723.527500"],
      "ContentTime": ["092720.909000", "092720.924000", "092720.927000", "092720.930000", "092800.880000", "092800.883000", "092800.886000", "092800.889000", "092800.892000", "092800.895000", "092800.898000", "092800.901000", "092800.905000", "092800.908000", "092800.911000", "092800.914000", "092800.917000", "092800.920000", "092800.923000", "092800.926000", "092800.929000", "092800.932000", "092800.935000", "092800.938000", "092800.941000", "092800.944000", "092800.947000", "092800.950000", "092800.953000", "092800.956000", "092800.959000", "092800.962000", "092800.965000", "092800.968000", "092800.971000", "092800.974000", "092800.977000", "092800.980000", "092800.983000", "092800.986000", "092800.989000", "092800.993000", "092800.996000", "092840.880000", "092840.883000", "092840.886000", "092840.889000", "092840.892000", "092840.895000", "092840.898000", "092840.901000", "092840.904000", "092840.908000", "092840.911000", "092840.913000", "092840.916000", "092840.920000", "092840.923000", "092840.926000", "092840.929000", "092840.932000", "092840.935000", "092840.938000", "092840.941000", "092840.944000", "092840.947000", "092840.950000", "092840.953000", "092840.956000", "092840.959000", "092840.962000", "092840.965000", "092840.968000", "092840.971000", "092840.974000", "092840.977000", "092840.980000", "092840.983000", "092840.986000", "092840.989000", "092840.992000", "092840.995000", "092840.998000", "092900.879000", "092900.883000", "092900.886000", "092900.889000", "092900.892000", "092900.895000", "092900.898000", "092900.901000", "092900.904000", "092900.907000", "092900.910000", "092900.913000", "092900.916000", "092900.919000", "092900.922000", "092900.925000", "092900.928000", "092900.931000", "092900.934000", "092900.937000", "092920.887000", "092920.891000", "092920.894000", "092920.897000", "092920.900000", "092920.903000", "092920.906000", "092920.909000", "092920.912000", "092920.916000", "092920.919000", "092920.922000", "092920.925000", "092920.928000", "092920.931000", "092920.934000", "092920.937000", "092920.940000", "092920.943000", "092920.946000", "092940.879000", "092940.888000", "092940.891000", "092940.894000", "092940.897000", "092940.900000", "092940.903000", "092940.906000", "092940.909000", "092940.913000", "092940.915000", "092940.918000", "092940.921000", "092940.925000", "092940.928000", "092940.931000", "092940.934000", "092940.937000", "092940.940000", "092940.943000", "093000.879000", "093000.882000", "093000.885000", "093000.888000", "093000.891000", "093000.894000", "093000.897000", "093000.901000", "093000.904000", "093000.907000", "093000.910000", "093000.913000", "093000.916000", "093000.919000", "093000.922000", "093000.925000", "093000.928000", "093000.932000", "093000.935000", "093000.938000", "093040.880000", "093040.883000", "093040.886000", "093040.889000", "093040.893000", "093040.896000", "093040.899000", "093040.902000", "093040.905000", "093040.908000", "093040.911000", "093040.914000", "093040.917000", "093040.920000", "093040.923000", "093040.926000", "093040.929000", "093040.932000", "093040.935000", "093040.938000", "093040.941000", "093040.945000", "093040.948000", "093040.951000", "093040.954000", "093040.957000", "093040.960000", "093040.963000", "093040.966000", "093120.879000", "093120.882000", "093120.886000", "093120.889000", "093120.892000", "093120.895000", "093120.898000", "093120.901000", "093120.904000", "093120.907000", "093120.910000", "093120.913000", "093120.916000", "093120.919000", "093120.922000", "093120.925000", "093120.928000", "093120.931000", "093120.935000", "093120.938000", "093120.941000", "093120.944000", "093120.947000", "093120.950000", "093120.953000", "093120.956000", "093120.959000", "093200.879000", "093200.882000", "093200.885000", "093200.888000", "093200.891000", "093200.895000", "093200.898000", "093200.901000", "093200.904000", "093200.907000", "093200.910000", "093200.913000", "093200.916000", "093200.919000", "093200.922000", "093200.925000", "093200.928000", "093200.940000", "093200.943000", "093200.946000", "093200.949000", "093200.952000", "093200.955000", "093200.958000", "093200.961000", "093200.964000", "093200.967000", "093240.880000", "093240.883000", "093240.886000", "093240.889000", "093240.893000", "093240.896000", "093240.899000", "093240.902000", "093240.905000", "093240.908000", "093240.911000", "093240.914000", "093240.917000", "093240.920000", "093240.923000", "093240.926000", "093240.930000", "093240.933000", "093240.936000", "093240.939000", "093240.942000", "093240.945000", "093240.948000", "093240.951000", "093240.960000", "093240.963000", "093240.966000", "093320.880000", "093320.884000", "093320.887000", "093320.890000", "093320.893000", "093320.896000", "093320.899000", "093320.902000", "093320.905000", "093320.908000", "093320.911000", "093320.914000", "093320.917000", "093320.921000", "093320.935000", "093320.939000", "093320.942000", "093320.945000", "093320.948000", "093320.951000", "093320.955000", "093320.958000", "093320.961000", "093320.964000", "093320.967000", "093320.970000", "093400.879000", "093400.882000", "093400.886000", "093400.889000", "093400.892000", "093400.895000", "093400.898000", "093400.901000", "093400.904000", "093400.907000", "093400.910000", "093400.913000", "093400.916000", "093400.919000", "093400.922000", "093400.925000", "093400.928000", "093400.932000", "093400.935000", "093400.937000", "093400.941000", "093400.944000", "093400.947000", "093400.950000", "093400.953000", "093400.956000", "093400.959000", "093440.879000", "093440.882000", "093440.885000", "093440.888000", "093440.892000", "093440.895000", "093440.898000", "093440.901000", "093440.904000", "093440.907000", "093440.910000", "093440.913000", "093440.916000", "093440.919000", "093440.923000", "093440.926000", "093440.929000", "093440.932000", "093440.935000", "093440.938000", "093440.941000", "093440.944000", "093440.947000", "093440.950000", "093440.953000", "093440.956000", "093440.959000", "093520.880000", "093520.883000", "093520.886000", "093520.889000", "093520.892000", "093520.895000", "093520.899000", "093520.902000", "093520.905000", "093520.908000", "093520.911000", "093520.914000", "093520.917000", "093520.920000", "093520.923000", "093520.926000", "093520.929000", "093520.932000", "093520.935000", "093520.939000", "093520.942000", "093520.945000", "093520.948000", "093520.951000", "093520.954000", "093520.957000", "093520.960000", "093600.879000", "093600.882000", "093600.886000", "093600.889000", "093600.892000", "093600.895000", "093600.898000", "093600.901000", "093600.904000", "093600.907000", "093600.910000", "093600.913000", "093600.916000", "093600.919000", "093600.923000", "093600.926000", "093600.930000", "093600.933000", "093600.936000", "093600.939000", "093600.942000", "093600.945000", "093600.948000", "093600.951000", "093600.954000", "093600.957000", "093600.960000", "093640.879000", "093640.883000", "093640.886000", "093640.889000", "093640.892000", "093640.895000", "093640.898000", "093640.901000", "093640.904000", "093640.907000", "093640.910000", "093640.913000", "093640.916000", "093640.920000", "093640.923000", "093640.926000", "093640.929000", "093640.932000", "093640.935000", "093640.938000", "093640.941000", "093640.944000", "093640.947000", "093640.950000", "093640.953000", "093640.956000", "093640.959000", "093720.880000", "093720.883000", "093720.886000", "093720.890000", "093720.893000", "093720.896000", "093720.899000", "093720.902000", "093720.905000", "093720.908000", "093720.911000", "093720.914000", "093720.917000", "093720.921000", "093720.924000", "093720.927000", "093720.930000", "093720.933000", "093720.936000", "093720.939000", "093720.942000", "093720.945000", "093720.948000", "093720.951000", "093720.954000", "093720.957000", "093720.960000", "093725.342000", "093725.346000", "093725.349000"],
