{
  "AcquisitionMatrixPE": 104,
  "AcquisitionNumber": 1,
  "AcquisitionTime": "09:37:58.922500",
  "BandwidthPerPixelPhaseEncode": 17.17,
  "BaseResolution": 104,
  "BodyPartExamined": "BRAIN",
  "CoilString": "HC1-7;NC1_2",
  "ConsistencyInfo": "N4_VE11C_LATEST_20160120",
  "ConversionSoftware": "dcm2niix",
  "ConversionSoftwareVersion": "v1.0.20190902",
  "DerivedVendorReportedEchoSpacing": 0.000560011,
  "DeviceSerialNumber": "167006",
  "DwellTime": 2.1e-06,
  "EchoTime": 0.037,
  "EchoTrainLength": 104,
  "EffectiveEchoSpacing": 0.000560011,
  "FlipAngle": 52,
  "ImageComments": "Unaliased_MB4_PE3_LB",
  "ImageOrientationPatientDICOM": [0.999541, 0.00216553, 0.0302275, 0.0137827, 0.855832, -0.51707],
  "ImageType": [
    "ORIGINAL",
    "PRIMARY",
    "M",
    "MB",
    "ND",
    "MOSAIC"
],
  "ImagingFrequency": 123.259,
  "InPlanePhaseEncodingDirectionDICOM": "COL",
  "InstitutionAddress": "Chemin_Queen-Mary_4565_Montreal_District_CA_H3W_1W5",
  "InstitutionName": "IUGM",
  "InstitutionalDepartmentName": "Department",
  "MRAcquisitionType": "2D",
  "MagneticFieldStrength": 3,
  "Manufacturer": "Siemens",
  "ManufacturersModelName": "Prisma_fit",
  "Modality": "MR",
  "MultibandAccelerationFactor": 4,
  "PartialFourier": 1,
  "PatientPosition": "HFS",
  "PercentPhaseFOV": 100,
  "PhaseEncodingDirection": "j",
  "PhaseEncodingSteps": 104,
  "PhaseResolution": 1,
  "PixelBandwidth": 2290,
  "ProcedureStepDescription": "video_friends",
  "ProtocolName": "func_task-friends-s03e12b",
  "PulseSequenceDetails": "%CustomerSeq%_cmrr_mbep2d_bold",
  "ReceiveCoilActiveElements": "HC1-7;NC1,2",
  "ReceiveCoilName": "HeadNeck_64",
  "ReconMatrixPE": 104,
  "RepetitionTime": 1.49,
  "SAR": 0.0352829,
  "ScanOptions": "FS",
  "ScanningSequence": "EP",
  "SequenceName": "epfid2d1_104",
  "SequenceVariant": "SK_SS",
  "SeriesDescription": "func_task-friends-s03e12b",
  "SeriesNumber": 12,
  "ShimSetting": [625, -7194, -8890, 403, -23, -209, -3, -42],
  "SliceThickness": 2,
  "SliceTiming": [0, 0.785, 0.0975, 0.8825, 0.195, 0.98, 0.295, 1.0775, 0.3925, 1.175, 0.49, 1.275, 0.5875, 1.3725, 0.685, 0, 0.785, 0.0975, 0.8825, 0.195, 0.98, 0.295, 1.0775, 0.3925, 1.175, 0.49, 1.275, 0.5875, 1.3725, 0.685, 0, 0.785, 0.0975, 0.8825, 0.195, 0.98, 0.295, 1.0775, 0.3925, 1.175, 0.49, 1.275, 0.5875, 1.3725, 0.685, 0, 0.785, 0.0975, 0.8825, 0.195, 0.98, 0.295, 1.0775, 0.3925, 1.175, 0.49, 1.275, 0.5875, 1.3725, 0.685],
  "SoftwareVersions": "syngo_MR_E11",
  "SpacingBetweenSlices": 2,
  "StationName": "MRC35049",
  "TaskName": "s03e12b",
  "TotalReadoutTime": 0.0576811,
  "TxRefAmp": 250.719,
  "WipMemBlock": "1bf0f892-2ee1-4555-ad91-2bc36cab42f4||Sequence: R016 ve11c/master r/e634e98; Dec 19 2017 11:00:25 by eja",
  "dcmmeta_affine": [
    [-1.9990813732147217, 0.02756544202566147, 0.05397871136665344, 100.08673095703125],
    [-0.004331065807491541, 1.711663842201233, -1.0344990491867065, -58.927371978759766],
    [0.06045491248369217, 1.0341408252716064, 1.7108179330825806, -107.06742095947266],
    [0.0, 0.0, 0.0, 1.0]
],
  "dcmmeta_reorient_transform": [
    [0.0, -1.0, 0.0, 103.0],
    [1.0, 0.0, 0.0, 0.0],
    [0.0, 0.0, 1.0, 0.0],
    [0.0, 0.0, 0.0, 1.0]
],
  "dcmmeta_shape": [104, 104, 60, 464],
  "dcmmeta_slice_dim": 2,
  "dcmmeta_version": 0.6,
  "global": {
    "const": {
      "AcquisitionMatrix": [104, 0, 0, 104],
      "AngioFlag": "N",
      "BitsAllocated": 16,
      "BitsStored": 16,
      "BodyPartExamined": "BRAIN",
      "Columns": 832,
      "EchoNumbers": 1,
      "EchoTime": 37.0,
      "EchoTrainLength": 104,
      "FlipAngle": 52.0,
      "HighBit": 15,
      "ImageOrientationPatient": [0.99954070020717, 0.0021655329588, 0.03022745600233, 0.01378272087188, 0.85583190039263, -0.5170703964411],
      "ImagePositionPatient": [-840.62542175456, -741.99612986821, 353.8707397751],
      "ImageType": [
        "ORIGINAL",
        "PRIMARY",
        "M",
        "MB",
        "ND",
        "MOSAIC"
],
      "ImagedNucleus": "1H",
      "ImagingFrequency": 123.259072,
      "InPlanePhaseEncodingDirection": "COL",
      "MRAcquisitionType": "2D",
      "MagneticFieldStrength": 3.0,
      "Manufacturer": "SIEMENS",
      "ManufacturerModelName": "Prisma_fit",
      "Modality": "MR",
      "NumberOfAverages": 1.0,
      "NumberOfPhaseEncodingSteps": 104,
      "PercentPhaseFieldOfView": 100.0,
      "PercentSampling": 100.0,
      "PerformedProcedureStepStartTime": "090607.904000",
      "PhotometricInterpretation": "MONOCHROME2",
      "PixelBandwidth": 2290.0,
      "PixelRepresentation": 0,
      "PixelSpacing": [2.0, 2.0],
      "ProtocolName": "func_task-friends-s03e12b",
      "RepetitionTime": 1490.0,
      "Rows": 832,
      "SAR": 0.0352829081044,
      "SamplesPerPixel": 1,
      "ScanOptions": "FS",
      "ScanningSequence": "EP",
      "SequenceName": "epfid2d1_104",
      "SequenceVariant": [
        "SK",
        "SS"
],
      "SeriesDescription": "func_task-friends-s03e12b",
      "SeriesNumber": 12,
      "SeriesTime": "093926.278000",
      "SliceLocation": -58.405001810279,
      "SliceThickness": 2.0,
      "SmallestImagePixelValue": 0,
      "SoftwareVersions": "syngo MR E11",
      "SpacingBetweenSlices": 2.0000000546227,
      "SpecificCharacterSet": "ISO_IR 100",
      "StudyID": "1",
      "StudyTime": "090607.768000",
      "TransmitCoilName": "Body",
      "VariableFlipAngleFlag": "N",
      "WindowCenterWidthExplanation": "Algo1",
      "dBdt": 0.0},
    "slices": {}
  },
  "time": {
    "samples": {
      "AcquisitionNumber": [1, 2, 3, 4, 5, 6, 7, 8, 9, 10, 11, 12, 13, 14, 15, 16, 17, 18, 19, 20, 21, 22, 23, 24, 25, 26, 27, 28, 29, 30, 31, 32, 33, 34, 35, 36, 37, 38, 39, 40, 41, 42, 43, 44, 45, 46, 47, 48, 49, 50, 51, 52, 53, 54, 55, 56, 57, 58, 59, 60, 61, 62, 63, 64, 65, 66, 67, 68, 69, 70, 71, 72, 73, 74, 75, 76, 77, 78, 79, 80, 81, 82, 83, 84, 85, 86, 87, 88, 89, 90, 91, 92, 93, 94, 95, 96, 97, 98, 99, 100, 101, 102, 103, 104, 105, 106, 107, 108, 109, 110, 111, 112, 113, 114, 115, 116, 117, 118, 119, 120, 121, 122, 123, 124, 125, 126, 127, 128, 129, 130, 131, 132, 133, 134, 135, 136, 137, 138, 139, 140, 141, 142, 143, 144, 145, 146, 147, 148, 149, 150, 151, 152, 153, 154, 155, 156, 157, 158, 159, 160, 161, 162, 163, 164, 165, 166, 167, 168, 169, 170, 171, 172, 173, 174, 175, 176, 177, 178, 179, 180, 181, 182, 183, 184, 185, 186, 187, 188, 189, 190, 191, 192, 193, 194, 195, 196, 197, 198, 199, 200, 201, 202, 203, 204, 205, 206, 207, 208, 209, 210, 211, 212, 213, 214, 215, 216, 217, 218, 219, 220, 221, 222, 223, 224, 225, 226, 227, 228, 229, 230, 231, 232, 233, 234, 235, 236, 237, 238, 239, 240, 241, 242, 243, 244, 245, 246, 247, 248, 249, 250, 251, 252, 253, 254, 255, 256, 257, 258, 259, 260, 261, 262, 263, 264, 265, 266, 267, 268, 269, 270, 271, 272, 273, 274, 275, 276, 277, 278, 279, 280, 281, 282, 283, 284, 285, 286, 287, 288, 289, 290, 291, 292, 293, 294, 295, 296, 297, 298, 299, 300, 301, 302, 303, 304, 305, 306, 307, 308, 309, 310, 311, 312, 313, 314, 315, 316, 317, 318, 319, 320, 321, 322, 323, 324, 325, 326, 327, 328, 329, 330, 331, 332, 333, 334, 335, 336, 337, 338, 339, 340, 341, 342, 343, 344, 345, 346, 347, 348, 349, 350, 351, 352, 353, 354, 355, 356, 357, 358, 359, 360, 361, 362, 363, 364, 365, 366, 367, 368, 369, 370, 371, 372, 373, 374, 375, 376, 377, 378, 379, 380, 381, 382, 383, 384, 385, 386, 387, 388, 389, 390, 391, 392, 393, 394, 395, 396, 397, 398, 399, 400, 401, 402, 403, 404, 405, 406, 407, 408, 409, 410, 411, 412, 413, 414, 415, 416, 417, 418, 419, 420, 421, 422, 423, 424, 425, 426, 427, 428, 429, 430, 431, 432, 433, 434, 435, 436, 437, 438, 439, 440, 441, 442, 443, 444, 445, 446, 447, 448, 449, 450, 451, 452, 453, 454, 455, 456, 457, 458, 459, 460, 461, 462, 463, 464],
      "AcquisitionTime": ["093758.922500", "093800.412500", "093801.902500", "093803.392500", "093804.882500", "093806.372500", "093807.862500", "093809.352500", "093810.842500", "093812.332500", "093813.822500", "093815.312500", "093816.802500", "093818.292500", "093819.782500", "093821.272500", "093822.762500", "093824.252500", "093825.742500", "093827.232500", "093828.722500", "093830.212500", "093831.702500", "093833.192500", "093834.682500", "093836.172500", "093837.662500", "093839.152500", "093840.642500", "093842.132500", "093843.622500", "093845.112500", "093846.602500", "093848.092500", "093849.582500", "093851.072500", "093852.562500", "093854.052500", "093855.542500", "093857.032500", "093858.522500", "093900.012500", "093901.502500", "093902.992500", "093904.482500", "093905.972500", "093907.462500", "093908.952500", "093910.442500", "093911.932500", "093913.422500", "093914.912500", "093916.402500", "093917.892500", "093919.382500", "093920.872500", "093922.362500", "093923.852500", "093925.342500", "093926.832500", "093928.322500", "093929.812500", "093931.302500", "093932.792500", "093934.282500", "093935.772500", "093937.262500", "093938.752500", "093940.242500", "093941.732500", "093943.222500", "093944.712500", "093946.202500", "093947.692500", "093949.182500", "093950.672500", "093952.162500", "093953.652500", "093955.142500", "093956.632500", "093958.122500", "093959.612500", "094001.102500", "094002.592500", "094004.082500", "094005.572500", "094007.062500", "094008.552500", "094010.042500", "094011.532500", "094013.022500", "094014.512500", "094016.002500", "094017.492500", "094018.982500", "094020.472500", "094021.962500", "094023.452500", "094024.942500", "094026.432500", "094027.922500", "094029.412500", "094030.902500", "094032.392500", "094033.882500", "094035.372500", "094036.862500", "094038.352500", "094039.842500", "094041.332500", "094042.822500", "094044.312500", "094045.802500", "094047.292500", "094048.782500", "094050.272500", "094051.762500", "094053.252500", "094054.742500", "094056.232500", "094057.722500", "094059.212500", "094100.702500", "094102.192500", "094103.682500", "094105.172500", "094106.662500", "094108.152500", "094109.642500", "094111.132500", "094112.622500", "094114.112500", "094115.602500", "094117.092500", "094118.582500", "094120.072500", "094121.562500", "094123.052500", "094124.542500", "094126.032500", "094127.522500", "094129.012500", "094130.502500", "094131.992500", "094133.482500", "094134.972500", "094136.462500", "094137.952500", "094139.442500", "094140.932500", "094142.422500", "094143.912500", "094145.402500", "094146.892500", "094148.382500", "094149.872500", "094151.362500", "094152.852500", "094154.342500", "094155.832500", "094157.322500", "094158.812500", "094200.302500", "094201.792500", "094203.282500", "094204.772500", "094206.262500", "094207.752500", "094209.242500", "094210.732500", "094212.222500", "094213.712500", "094215.202500", "094216.692500", "094218.182500", "094219.672500", "094221.162500", "094222.652500", "094224.142500", "094225.632500", "094227.122500", "094228.612500", "094230.102500", "094231.592500", "094233.082500", "094234.572500", "094236.062500", "094237.552500", "094239.042500", "094240.532500", "094242.022500", "094243.512500", "094245.002500", "094246.492500", "094247.982500", "094249.472500", "094250.962500", "094252.452500", "094253.942500", "094255.432500", "094256.922500", "094258.412500", "094259.902500", "094301.392500", "094302.882500", "094304.372500", "094305.862500", "094307.352500", "094308.842500", "094310.332500", "094311.822500", "094313.312500", "094314.802500", "094316.292500", "094317.782500", "094319.272500", "094320.762500", "094322.252500", "094323.742500", "094325.232500", "094326.722500", "094328.212500", "094329.702500", "094331.192500", "094332.682500", "094334.172500", "094335.662500", "094337.152500", "094338.642500", "094340.132500", "094341.622500", "094343.112500", "094344.602500", "094346.092500", "094347.582500", "094349.072500", "094350.562500", "094352.052500", "094353.542500", "094355.032500", "094356.522500", "094358.012500", "094359.502500", "094400.992500", "094402.482500", "094403.972500", "094405.462500", "094406.952500", "094408.442500", "094409.932500", "094411.422500", "094412.912500", "094414.402500", "094415.892500", "094417.382500", "094418.872500", "094420.362500", "094421.852500", "094423.342500", "094424.832500", "094426.322500", "094427.812500", "094429.302500", "094430.792500", "094432.282500", "094433.772500", "094435.262500", "094436.752500", "094438.242500", "094439.732500", "094441.222500", "094442.712500", "094444.202500", "094445.692500", "094447.182500", "094448.672500", "094450.162500", "094451.652500", "094453.142500", "094454.632500", "094456.122500", "094457.612500", "094459.102500", "094500.592500", "094502.082500", "094503.572500", "094505.062500", "094506.552500", "094508.042500", "094509.532500", "094511.022500", "094512.512500", "094514.002500", "094515.492500", "094516.982500", "094518.472500", "094519.962500", "094521.452500", "094522.942500", "094524.432500", "094525.922500", "094527.412500", "094528.902500", "094530.392500", "094531.882500", "094533.372500", "094534.862500", "094536.352500", "094537.842500", "094539.332500", "094540.822500", "094542.312500", "094543.802500", "094545.292500", "094546.782500", "094548.272500", "094549.762500", "094551.252500", "094552.742500", "094554.232500", "094555.722500", "094557.212500", "094558.702500", "094600.192500", "094601.682500", "094603.172500", "094604.662500", "094606.152500", "094607.642500", "094609.132500", "094610.622500", "094612.112500", "094613.602500", "094615.092500", "094616.582500", "094618.072500", "094619.562500", "094621.052500", "094622.542500", "094624.032500", "094625.522500", "094627.012500", "094628.502500", "094629.992500", "094631.482500", "094632.972500", "094634.462500", "094635.952500", "094637.442500", "094638.932500", "094640.422500", "094641.912500", "094643.402500", "094644.892500", "094646.382500", "094647.872500", "094649.362500", "094650.852500", "094652.342500", "094653.832500", "094655.322500", "094656.812500", "094658.302500", "094659.792500", "094701.282500", "094702.772500", "094704.262500", "094705.752500", "094707.242500", "094708.732500", "094710.222500", "094711.712500", "094713.202500", "094714.692500", "094716.182500", "094717.672500", "094719.162500", "094720.652500", "094722.142500", "094723.632500", "094725.122500", "094726.612500", "094728.102500", "094729.592500", "094731.082500", "094732.572500", "094734.062500", "094735.552500", "094737.042500", "094738.532500", "094740.022500", "094741.512500", "094743.002500", "094744.492500", "094745.982500", "094747.472500", "094748.962500", "094750.452500", "094751.942500", "094753.432500", "094754.922500", "094756.412500", "094757.902500", "094759.392500", "094800.882500", "094802.372500", "094803.862500", "094805.352500", "094806.842500", "094808.332500", "094809.822500", "094811.312500", "094812.802500", "094814.292500", "094815.782500", "094817.272500", "094818.762500", "094820.252500", "094821.742500", "094823.232500", "094824.722500", "094826.212500", "094827.702500", "094829.192500", "094830.682500", "094832.172500", "094833.662500", "094835.152500", "094836.642500", "094838.132500", "094839.622500", "094841.112500", "094842.602500", "094844.092500", "094845.582500", "094847.072500", "094848.562500", "094850.052500", "094851.542500", "094853.032500", "094854.522500", "094856.012500", "094857.502500", "094858.992500", "094900.482500", "094901.972500", "094903.462500", "094904.952500", "094906.442500", "094907.932500", "094909.422500", "094910.912500", "094912.402500", "094913.892500", "094915.382500", "094916.872500", "094918.362500", "094919.852500", "094921.342500", "094922.832500", "094924.322500", "094925.812500", "094927.302500", "094928.792500"],
      "ContentTime": ["093926.281000", "093926.285000", "093926.288000", "093926.291000", "093926.294000", "093926.297000", "093926.300000", "093926.314000", "093926.317000", "093926.320000", "093926.323000", "093926.326000", "093926.329000", "093926.333000", "093926.336000", "093926.339000", "093926.342000", "093926.349000", "093926.352000", "093926.355000", "093926.358000", "093926.362000", "093926.367000", "093926.370000", "093926.373000", "093926.376000", "093926.379000", "093926.382000", "093926.385000", "093926.388000", "093926.391000", "093946.243000", "093946.246000", "093946.249000", "093946.252000", "093946.256000", "093946.259000", "093946.262000", "093946.265000", "093946.268000", "093946.271000", "093946.274000", "093946.277000", "093946.280000", "093946.283000", "093946.286000", "093946.289000", "093946.292000", "093946.295000", "093946.299000", "093946.302000", "094006.243000", "094006.246000", "094006.249000", "094006.253000", "094006.256000", "094006.259000", "094006.262000", "094006.265000", "094006.268000", "094006.271000", "094006.274000", "094006.277000", "094006.280000", "094006.283000", "094006.286000", "094006.290000", "094006.293000", "094006.296000", "094006.299000", "094006.302000", "094006.305000", "094026.243000", "094026.246000", "094026.249000", "094026.252000", "094026.255000", "094026.258000", "094026.262000", "094026.265000", "094026.268000", "094026.271000", "094026.274000", "094026.277000", "094026.280000", "094026.283000", "094026.286000", "094026.289000", "094026.292000", "094026.295000", "094026.298000", "094026.301000", "094046.243000", "094046.246000", "094046.249000", "094046.253000", "094046.256000", "094046.259000", "094046.262000", "094046.265000", "094046.268000", "094046.271000", "094046.274000", "094046.277000", "094046.280000", "094046.283000", "094046.286000", "094046.289000", "094046.292000", "094046.295000", "094046.301000", "094046.304000", "094126.243000", "094126.246000", "094126.252000", "094126.255000", "094126.258000", "094126.261000", "094126.265000", "094126.268000", "094126.271000", "094126.274000", "094126.277000", "094126.280000", "094126.283000", "094126.286000", "094126.290000", "094126.294000", "094126.297000", "094126.301000", "094126.304000", "094126.307000", "094126.311000", "094126.314000", "094126.317000", "094126.320000", "094126.323000", "094126.326000", "094206.243000", "094206.246000", "094206.249000", "094206.252000", "094206.255000", "094206.258000", "094206.261000", "094206.264000", "094206.267000", "094206.271000", "094206.274000", "094206.277000", "094206.280000", "094206.283000", "094206.286000", "094206.289000", "094206.292000", "094206.295000", "094206.298000", "094206.301000", "094206.304000", "094206.307000", "094206.311000", "094206.314000", "094206.317000", "094206.320000", "094206.323000", "094246.243000", "094246.246000", "094246.249000", "094246.252000", "094246.256000", "094246.259000", "094246.262000", "094246.265000", "094246.268000", "094246.271000", "094246.274000", "094246.277000", "094246.280000", "094246.284000", "094246.287000", "094246.290000", "094246.293000", "094246.296000", "094246.299000", "094246.302000", "094246.305000", "094246.308000", "094246.311000", "094246.314000", "094246.317000", "094246.320000", "094246.323000", "094326.242000", "094326.245000", "094326.248000", "094326.251000", "094326.255000", "094326.258000", "094326.261000", "094326.264000", "094326.267000", "094326.270000", "094326.273000", "094326.276000", "094326.279000", "094326.282000", "094326.285000", "094326.288000", "094326.292000", "094326.295000", "094326.298000", "094326.301000", "094326.304000", "094326.307000", "094326.310000", "094326.313000", "094326.316000", "094326.319000", "094326.322000", "094406.243000", "094406.246000", "094406.249000", "094406.253000", "094406.256000", "094406.259000", "094406.262000", "094406.265000", "094406.268000", "094406.271000", "094406.274000", "094406.277000", "094406.280000", "094406.283000", "094406.286000", "094406.289000", "094406.292000", "094406.296000", "094406.299000", "094406.302000", "094406.305000", "094406.308000", "094406.311000", "094406.314000", "094406.317000", "094406.320000", "094406.323000", "094446.243000", "094446.246000", "094446.249000", "094446.253000", "094446.255000", "094446.259000", "094446.262000", "094446.265000", "094446.268000", "094446.271000", "094446.274000", "094446.277000", "094446.280000", "094446.283000", "094446.286000", "094446.289000", "094446.292000", "094446.295000", "094446.299000", "094446.302000", "094446.305000", "094446.308000", "094446.311000", "094446.314000", "094446.317000", "094446.320000", "094446.323000", "094526.243000", "094526.253000", "094526.256000", "094526.259000", "094526.262000", "094526.266000", "094526.269000", "094526.272000", "094526.275000", "094526.278000", "094526.281000", "094526.284000", "094526.287000", "094526.290000", "094526.293000", "094526.296000", "094526.299000", "094526.302000", "094526.305000", "094526.308000", "094526.311000", "094526.315000", "094526.318000", "094526.321000", "094526.324000", "094526.327000", "094526.330000", "094606.243000", "094606.246000", "094606.250000", "094606.253000", "094606.256000", "094606.259000", "094606.262000", "094606.265000", "094606.268000", "094606.271000", "094606.274000", "094606.277000", "094606.280000", "094606.284000", "094606.288000", "094606.291000", "094606.294000", "094606.297000", "094606.300000", "094606.303000", "094606.306000", "094606.309000", "094606.312000", "094606.315000", "094606.318000", "094606.321000", "094646.243000", "094646.246000", "094646.250000", "094646.253000", "094646.256000", "094646.259000", "094646.262000", "094646.265000", "094646.268000", "094646.271000", "094646.274000", "094646.277000", "094646.280000", "094646.283000", "094646.286000", "094646.289000", "094646.292000", "094646.295000", "094646.299000", "094646.302000", "094646.305000", "094646.308000", "094646.311000", "094646.314000", "094646.317000", "094646.320000", "094646.323000", "094726.243000", "094726.247000", "094726.250000", "094726.253000", "094726.256000", "094726.259000", "094726.262000", "094726.265000", "094726.268000", "094726.271000", "094726.274000", "094726.277000", "094726.280000", "094726.283000", "094726.286000", "094726.289000", "094726.292000", "094726.296000", "094726.299000", "094726.302000", "094726.305000", "094726.308000", "094726.311000", "094726.314000", "094726.317000", "094726.338000", "094726.341000", "094806.242000", "094806.245000", "094806.248000", "094806.251000", "094806.255000", "094806.258000", "094806.261000", "094806.264000", "094806.267000", "094806.270000", "094806.273000", "094806.276000", "094806.279000", "094806.282000", "094806.285000", "094806.288000", "094806.291000", "094806.294000", "094806.297000", "094806.301000", "094806.304000", "094806.307000", "094806.310000", "094806.313000", "094806.316000", "094806.319000", "094806.322000", "094846.243000", "094846.246000", "094846.249000", "094846.253000", "094846.256000", "094846.259000", "094846.262000", "094846.265000", "094846.268000", "094846.271000", "094846.274000", "094846.278000", "094846.281000", "094846.284000", "094846.287000", "094846.290000", "094846.293000", "094846.296000", "094846.299000", "094846.302000", "094846.305000", "094846.308000", "094846.311000", "094846.314000", "094846.317000", "094846.320000", "094846.323000", "094926.243000", "094926.246000", "094926.250000", "094926.253000", "094926.256000", "094926.259000", "094926.262000", "094926.265000", "094926.268000", "094926.271000", "094926.274000", "094926.277000", "094926.280000", "094926.283000", "094926.287000", "094926.290000", "094926.293000", "094926.296000", "094926.299000", "094926.302000", "094926.305000", "094926.308000", "094926.311000", "094926.314000", "094926.317000", "094926.320000", "094926.323000", "094930.591000", "094930.595000", "094930.598000"],
