{
  "AcquisitionMatrixPE": 104,
  "AcquisitionNumber": 1,
  "AcquisitionTime": "09:50:3.942500",
  "BandwidthPerPixelPhaseEncode": 17.17,
  "BaseResolution": 104,
  "BodyPartExamined": "BRAIN",
  "CoilString": "HC1-7;NC1_2",
  "ConsistencyInfo": "N4_VE11C_LATEST_20160120",
  "ConversionSoftware": "dcm2niix",
  "ConversionSoftwareVersion": "v1.0.20190902",
  "DerivedVendorReportedEchoSpacing": 0.000560011,
  "DeviceSerialNumber": "167006",
  "DwellTime": 2.1e-06,
  "EchoTime": 0.037,
  "EchoTrainLength": 104,
  "EffectiveEchoSpacing": 0.000560011,
  "FlipAngle": 52,
  "ImageComments": "Unaliased_MB4_PE3_LB",
  "ImageOrientationPatientDICOM": [0.999541, 0.00216553, 0.0302275, 0.0137827, 0.855832, -0.51707],
  "ImageType": [
    "ORIGINAL",
    "PRIMARY",
    "M",
    "MB",
    "ND",
    "MOSAIC"
],
  "ImagingFrequency": 123.259,
  "InPlanePhaseEncodingDirectionDICOM": "COL",
  "InstitutionAddress": "Chemin_Queen-Mary_4565_Montreal_District_CA_H3W_1W5",
  "InstitutionName": "IUGM",
  "InstitutionalDepartmentName": "Department",
  "MRAcquisitionType": "2D",
  "MagneticFieldStrength": 3,
  "Manufacturer": "Siemens",
  "ManufacturersModelName": "Prisma_fit",
  "Modality": "MR",
  "MultibandAccelerationFactor": 4,
  "PartialFourier": 1,
  "PatientPosition": "HFS",
  "PercentPhaseFOV": 100,
  "PhaseEncodingDirection": "j",
  "PhaseEncodingSteps": 104,
  "PhaseResolution": 1,
  "PixelBandwidth": 2290,
  "ProcedureStepDescription": "video_friends",
  "ProtocolName": "func_task-friends-s03e13a",
  "PulseSequenceDetails": "%CustomerSeq%_cmrr_mbep2d_bold",
  "ReceiveCoilActiveElements": "HC1-7;NC1,2",
  "ReceiveCoilName": "HeadNeck_64",
  "ReconMatrixPE": 104,
  "RepetitionTime": 1.49,
  "SAR": 0.0352861,
  "ScanOptions": "FS",
  "ScanningSequence": "EP",
  "SequenceName": "epfid2d1_104",
  "SequenceVariant": "SK_SS",
  "SeriesDescription": "func_task-friends-s03e13a",
  "SeriesNumber": 14,
  "ShimSetting": [625, -7194, -8890, 403, -23, -209, -3, -42],
  "SliceThickness": 2,
  "SliceTiming": [0, 0.7825, 0.0975, 0.88, 0.195, 0.98, 0.2925, 1.0775, 0.39, 1.175, 0.49, 1.2725, 0.5875, 1.37, 0.685, 0, 0.7825, 0.0975, 0.88, 0.195, 0.98, 0.2925, 1.0775, 0.39, 1.175, 0.49, 1.2725, 0.5875, 1.37, 0.685, 0, 0.7825, 0.0975, 0.88, 0.195, 0.98, 0.2925, 1.0775, 0.39, 1.175, 0.49, 1.2725, 0.5875, 1.37, 0.685, 0, 0.7825, 0.0975, 0.88, 0.195, 0.98, 0.2925, 1.0775, 0.39, 1.175, 0.49, 1.2725, 0.5875, 1.37, 0.685],
  "SoftwareVersions": "syngo_MR_E11",
  "SpacingBetweenSlices": 2,
  "StationName": "MRC35049",
  "TaskName": "s03e13a",
  "TotalReadoutTime": 0.0576811,
  "TxRefAmp": 250.719,
  "WipMemBlock": "5d05826a-d700-4b0e-835b-d916f089e500||Sequence: R016 ve11c/master r/e634e98; Dec 19 2017 11:00:25 by eja",
  "dcmmeta_affine": [
    [-1.9990813732147217, 0.02756544202566147, 0.05397871136665344, 100.08673095703125],
    [-0.004331065807491541, 1.711663842201233, -1.0344990491867065, -58.927371978759766],
    [0.06045491248369217, 1.0341408252716064, 1.7108179330825806, -107.06742095947266],
    [0.0, 0.0, 0.0, 1.0]
],
  "dcmmeta_reorient_transform": [
    [0.0, -1.0, 0.0, 103.0],
    [1.0, 0.0, 0.0, 0.0],
    [0.0, 0.0, 1.0, 0.0],
    [0.0, 0.0, 0.0, 1.0]
],
  "dcmmeta_shape": [104, 104, 60, 474],
  "dcmmeta_slice_dim": 2,
  "dcmmeta_version": 0.6,
  "global": {
    "const": {
      "AcquisitionMatrix": [104, 0, 0, 104],
      "AngioFlag": "N",
      "BitsAllocated": 16,
      "BitsStored": 16,
      "BodyPartExamined": "BRAIN",
      "Columns": 832,
      "EchoNumbers": 1,
      "EchoTime": 37.0,
      "EchoTrainLength": 104,
      "FlipAngle": 52.0,
      "HighBit": 15,
      "ImageOrientationPatient": [0.99954070020717, 0.0021655329588, 0.03022745600233, 0.01378272087188, 0.85583190039263, -0.5170703964411],
      "ImagePositionPatient": [-840.62542175456, -741.99612986821, 353.8707397751],
      "ImageType": [
        "ORIGINAL",
        "PRIMARY",
        "M",
        "MB",
        "ND",
        "MOSAIC"
],
      "ImagedNucleus": "1H",
      "ImagingFrequency": 123.259075,
      "InPlanePhaseEncodingDirection": "COL",
      "MRAcquisitionType": "2D",
      "MagneticFieldStrength": 3.0,
      "Manufacturer": "SIEMENS",
      "ManufacturerModelName": "Prisma_fit",
      "Modality": "MR",
      "NumberOfAverages": 1.0,
      "NumberOfPhaseEncodingSteps": 104,
      "PercentPhaseFieldOfView": 100.0,
      "PercentSampling": 100.0,
      "PerformedProcedureStepStartTime": "090607.904000",
      "PhotometricInterpretation": "MONOCHROME2",
      "PixelBandwidth": 2290.0,
      "PixelRepresentation": 0,
      "PixelSpacing": [2.0, 2.0],
      "ProtocolName": "func_task-friends-s03e13a",
      "RepetitionTime": 1490.0,
      "Rows": 832,
      "SAR": 0.03528607878173,
      "SamplesPerPixel": 1,
      "ScanOptions": "FS",
      "ScanningSequence": "EP",
      "SequenceName": "epfid2d1_104",
      "SequenceVariant": [
        "SK",
        "SS"
],
      "SeriesDescription": "func_task-friends-s03e13a",
      "SeriesNumber": 14,
      "SeriesTime": "095126.137000",
      "SliceLocation": -58.405001810279,
      "SliceThickness": 2.0,
      "SmallestImagePixelValue": 0,
      "SoftwareVersions": "syngo MR E11",
      "SpacingBetweenSlices": 2.0000000546227,
      "SpecificCharacterSet": "ISO_IR 100",
      "StudyID": "1",
      "StudyTime": "090607.768000",
      "TransmitCoilName": "Body",
      "VariableFlipAngleFlag": "N",
      "WindowCenterWidthExplanation": "Algo1",
      "dBdt": 0.0},
    "slices": {}
  },
  "time": {
    "samples": {
      "AcquisitionNumber": [1, 2, 3, 4, 5, 6, 7, 8, 9, 10, 11, 12, 13, 14, 15, 16, 17, 18, 19, 20, 21, 22, 23, 24, 25, 26, 27, 28, 29, 30, 31, 32, 33, 34, 35, 36, 37, 38, 39, 40, 41, 42, 43, 44, 45, 46, 47, 48, 49, 50, 51, 52, 53, 54, 55, 56, 57, 58, 59, 60, 61, 62, 63, 64, 65, 66, 67, 68, 69, 70, 71, 72, 73, 74, 75, 76, 77, 78, 79, 80, 81, 82, 83, 84, 85, 86, 87, 88, 89, 90, 91, 92, 93, 94, 95, 96, 97, 98, 99, 100, 101, 102, 103, 104, 105, 106, 107, 108, 109, 110, 111, 112, 113, 114, 115, 116, 117, 118, 119, 120, 121, 122, 123, 124, 125, 126, 127, 128, 129, 130, 131, 132, 133, 134, 135, 136, 137, 138, 139, 140, 141, 142, 143, 144, 145, 146, 147, 148, 149, 150, 151, 152, 153, 154, 155, 156, 157, 158, 159, 160, 161, 162, 163, 164, 165, 166, 167, 168, 169, 170, 171, 172, 173, 174, 175, 176, 177, 178, 179, 180, 181, 182, 183, 184, 185, 186, 187, 188, 189, 190, 191, 192, 193, 194, 195, 196, 197, 198, 199, 200, 201, 202, 203, 204, 205, 206, 207, 208, 209, 210, 211, 212, 213, 214, 215, 216, 217, 218, 219, 220, 221, 222, 223, 224, 225, 226, 227, 228, 229, 230, 231, 232, 233, 234, 235, 236, 237, 238, 239, 240, 241, 242, 243, 244, 245, 246, 247, 248, 249, 250, 251, 252, 253, 254, 255, 256, 257, 258, 259, 260, 261, 262, 263, 264, 265, 266, 267, 268, 269, 270, 271, 272, 273, 274, 275, 276, 277, 278, 279, 280, 281, 282, 283, 284, 285, 286, 287, 288, 289, 290, 291, 292, 293, 294, 295, 296, 297, 298, 299, 300, 301, 302, 303, 304, 305, 306, 307, 308, 309, 310, 311, 312, 313, 314, 315, 316, 317, 318, 319, 320, 321, 322, 323, 324, 325, 326, 327, 328, 329, 330, 331, 332, 333, 334, 335, 336, 337, 338, 339, 340, 341, 342, 343, 344, 345, 346, 347, 348, 349, 350, 351, 352, 353, 354, 355, 356, 357, 358, 359, 360, 361, 362, 363, 364, 365, 366, 367, 368, 369, 370, 371, 372, 373, 374, 375, 376, 377, 378, 379, 380, 381, 382, 383, 384, 385, 386, 387, 388, 389, 390, 391, 392, 393, 394, 395, 396, 397, 398, 399, 400, 401, 402, 403, 404, 405, 406, 407, 408, 409, 410, 411, 412, 413, 414, 415, 416, 417, 418, 419, 420, 421, 422, 423, 424, 425, 426, 427, 428, 429, 430, 431, 432, 433, 434, 435, 436, 437, 438, 439, 440, 441, 442, 443, 444, 445, 446, 447, 448, 449, 450, 451, 452, 453, 454, 455, 456, 457, 458, 459, 460, 461, 462, 463, 464, 465, 466, 467, 468, 469, 470, 471, 472, 473, 474],
      "AcquisitionTime": ["095003.942500", "095005.432500", "095006.922500", "095008.412500", "095009.902500", "095011.392500", "095012.882500", "095014.372500", "095015.862500", "095017.352500", "095018.842500", "095020.332500", "095021.822500", "095023.312500", "095024.802500", "095026.292500", "095027.782500", "095029.272500", "095030.762500", "095032.252500", "095033.742500", "095035.232500", "095036.722500", "095038.212500", "095039.702500", "095041.192500", "095042.682500", "095044.172500", "095045.662500", "095047.152500", "095048.642500", "095050.132500", "095051.622500", "095053.112500", "095054.602500", "095056.092500", "095057.582500", "095059.072500", "095100.562500", "095102.052500", "095103.542500", "095105.032500", "095106.522500", "095108.012500", "095109.502500", "095110.992500", "095112.482500", "095113.972500", "095115.462500", "095116.952500", "095118.442500", "095119.932500", "095121.422500", "095122.912500", "095124.402500", "095125.892500", "095127.382500", "095128.872500", "095130.362500", "095131.852500", "095133.342500", "095134.832500", "095136.322500", "095137.812500", "095139.302500", "095140.792500", "095142.282500", "095143.772500", "095145.262500", "095146.752500", "095148.242500", "095149.732500", "095151.222500", "095152.712500", "095154.202500", "095155.692500", "095157.182500", "095158.672500", "095200.162500", "095201.652500", "095203.142500", "095204.632500", "095206.122500", "095207.612500", "095209.102500", "095210.592500", "095212.082500", "095213.572500", "095215.062500", "095216.552500", "095218.042500", "095219.532500", "095221.022500", "095222.512500", "095224.002500", "095225.492500", "095226.982500", "095228.472500", "095229.962500", "095231.452500", "095232.942500", "095234.432500", "095235.922500", "095237.412500", "095238.902500", "095240.392500", "095241.882500", "095243.372500", "095244.862500", "095246.352500", "095247.842500", "095249.332500", "095250.822500", "095252.312500", "095253.802500", "095255.292500", "095256.782500", "095258.272500", "095259.762500", "095301.252500", "095302.742500", "095304.232500", "095305.722500", "095307.212500", "095308.702500", "095310.192500", "095311.682500", "095313.172500", "095314.662500", "095316.152500", "095317.642500", "095319.132500", "095320.622500", "095322.112500", "095323.602500", "095325.092500", "095326.582500", "095328.072500", "095329.562500", "095331.052500", "095332.542500", "095334.032500", "095335.522500", "095337.012500", "095338.502500", "095339.992500", "095341.482500", "095342.972500", "095344.462500", "095345.952500", "095347.442500", "095348.932500", "095350.422500", "095351.912500", "095353.402500", "095354.892500", "095356.382500", "095357.872500", "095359.362500", "095400.852500", "095402.342500", "095403.832500", "095405.322500", "095406.812500", "095408.302500", "095409.792500", "095411.282500", "095412.772500", "095414.262500", "095415.752500", "095417.242500", "095418.732500", "095420.222500", "095421.712500", "095423.202500", "095424.692500", "095426.182500", "095427.672500", "095429.162500", "095430.652500", "095432.142500", "095433.632500", "095435.122500", "095436.612500", "095438.102500", "095439.592500", "095441.082500", "095442.572500", "095444.062500", "095445.552500", "095447.042500", "095448.532500", "095450.022500", "095451.512500", "095453.002500", "095454.492500", "095455.982500", "095457.472500", "095458.962500", "095500.452500", "095501.942500", "095503.432500", "095504.922500", "095506.412500", "095507.902500", "095509.392500", "095510.882500", "095512.372500", "095513.862500", "095515.352500", "095516.842500", "095518.332500", "095519.822500", "095521.312500", "095522.802500", "095524.292500", "095525.782500", "095527.272500", "095528.762500", "095530.252500", "095531.742500", "095533.232500", "095534.722500", "095536.212500", "095537.702500", "095539.192500", "095540.682500", "095542.172500", "095543.662500", "095545.152500", "095546.642500", "095548.132500", "095549.622500", "095551.112500", "095552.602500", "095554.092500", "095555.582500", "095557.072500", "095558.562500", "095600.052500", "095601.542500", "095603.032500", "095604.522500", "095606.012500", "095607.502500", "095608.992500", "095610.482500", "095611.972500", "095613.462500", "095614.952500", "095616.442500", "095617.932500", "095619.422500", "095620.912500", "095622.402500", "095623.892500", "095625.382500", "095626.872500", "095628.362500", "095629.852500", "095631.342500", "095632.832500", "095634.322500", "095635.812500", "095637.302500", "095638.792500", "095640.282500", "095641.772500", "095643.262500", "095644.752500", "095646.242500", "095647.732500", "095649.222500", "095650.712500", "095652.202500", "095653.692500", "095655.182500", "095656.672500", "095658.162500", "095659.652500", "095701.142500", "095702.632500", "095704.122500", "095705.612500", "095707.102500", "095708.592500", "095710.082500", "095711.572500", "095713.062500", "095714.552500", "095716.042500", "095717.532500", "095719.022500", "095720.512500", "095722.002500", "095723.492500", "095724.982500", "095726.472500", "095727.962500", "095729.452500", "095730.942500", "095732.432500", "095733.922500", "095735.412500", "095736.902500", "095738.392500", "095739.882500", "095741.372500", "095742.862500", "095744.352500", "095745.842500", "095747.332500", "095748.822500", "095750.312500", "095751.802500", "095753.292500", "095754.782500", "095756.272500", "095757.762500", "095759.252500", "095800.742500", "095802.232500", "095803.722500", "095805.212500", "095806.702500", "095808.192500", "095809.682500", "095811.172500", "095812.662500", "095814.152500", "095815.642500", "095817.132500", "095818.622500", "095820.112500", "095821.602500", "095823.092500", "095824.582500", "095826.072500", "095827.562500", "095829.052500", "095830.542500", "095832.032500", "095833.522500", "095835.012500", "095836.502500", "095837.992500", "095839.482500", "095840.972500", "095842.462500", "095843.952500", "095845.442500", "095846.932500", "095848.422500", "095849.912500", "095851.402500", "095852.892500", "095854.382500", "095855.872500", "095857.362500", "095858.852500", "095900.342500", "095901.832500", "095903.322500", "095904.812500", "095906.302500", "095907.792500", "095909.282500", "095910.772500", "095912.262500", "095913.752500", "095915.242500", "095916.732500", "095918.222500", "095919.712500", "095921.202500", "095922.692500", "095924.182500", "095925.672500", "095927.162500", "095928.652500", "095930.142500", "095931.632500", "095933.122500", "095934.612500", "095936.102500", "095937.592500", "095939.082500", "095940.572500", "095942.062500", "095943.552500", "095945.042500", "095946.532500", "095948.022500", "095949.512500", "095951.002500", "095952.492500", "095953.982500", "095955.472500", "095956.962500", "095958.452500", "095959.942500", "100001.432500", "100002.922500", "100004.412500", "100005.902500", "100007.392500", "100008.882500", "100010.372500", "100011.862500", "100013.352500", "100014.842500", "100016.332500", "100017.822500", "100019.312500", "100020.802500", "100022.292500", "100023.782500", "100025.272500", "100026.762500", "100028.252500", "100029.742500", "100031.232500", "100032.722500", "100034.212500", "100035.702500", "100037.192500", "100038.682500", "100040.172500", "100041.662500", "100043.152500", "100044.642500", "100046.132500", "100047.622500", "100049.112500", "100050.602500", "100052.092500", "100053.582500", "100055.072500", "100056.562500", "100058.052500", "100059.542500", "100101.032500", "100102.522500", "100104.012500", "100105.502500", "100106.992500", "100108.482500", "100109.972500", "100111.462500", "100112.952500", "100114.442500", "100115.932500", "100117.422500", "100118.912500", "100120.402500", "100121.892500", "100123.382500", "100124.872500", "100126.362500", "100127.852500", "100129.342500", "100130.832500", "100132.322500", "100133.812500", "100135.302500", "100136.792500", "100138.282500", "100139.772500", "100141.262500", "100142.752500", "100144.242500", "100145.732500", "100147.222500", "100148.712500"],
      "ContentTime": ["095126.140000", "095126.143000", "095126.146000", "095126.150000", "095126.153000", "095126.159000", "095126.162000", "095126.165000", "095126.168000", "095126.171000", "095126.174000", "095126.177000", "095126.180000", "095126.183000", "095126.186000", "095126.189000", "095126.195000", "095126.198000", "095126.201000", "095126.204000", "095126.207000", "095126.210000", "095126.213000", "095126.217000", "095126.220000", "095126.223000", "095126.226000", "095146.101000", "095146.104000", "095146.107000", "095146.110000", "095146.113000", "095146.116000", "095146.119000", "095146.128000", "095146.131000", "095146.133000", "095146.136000", "095146.140000", "095146.143000", "095146.145000", "095146.148000", "095146.152000", "095146.155000", "095146.157000", "095146.160000", "095146.164000", "095206.101000", "095206.104000", "095206.107000", "095206.121000", "095206.124000", "095206.127000", "095206.130000", "095206.133000", "095206.136000", "095206.139000", "095206.142000", "095206.145000", "095206.148000", "095206.151000", "095206.154000", "095206.157000", "095206.160000", "095206.163000", "095206.166000", "095206.169000", "095226.101000", "095226.104000", "095226.107000", "095226.110000", "095226.113000", "095226.116000", "095226.119000", "095226.122000", "095226.125000", "095226.128000", "095226.131000", "095226.134000", "095226.137000", "095226.140000", "095226.143000", "095226.146000", "095226.149000", "095226.152000", "095226.155000", "095226.158000", "095246.100000", "095246.103000", "095246.106000", "095246.124000", "095246.144000", "095246.147000", "095246.150000", "095246.153000", "095246.156000", "095246.159000", "095246.162000", "095246.165000", "095246.168000", "095246.171000", "095246.174000", "095246.177000", "095246.180000", "095246.183000", "095246.186000", "095246.189000", "095326.101000", "095326.104000", "095326.107000", "095326.110000", "095326.113000", "095326.116000", "095326.119000", "095326.122000", "095326.125000", "095326.128000", "095326.131000", "095326.135000", "095326.138000", "095326.140000", "095326.143000", "095326.147000", "095326.150000", "095326.152000", "095326.155000", "095326.159000", "095326.162000", "095326.165000", "095326.168000", "095326.171000", "095326.174000", "095326.177000", "095326.180000", "095326.183000", "095406.101000", "095406.104000", "095406.107000", "095406.110000", "095406.113000", "095406.117000", "095406.120000", "095406.123000", "095406.126000", "095406.129000", "095406.132000", "095406.135000", "095406.138000", "095406.141000", "095406.144000", "095406.147000", "095406.150000", "095406.153000", "095406.156000", "095406.159000", "095406.162000", "095406.165000", "095406.168000", "095406.178000", "095406.181000", "095406.185000", "095406.188000", "095446.101000", "095446.104000", "095446.107000", "095446.110000", "095446.117000", "095446.120000", "095446.123000", "095446.126000", "095446.129000", "095446.132000", "095446.135000", "095446.138000", "095446.141000", "095446.144000", "095446.147000", "095446.150000", "095446.153000", "095446.156000", "095446.159000", "095446.162000", "095446.166000", "095446.169000", "095446.172000", "095446.175000", "095446.178000", "095446.181000", "095446.184000", "095526.101000", "095526.104000", "095526.107000", "095526.110000", "095526.113000", "095526.116000", "095526.120000", "095526.122000", "095526.125000", "095526.129000", "095526.132000", "095526.135000", "095526.138000", "095526.141000", "095526.144000", "095526.148000", "095526.151000", "095526.154000", "095526.157000", "095526.160000", "095526.163000", "095526.166000", "095526.169000", "095526.172000", "095526.175000", "095526.178000", "095546.101000", "095546.104000", "095546.107000", "095546.110000", "095546.113000", "095546.116000", "095546.120000", "095546.123000", "095546.126000", "095546.129000", "095546.132000", "095546.135000", "095546.138000", "095546.141000", "095626.101000", "095626.104000", "095626.107000", "095626.110000", "095626.113000", "095626.116000", "095626.119000", "095626.122000", "095626.125000", "095626.128000", "095626.131000", "095626.135000", "095626.138000", "095626.141000", "095626.144000", "095626.147000", "095626.150000", "095626.153000", "095626.156000", "095626.159000", "095626.162000", "095626.165000", "095626.181000", "095626.184000", "095626.187000", "095626.190000", "095626.193000", "095706.101000", "095706.104000", "095706.108000", "095706.111000", "095706.114000", "095706.118000", "095706.121000", "095706.124000", "095706.127000", "095706.130000", "095706.133000", "095706.136000", "095706.139000", "095706.142000", "095706.145000", "095706.148000", "095706.151000", "095706.154000", "095706.158000", "095706.161000", "095706.164000", "095706.166000", "095706.170000", "095706.173000", "095706.176000", "095706.179000", "095746.101000", "095746.104000", "095746.107000", "095746.110000", "095746.113000", "095746.134000", "095746.137000", "095746.140000", "095746.143000", "095746.146000", "095746.149000", "095746.152000", "095746.155000", "095746.158000", "095746.161000", "095746.164000", "095746.167000", "095746.170000", "095746.174000", "095746.177000", "095746.180000", "095746.183000", "095746.186000", "095746.189000", "095746.192000", "095746.195000", "095746.198000", "095826.101000", "095826.104000", "095826.107000", "095826.111000", "095826.114000", "095826.117000", "095826.120000", "095826.123000", "095826.126000", "095826.129000", "095826.132000", "095826.135000", "095826.138000", "095826.141000", "095826.144000", "095826.147000", "095826.150000", "095826.153000", "095826.156000", "095826.159000", "095826.162000", "095826.165000", "095826.168000", "095826.172000", "095826.174000", "095826.177000", "095826.180000", "095906.101000", "095906.104000", "095906.107000", "095906.111000", "095906.114000", "095906.117000", "095906.120000", "095906.123000", "095906.126000", "095906.129000", "095906.132000", "095906.135000", "095906.138000", "095906.141000", "095906.144000", "095906.147000", "095906.150000", "095906.153000", "095906.156000", "095906.159000", "095906.162000", "095906.165000", "095906.169000", "095906.172000", "095906.175000", "095906.178000", "095906.181000", "095946.100000", "095946.103000", "095946.106000", "095946.109000", "095946.112000", "095946.116000", "095946.119000", "095946.122000", "095946.125000", "095946.128000", "095946.131000", "095946.134000", "095946.137000", "095946.140000", "095946.143000", "095946.146000", "095946.149000", "095946.152000", "095946.155000", "095946.158000", "095946.161000", "095946.164000", "095946.167000", "095946.170000", "095946.173000", "095946.176000", "095946.179000", "100026.101000", "100026.104000", "100026.107000", "100026.110000", "100026.114000", "100026.117000", "100026.120000", "100026.123000", "100026.126000", "100026.129000", "100026.132000", "100026.135000", "100026.138000", "100026.141000", "100026.144000", "100026.147000", "100026.150000", "100026.153000", "100026.156000", "100026.159000", "100026.163000", "100026.166000", "100026.169000", "100026.171000", "100026.175000", "100026.178000", "100026.180000", "100106.101000", "100106.104000", "100106.107000", "100106.111000", "100106.114000", "100106.117000", "100106.120000", "100106.123000", "100106.126000", "100106.129000", "100106.132000", "100106.135000", "100106.138000", "100106.141000", "100106.144000", "100106.147000", "100106.150000", "100106.153000", "100106.156000", "100106.159000", "100106.162000", "100106.165000", "100106.168000", "100106.171000", "100106.174000", "100106.177000", "100106.180000", "100146.101000", "100146.104000", "100146.107000", "100146.110000", "100146.114000", "100146.117000", "100146.120000", "100146.123000", "100146.126000", "100146.129000", "100146.132000", "100146.135000", "100146.138000", "100146.141000", "100146.144000", "100146.147000", "100146.150000", "100146.153000", "100146.156000", "100146.159000", "100146.162000", "100146.165000", "100146.168000", "100146.171000", "100146.175000", "100146.178000", "100150.790000", "100150.794000", "100150.797000", "100150.800000"],
