{
  "AcquisitionMatrixPE": 104,
  "AcquisitionNumber": 1,
  "AcquisitionTime": "09:45:56.772500",
  "BandwidthPerPixelPhaseEncode": 17.17,
  "BaseResolution": 104,
  "BodyPartExamined": "BRAIN",
  "CoilString": "HC1-7;NC1_2",
  "ConsistencyInfo": "N4_VE11C_LATEST_20160120",
  "ConversionSoftware": "dcm2niix",
  "ConversionSoftwareVersion": "v1.0.20190902",
  "DerivedVendorReportedEchoSpacing": 0.000560011,
  "DeviceSerialNumber": "167006",
  "DwellTime": 2.1e-06,
  "EchoTime": 0.037,
  "EchoTrainLength": 104,
  "EffectiveEchoSpacing": 0.000560011,
  "FlipAngle": 52,
  "ImageComments": "Unaliased_MB4_PE3_LB",
  "ImageOrientationPatientDICOM": [0.998084, 0.0509328, 0.0351208, -0.0406107, 0.967613, -0.249151],
  "ImageType": [
    "ORIGINAL",
    "PRIMARY",
    "M",
    "MB",
    "ND",
    "MOSAIC"
],
  "ImagingFrequency": 123.259,
  "InPlanePhaseEncodingDirectionDICOM": "COL",
  "InstitutionAddress": "Chemin_Queen-Mary_4565_Montreal_District_CA_H3W_1W5",
  "InstitutionName": "IUGM",
  "InstitutionalDepartmentName": "Department",
  "MRAcquisitionType": "2D",
  "MagneticFieldStrength": 3,
  "Manufacturer": "Siemens",
  "ManufacturersModelName": "Prisma_fit",
  "Modality": "MR",
  "MultibandAccelerationFactor": 4,
  "PartialFourier": 1,
  "PatientPosition": "HFS",
  "PercentPhaseFOV": 100,
  "PhaseEncodingDirection": "j",
  "PhaseEncodingSteps": 104,
  "PhaseResolution": 1,
  "PixelBandwidth": 2290,
  "ProcedureStepDescription": "video_friends",
  "ProtocolName": "func_task-friends-s03e07b",
  "PulseSequenceDetails": "%CustomerSeq%_cmrr_mbep2d_bold",
  "ReceiveCoilActiveElements": "HC1-7;NC1,2",
  "ReceiveCoilName": "HeadNeck_64",
  "ReconMatrixPE": 104,
  "RepetitionTime": 1.49,
  "SAR": 0.0415291,
  "ScanOptions": "FS",
  "ScanningSequence": "EP",
  "SequenceName": "epfid2d1_104",
  "SequenceVariant": "SK_SS",
  "SeriesDescription": "func_task-friends-s03e07b",
  "SeriesNumber": 11,
  "ShimSetting": [644, -7209, -8777, 655, 107, -44, 112, -23],
  "SliceThickness": 2,
  "SliceTiming": [0, 0.7825, 0.0975, 0.88, 0.195, 0.98, 0.2925, 1.0775, 0.3925, 1.175, 0.49, 1.2725, 0.5875, 1.37, 0.685, 0, 0.7825, 0.0975, 0.88, 0.195, 0.98, 0.2925, 1.0775, 0.3925, 1.175, 0.49, 1.2725, 0.5875, 1.37, 0.685, 0, 0.7825, 0.0975, 0.88, 0.195, 0.98, 0.2925, 1.0775, 0.3925, 1.175, 0.49, 1.2725, 0.5875, 1.37, 0.685, 0, 0.7825, 0.0975, 0.88, 0.195, 0.98, 0.2925, 1.0775, 0.3925, 1.175, 0.49, 1.2725, 0.5875, 1.37, 0.685],
  "SoftwareVersions": "syngo_MR_E11",
  "SpacingBetweenSlices": 2,
  "StationName": "MRC35049",
  "TaskName": "s03e07b",
  "TotalReadoutTime": 0.0576811,
  "TxRefAmp": 254.224,
  "WipMemBlock": "0546f261-6f2a-4880-8162-df6f9fe21848||Sequence: R016 ve11c/master r/e634e98; Dec 19 2017 11:00:25 by eja",
  "dcmmeta_affine": [
    [-1.9961687326431274, -0.0812213122844696, 0.09334652125835419, 105.17969512939453],
    [-0.10186558961868286, 1.9352257251739502, -0.49449440836906433, -69.82855987548828],
    [0.07024155557155609, 0.49830153584480286, 1.9356553554534912, -39.9355354309082],
    [0.0, 0.0, 0.0, 1.0]
],
  "dcmmeta_reorient_transform": [
    [0.0, -1.0, 0.0, 103.0],
    [1.0, 0.0, 0.0, 0.0],
    [0.0, 0.0, 1.0, 0.0],
    [0.0, 0.0, 0.0, 1.0]
],
  "dcmmeta_shape": [104, 104, 60, 467],
  "dcmmeta_slice_dim": 2,
  "dcmmeta_version": 0.6,
  "global": {
    "const": {
      "AcquisitionMatrix": [104, 0, 0, 104],
      "AngioFlag": "N",
      "BitsAllocated": 16,
      "BitsStored": 16,
      "BodyPartExamined": "BRAIN",
      "Columns": 832,
      "EchoNumbers": 1,
      "EchoTime": 37.0,
      "EchoTrainLength": 104,
      "FlipAngle": 52.0,
      "HighBit": 15,
      "ImageOrientationPatient": [0.99808435589094, 0.0509327946644, 0.0351207766635, -0.0406106545953, 0.9676128706739, -0.2491507721031],
      "ImagePositionPatient": [-793.85475635501, -871.00093548651, 167.20335972441],
      "ImageType": [
        "ORIGINAL",
        "PRIMARY",
        "M",
        "MB",
        "ND",
        "MOSAIC"
],
      "ImagedNucleus": "1H",
      "ImagingFrequency": 123.259046,
      "InPlanePhaseEncodingDirection": "COL",
      "MRAcquisitionType": "2D",
      "MagneticFieldStrength": 3.0,
      "Manufacturer": "SIEMENS",
      "ManufacturerModelName": "Prisma_fit",
      "Modality": "MR",
      "NumberOfAverages": 1.0,
      "NumberOfPhaseEncodingSteps": 104,
      "PercentPhaseFieldOfView": 100.0,
      "PercentSampling": 100.0,
      "PerformedProcedureStepStartTime": "093114.410000",
      "PhotometricInterpretation": "MONOCHROME2",
      "PixelBandwidth": 2290.0,
      "PixelRepresentation": 0,
      "PixelSpacing": [2.0, 2.0],
      "ProtocolName": "func_task-friends-s03e07b",
      "RepetitionTime": 1490.0,
      "Rows": 832,
      "SAR": 0.04152907530696,
      "SamplesPerPixel": 1,
      "ScanOptions": "FS",
      "ScanningSequence": "EP",
      "SequenceName": "epfid2d1_104",
      "SequenceVariant": [
        "SK",
        "SS"
],
      "SeriesDescription": "func_task-friends-s03e07b",
      "SeriesNumber": 11,
      "SeriesTime": "094653.424000",
      "SliceLocation": -16.476721175883,
      "SliceThickness": 2.0,
      "SmallestImagePixelValue": 0,
      "SoftwareVersions": "syngo MR E11",
      "SpacingBetweenSlices": 1.9999999792786,
      "SpecificCharacterSet": "ISO_IR 100",
      "StudyID": "2",
      "StudyTime": "093114.355000",
      "TransmitCoilName": "Body",
      "VariableFlipAngleFlag": "N",
      "WindowCenterWidthExplanation": "Algo1",
      "dBdt": 0.0},
    "slices": {}
  },
  "time": {
    "samples": {
      "AcquisitionNumber": [1, 2, 3, 4, 5, 6, 7, 8, 9, 10, 11, 12, 13, 14, 15, 16, 17, 18, 19, 20, 21, 22, 23, 24, 25, 26, 27, 28, 29, 30, 31, 32, 33, 34, 35, 36, 37, 38, 39, 40, 41, 42, 43, 44, 45, 46, 47, 48, 49, 50, 51, 52, 53, 54, 55, 56, 57, 58, 59, 60, 61, 62, 63, 64, 65, 66, 67, 68, 69, 70, 71, 72, 73, 74, 75, 76, 77, 78, 79, 80, 81, 82, 83, 84, 85, 86, 87, 88, 89, 90, 91, 92, 93, 94, 95, 96, 97, 98, 99, 100, 101, 102, 103, 104, 105, 106, 107, 108, 109, 110, 111, 112, 113, 114, 115, 116, 117, 118, 119, 120, 121, 122, 123, 124, 125, 126, 127, 128, 129, 130, 131, 132, 133, 134, 135, 136, 137, 138, 139, 140, 141, 142, 143, 144, 145, 146, 147, 148, 149, 150, 151, 152, 153, 154, 155, 156, 157, 158, 159, 160, 161, 162, 163, 164, 165, 166, 167, 168, 169, 170, 171, 172, 173, 174, 175, 176, 177, 178, 179, 180, 181, 182, 183, 184, 185, 186, 187, 188, 189, 190, 191, 192, 193, 194, 195, 196, 197, 198, 199, 200, 201, 202, 203, 204, 205, 206, 207, 208, 209, 210, 211, 212, 213, 214, 215, 216, 217, 218, 219, 220, 221, 222, 223, 224, 225, 226, 227, 228, 229, 230, 231, 232, 233, 234, 235, 236, 237, 238, 239, 240, 241, 242, 243, 244, 245, 246, 247, 248, 249, 250, 251, 252, 253, 254, 255, 256, 257, 258, 259, 260, 261, 262, 263, 264, 265, 266, 267, 268, 269, 270, 271, 272, 273, 274, 275, 276, 277, 278, 279, 280, 281, 282, 283, 284, 285, 286, 287, 288, 289, 290, 291, 292, 293, 294, 295, 296, 297, 298, 299, 300, 301, 302, 303, 304, 305, 306, 307, 308, 309, 310, 311, 312, 313, 314, 315, 316, 317, 318, 319, 320, 321, 322, 323, 324, 325, 326, 327, 328, 329, 330, 331, 332, 333, 334, 335, 336, 337, 338, 339, 340, 341, 342, 343, 344, 345, 346, 347, 348, 349, 350, 351, 352, 353, 354, 355, 356, 357, 358, 359, 360, 361, 362, 363, 364, 365, 366, 367, 368, 369, 370, 371, 372, 373, 374, 375, 376, 377, 378, 379, 380, 381, 382, 383, 384, 385, 386, 387, 388, 389, 390, 391, 392, 393, 394, 395, 396, 397, 398, 399, 400, 401, 402, 403, 404, 405, 406, 407, 408, 409, 410, 411, 412, 413, 414, 415, 416, 417, 418, 419, 420, 421, 422, 423, 424, 425, 426, 427, 428, 429, 430, 431, 432, 433, 434, 435, 436, 437, 438, 439, 440, 441, 442, 443, 444, 445, 446, 447, 448, 449, 450, 451, 452, 453, 454, 455, 456, 457, 458, 459, 460, 461, 462, 463, 464, 465, 466, 467],
      "AcquisitionTime": ["094556.772500", "094558.262500", "094559.752500", "094601.242500", "094602.732500", "094604.222500", "094605.712500", "094607.202500", "094608.692500", "094610.182500", "094611.672500", "094613.162500", "094614.652500", "094616.142500", "094617.632500", "094619.122500", "094620.612500", "094622.102500", "094623.592500", "094625.082500", "094626.572500", "094628.062500", "094629.552500", "094631.042500", "094632.532500", "094634.022500", "094635.512500", "094637.002500", "094638.492500", "094639.982500", "094641.472500", "094642.962500", "094644.452500", "094645.942500", "094647.432500", "094648.922500", "094650.412500", "094651.902500", "094653.392500", "094654.882500", "094656.372500", "094657.862500", "094659.352500", "094700.842500", "094702.332500", "094703.822500", "094705.312500", "094706.802500", "094708.292500", "094709.782500", "094711.272500", "094712.762500", "094714.252500", "094715.742500", "094717.232500", "094718.722500", "094720.212500", "094721.702500", "094723.192500", "094724.682500", "094726.172500", "094727.662500", "094729.152500", "094730.642500", "094732.132500", "094733.622500", "094735.112500", "094736.602500", "094738.092500", "094739.582500", "094741.072500", "094742.562500", "094744.052500", "094745.542500", "094747.032500", "094748.522500", "094750.012500", "094751.502500", "094752.992500", "094754.482500", "094755.972500", "094757.462500", "094758.952500", "094800.442500", "094801.932500", "094803.422500", "094804.912500", "094806.402500", "094807.892500", "094809.382500", "094810.872500", "094812.362500", "094813.852500", "094815.342500", "094816.832500", "094818.322500", "094819.812500", "094821.302500", "094822.792500", "094824.282500", "094825.772500", "094827.262500", "094828.752500", "094830.242500", "094831.732500", "094833.222500", "094834.712500", "094836.202500", "094837.692500", "094839.182500", "094840.672500", "094842.162500", "094843.652500", "094845.142500", "094846.632500", "094848.122500", "094849.612500", "094851.102500", "094852.592500", "094854.082500", "094855.572500", "094857.062500", "094858.552500", "094900.042500", "094901.532500", "094903.022500", "094904.512500", "094906.002500", "094907.492500", "094908.982500", "094910.472500", "094911.962500", "094913.452500", "094914.942500", "094916.432500", "094917.922500", "094919.412500", "094920.902500", "094922.392500", "094923.882500", "094925.372500", "094926.862500", "094928.352500", "094929.842500", "094931.332500", "094932.822500", "094934.312500", "094935.802500", "094937.292500", "094938.782500", "094940.272500", "094941.762500", "094943.252500", "094944.742500", "094946.232500", "094947.722500", "094949.212500", "094950.702500", "094952.192500", "094953.682500", "094955.172500", "094956.662500", "094958.152500", "094959.642500", "095001.132500", "095002.622500", "095004.112500", "095005.602500", "095007.092500", "095008.582500", "095010.072500", "095011.562500", "095013.052500", "095014.542500", "095016.032500", "095017.522500", "095019.012500", "095020.502500", "095021.992500", "095023.482500", "095024.972500", "095026.462500", "095027.952500", "095029.442500", "095030.932500", "095032.422500", "095033.912500", "095035.402500", "095036.892500", "095038.382500", "095039.872500", "095041.362500", "095042.852500", "095044.342500", "095045.832500", "095047.322500", "095048.812500", "095050.302500", "095051.792500", "095053.282500", "095054.772500", "095056.262500", "095057.752500", "095059.242500", "095100.732500", "095102.222500", "095103.712500", "095105.202500", "095106.692500", "095108.182500", "095109.672500", "095111.162500", "095112.652500", "095114.142500", "095115.632500", "095117.122500", "095118.612500", "095120.102500", "095121.592500", "095123.082500", "095124.572500", "095126.062500", "095127.552500", "095129.042500", "095130.532500", "095132.022500", "095133.512500", "095135.002500", "095136.492500", "095137.982500", "095139.472500", "095140.962500", "095142.452500", "095143.942500", "095145.432500", "095146.922500", "095148.412500", "095149.902500", "095151.392500", "095152.882500", "095154.372500", "095155.862500", "095157.352500", "095158.842500", "095200.332500", "095201.822500", "095203.312500", "095204.802500", "095206.292500", "095207.782500", "095209.272500", "095210.762500", "095212.252500", "095213.742500", "095215.232500", "095216.722500", "095218.212500", "095219.702500", "095221.192500", "095222.682500", "095224.172500", "095225.662500", "095227.152500", "095228.642500", "095230.132500", "095231.622500", "095233.112500", "095234.602500", "095236.092500", "095237.582500", "095239.072500", "095240.562500", "095242.052500", "095243.542500", "095245.032500", "095246.522500", "095248.012500", "095249.502500", "095250.992500", "095252.482500", "095253.972500", "095255.462500", "095256.952500", "095258.442500", "095259.932500", "095301.422500", "095302.912500", "095304.402500", "095305.892500", "095307.382500", "095308.872500", "095310.362500", "095311.852500", "095313.342500", "095314.832500", "095316.322500", "095317.812500", "095319.302500", "095320.792500", "095322.282500", "095323.772500", "095325.262500", "095326.752500", "095328.242500", "095329.732500", "095331.222500", "095332.712500", "095334.202500", "095335.692500", "095337.182500", "095338.672500", "095340.162500", "095341.652500", "095343.142500", "095344.632500", "095346.122500", "095347.612500", "095349.102500", "095350.592500", "095352.082500", "095353.572500", "095355.062500", "095356.552500", "095358.042500", "095359.532500", "095401.022500", "095402.512500", "095404.002500", "095405.492500", "095406.982500", "095408.472500", "095409.962500", "095411.452500", "095412.942500", "095414.432500", "095415.922500", "095417.412500", "095418.902500", "095420.392500", "095421.882500", "095423.372500", "095424.862500", "095426.352500", "095427.842500", "095429.332500", "095430.822500", "095432.312500", "095433.802500", "095435.292500", "095436.782500", "095438.272500", "095439.762500", "095441.252500", "095442.742500", "095444.232500", "095445.722500", "095447.212500", "095448.702500", "095450.192500", "095451.682500", "095453.172500", "095454.662500", "095456.152500", "095457.642500", "095459.132500", "095500.622500", "095502.112500", "095503.602500", "095505.092500", "095506.582500", "095508.072500", "095509.562500", "095511.052500", "095512.542500", "095514.032500", "095515.522500", "095517.012500", "095518.502500", "095519.992500", "095521.482500", "095522.972500", "095524.462500", "095525.952500", "095527.442500", "095528.932500", "095530.422500", "095531.912500", "095533.402500", "095534.892500", "095536.382500", "095537.872500", "095539.362500", "095540.852500", "095542.342500", "095543.832500", "095545.322500", "095546.812500", "095548.302500", "095549.792500", "095551.282500", "095552.772500", "095554.262500", "095555.752500", "095557.242500", "095558.732500", "095600.222500", "095601.712500", "095603.202500", "095604.692500", "095606.182500", "095607.672500", "095609.162500", "095610.652500", "095612.142500", "095613.632500", "095615.122500", "095616.612500", "095618.102500", "095619.592500", "095621.082500", "095622.572500", "095624.062500", "095625.552500", "095627.042500", "095628.532500", "095630.022500", "095631.512500", "095633.002500", "095634.492500", "095635.982500", "095637.472500", "095638.962500", "095640.452500", "095641.942500", "095643.432500", "095644.922500", "095646.412500", "095647.902500", "095649.392500", "095650.882500", "095652.372500", "095653.862500", "095655.352500", "095656.842500", "095658.332500", "095659.822500", "095701.312500", "095702.802500", "095704.292500", "095705.782500", "095707.272500", "095708.762500", "095710.252500", "095711.742500", "095713.232500", "095714.722500", "095716.212500", "095717.702500", "095719.192500", "095720.682500", "095722.172500", "095723.662500", "095725.152500", "095726.642500", "095728.132500", "095729.622500", "095731.112500"],
      "ContentTime": ["094653.427000", "094653.431000", "094713.398000", "094713.401000", "094713.404000", "094713.407000", "094713.410000", "094713.413000", "094713.416000", "094713.418000", "094713.421000", "094713.432000", "094713.435000", "094713.453000", "094713.456000", "094713.459000", "094713.462000", "094713.465000", "094713.468000", "094713.471000", "094713.473000", "094713.476000", "094733.398000", "094733.401000", "094733.404000", "094733.407000", "094733.410000", "094733.413000", "094733.416000", "094733.419000", "094733.421000", "094733.424000", "094733.427000", "094733.430000", "094733.433000", "094733.436000", "094733.439000", "094733.442000", "094733.445000", "094733.448000", "094733.451000", "094733.453000", "094753.398000", "094753.401000", "094753.404000", "094753.407000", "094753.409000", "094753.413000", "094753.415000", "094753.418000", "094753.421000", "094753.424000", "094753.427000", "094753.430000", "094753.433000", "094753.436000", "094753.439000", "094753.441000", "094753.444000", "094753.447000", "094753.450000", "094753.453000", "094813.399000", "094813.402000", "094813.405000", "094813.408000", "094813.411000", "094813.415000", "094813.419000", "094813.422000", "094813.425000", "094813.428000", "094813.430000", "094813.434000", "094813.456000", "094813.459000", "094813.462000", "094813.465000", "094813.468000", "094813.471000", "094813.473000", "094813.477000", "094833.399000", "094833.402000", "094833.405000", "094833.408000", "094833.411000", "094833.413000", "094833.416000", "094833.419000", "094833.422000", "094833.425000", "094833.428000", "094833.431000", "094833.434000", "094833.437000", "094833.440000", "094833.443000", "094833.446000", "094833.448000", "094833.451000", "094833.454000", "094833.457000", "094913.399000", "094913.402000", "094913.405000", "094913.408000", "094913.411000", "094913.419000", "094913.423000", "094913.425000", "094913.428000", "094913.431000", "094913.434000", "094913.437000", "094913.440000", "094913.443000", "094913.446000", "094913.464000", "094913.466000", "094913.469000", "094913.473000", "094913.475000", "094913.478000", "094913.481000", "094913.484000", "094913.487000", "094913.490000", "094913.493000", "094913.496000", "094913.499000", "094953.398000", "094953.401000", "094953.404000", "094953.407000", "094953.410000", "094953.413000", "094953.416000", "094953.418000", "094953.421000", "094953.424000", "094953.427000", "094953.430000", "094953.433000", "094953.436000", "094953.439000", "094953.442000", "094953.445000", "094953.448000", "094953.450000", "094953.453000", "094953.456000", "094953.459000", "094953.462000", "094953.465000", "094953.468000", "094953.471000", "094953.474000", "095033.399000", "095033.402000", "095033.405000", "095033.408000", "095033.411000", "095033.414000", "095033.417000", "095033.420000", "095033.423000", "095033.425000", "095033.428000", "095033.431000", "095033.434000", "095033.437000", "095033.440000", "095033.443000", "095033.446000", "095033.449000", "095033.452000", "095033.455000", "095033.458000", "095033.461000", "095033.464000", "095033.467000", "095033.469000", "095033.472000", "095033.475000", "095113.399000", "095113.402000", "095113.405000", "095113.408000", "095113.411000", "095113.414000", "095113.417000", "095113.420000", "095113.423000", "095113.426000", "095113.429000", "095113.432000", "095113.434000", "095113.444000", "095113.447000", "095113.449000", "095113.452000", "095113.455000", "095113.458000", "095113.461000", "095113.464000", "095113.467000", "095113.470000", "095113.473000", "095113.476000", "095113.478000", "095113.482000", "095153.398000", "095153.401000", "095153.404000", "095153.407000", "095153.410000", "095153.413000", "095153.416000", "095153.419000", "095153.422000", "095153.425000", "095153.427000", "095153.430000", "095153.433000", "095153.436000", "095153.439000", "095153.442000", "095153.445000", "095153.448000", "095153.451000", "095153.454000", "095153.457000", "095153.460000", "095153.463000", "095153.466000", "095153.469000", "095153.472000", "095233.398000", "095233.401000", "095233.404000", "095233.407000", "095233.410000", "095233.413000", "095233.416000", "095233.419000", "095233.421000", "095233.424000", "095233.427000", "095233.430000", "095233.433000", "095233.436000", "095233.439000", "095233.442000", "095233.445000", "095233.448000", "095233.451000", "095233.454000", "095233.457000", "095233.460000", "095233.462000", "095233.465000", "095233.468000", "095233.471000", "095233.474000", "095313.399000", "095313.402000", "095313.405000", "095313.408000", "095313.411000", "095313.414000", "095313.417000", "095313.420000", "095313.423000", "095313.426000", "095313.429000", "095313.431000", "095313.434000", "095313.437000", "095313.440000", "095313.443000", "095313.446000", "095313.449000", "095313.452000", "095313.455000", "095313.458000", "095313.461000", "095313.464000", "095313.466000", "095313.469000", "095313.472000", "095313.475000", "095353.399000", "095353.402000", "095353.405000", "095353.408000", "095353.411000", "095353.414000", "095353.417000", "095353.420000", "095353.423000", "095353.426000", "095353.429000", "095353.431000", "095353.453000", "095353.456000", "095353.459000", "095353.462000", "095353.464000", "095353.467000", "095353.470000", "095353.473000", "095353.476000", "095353.479000", "095353.482000", "095353.485000", "095353.488000", "095353.491000", "095353.494000", "095433.398000", "095433.401000", "095433.404000", "095433.407000", "095433.410000", "095433.413000", "095433.416000", "095433.419000", "095433.421000", "095433.425000", "095433.427000", "095433.430000", "095433.433000", "095433.436000", "095433.439000", "095433.442000", "095433.445000", "095433.448000", "095433.451000", "095433.454000", "095433.457000", "095433.460000", "095433.463000", "095433.465000", "095433.468000", "095433.471000", "095433.474000", "095513.399000", "095513.402000", "095513.405000", "095513.408000", "095513.411000", "095513.414000", "095513.417000", "095513.420000", "095513.423000", "095513.426000", "095513.429000", "095513.431000", "095513.435000", "095513.437000", "095513.440000", "095513.443000", "095513.446000", "095513.449000", "095513.452000", "095513.455000", "095513.458000", "095513.461000", "095513.464000", "095513.466000", "095513.470000", "095513.473000", "095513.475000", "095553.400000", "095553.404000", "095553.407000", "095553.417000", "095553.438000", "095553.441000", "095553.443000", "095553.447000", "095553.449000", "095553.452000", "095553.455000", "095553.458000", "095553.461000", "095553.464000", "095553.467000", "095553.470000", "095553.473000", "095553.476000", "095553.478000", "095553.482000", "095553.484000", "095553.487000", "095553.490000", "095553.493000", "095553.496000", "095553.499000", "095633.398000", "095633.401000", "095633.404000", "095633.407000", "095633.410000", "095633.413000", "095633.416000", "095633.419000", "095633.422000", "095633.425000", "095633.427000", "095633.430000", "095633.433000", "095633.436000", "095633.439000", "095633.442000", "095633.445000", "095633.448000", "095633.451000", "095633.454000", "095633.457000", "095633.460000", "095633.463000", "095633.466000", "095633.469000", "095633.472000", "095633.474000", "095713.398000", "095713.401000", "095713.404000", "095713.407000", "095713.410000", "095713.413000", "095713.416000", "095713.419000", "095713.422000", "095713.425000", "095713.428000", "095713.430000", "095713.434000", "095713.436000", "095713.439000", "095713.442000", "095713.445000", "095713.448000", "095713.451000", "095713.454000", "095713.457000", "095713.460000", "095713.463000", "095713.465000", "095713.469000", "095713.471000", "095713.474000", "095733.287000", "095733.291000", "095733.294000", "095733.296000", "095733.299000", "095733.302000", "095733.305000", "095733.308000", "095733.311000", "095733.314000", "095733.317000", "095733.320000", "095733.323000", "095733.326000"],
