{
  "AcquisitionMatrixPE": 104,
  "AcquisitionNumber": 1,
  "AcquisitionTime": "09:33:46.250000",
  "BandwidthPerPixelPhaseEncode": 17.17,
  "BaseResolution": 104,
  "BodyPartExamined": "BRAIN",
  "CoilString": "HC1-7;NC1_2",
  "ConsistencyInfo": "N4_VE11C_LATEST_20160120",
  "ConversionSoftware": "dcm2niix",
  "ConversionSoftwareVersion": "v1.0.20190902",
  "DerivedVendorReportedEchoSpacing": 0.000560011,
  "DeviceSerialNumber": "167006",
  "DwellTime": 2.1e-06,
  "EchoTime": 0.037,
  "EchoTrainLength": 104,
  "EffectiveEchoSpacing": 0.000560011,
  "FlipAngle": 52,
  "ImageComments": "Unaliased_MB4_PE3_LB",
  "ImageOrientationPatientDICOM": [0.998084, 0.0509328, 0.0351208, -0.0406107, 0.967613, -0.249151],
  "ImageType": [
    "ORIGINAL",
    "PRIMARY",
    "M",
    "MB",
    "ND",
    "MOSAIC"
],
  "ImagingFrequency": 123.259,
  "InPlanePhaseEncodingDirectionDICOM": "COL",
  "InstitutionAddress": "Chemin_Queen-Mary_4565_Montreal_District_CA_H3W_1W5",
  "InstitutionName": "IUGM",
  "InstitutionalDepartmentName": "Department",
  "MRAcquisitionType": "2D",
  "MagneticFieldStrength": 3,
  "Manufacturer": "Siemens",
  "ManufacturersModelName": "Prisma_fit",
  "Modality": "MR",
  "MultibandAccelerationFactor": 4,
  "PartialFourier": 1,
  "PatientPosition": "HFS",
  "PercentPhaseFOV": 100,
  "PhaseEncodingDirection": "j",
  "PhaseEncodingSteps": 104,
  "PhaseResolution": 1,
  "PixelBandwidth": 2290,
  "ProcedureStepDescription": "video_friends",
  "ProtocolName": "func_task-friends-s03e07a",
  "PulseSequenceDetails": "%CustomerSeq%_cmrr_mbep2d_bold",
  "ReceiveCoilActiveElements": "HC1-7;NC1,2",
  "ReceiveCoilName": "HeadNeck_64",
  "ReconMatrixPE": 104,
  "RepetitionTime": 1.49,
  "SAR": 0.0415291,
  "ScanOptions": "FS",
  "ScanningSequence": "EP",
  "SequenceName": "epfid2d1_104",
  "SequenceVariant": "SK_SS",
  "SeriesDescription": "func_task-friends-s03e07a",
  "SeriesNumber": 9,
  "ShimSetting": [644, -7209, -8777, 655, 107, -44, 112, -23],
  "SliceThickness": 2,
  "SliceTiming": [0, 0.785, 0.1, 0.8825, 0.1975, 0.98, 0.295, 1.08, 0.3925, 1.1775, 0.49, 1.275, 0.59, 1.3725, 0.6875, 0, 0.785, 0.1, 0.8825, 0.1975, 0.98, 0.295, 1.08, 0.3925, 1.1775, 0.49, 1.275, 0.59, 1.3725, 0.6875, 0, 0.785, 0.1, 0.8825, 0.1975, 0.98, 0.295, 1.08, 0.3925, 1.1775, 0.49, 1.275, 0.59, 1.3725, 0.6875, 0, 0.785, 0.1, 0.8825, 0.1975, 0.98, 0.295, 1.08, 0.3925, 1.1775, 0.49, 1.275, 0.59, 1.3725, 0.6875],
  "SoftwareVersions": "syngo_MR_E11",
  "SpacingBetweenSlices": 2,
  "StationName": "MRC35049",
  "TaskName": "s03e07a",
  "TotalReadoutTime": 0.0576811,
  "TxRefAmp": 254.224,
  "WipMemBlock": "696236b7-9813-4def-9a0d-681d6ef67abb||Sequence: R016 ve11c/master r/e634e98; Dec 19 2017 11:00:25 by eja",
  "dcmmeta_affine": [
    [-1.9961687326431274, -0.0812213122844696, 0.09334652125835419, 105.17969512939453],
    [-0.10186558961868286, 1.9352257251739502, -0.49449440836906433, -69.82855987548828],
    [0.07024155557155609, 0.49830153584480286, 1.9356553554534912, -39.9355354309082],
    [0.0, 0.0, 0.0, 1.0]
],
  "dcmmeta_reorient_transform": [
    [0.0, -1.0, 0.0, 103.0],
    [1.0, 0.0, 0.0, 0.0],
    [0.0, 0.0, 1.0, 0.0],
    [0.0, 0.0, 0.0, 1.0]
],
  "dcmmeta_shape": [104, 104, 60, 467],
  "dcmmeta_slice_dim": 2,
  "dcmmeta_version": 0.6,
  "global": {
    "const": {
      "AcquisitionMatrix": [104, 0, 0, 104],
      "AngioFlag": "N",
      "BitsAllocated": 16,
      "BitsStored": 16,
      "BodyPartExamined": "BRAIN",
      "Columns": 832,
      "EchoNumbers": 1,
      "EchoTime": 37.0,
      "EchoTrainLength": 104,
      "FlipAngle": 52.0,
      "HighBit": 15,
      "ImageOrientationPatient": [0.99808435589094, 0.0509327946644, 0.0351207766635, -0.0406106545953, 0.9676128706739, -0.2491507721031],
      "ImagePositionPatient": [-793.85475635501, -871.00093548651, 167.20335972441],
      "ImageType": [
        "ORIGINAL",
        "PRIMARY",
        "M",
        "MB",
        "ND",
        "MOSAIC"
],
      "ImagedNucleus": "1H",
      "ImagingFrequency": 123.259036,
      "InPlanePhaseEncodingDirection": "COL",
      "MRAcquisitionType": "2D",
      "MagneticFieldStrength": 3.0,
      "Manufacturer": "SIEMENS",
      "ManufacturerModelName": "Prisma_fit",
      "Modality": "MR",
      "NumberOfAverages": 1.0,
      "NumberOfPhaseEncodingSteps": 104,
      "PercentPhaseFieldOfView": 100.0,
      "PercentSampling": 100.0,
      "PerformedProcedureStepStartTime": "093114.410000",
      "PhotometricInterpretation": "MONOCHROME2",
      "PixelBandwidth": 2290.0,
      "PixelRepresentation": 0,
      "PixelSpacing": [2.0, 2.0],
      "ProtocolName": "func_task-friends-s03e07a",
      "RepetitionTime": 1490.0,
      "Rows": 832,
      "SAR": 0.04152907530696,
      "SamplesPerPixel": 1,
      "ScanOptions": "FS",
      "ScanningSequence": "EP",
      "SequenceName": "epfid2d1_104",
      "SequenceVariant": [
        "SK",
        "SS"
],
      "SeriesDescription": "func_task-friends-s03e07a",
      "SeriesNumber": 9,
      "SeriesTime": "093541.819000",
      "SliceLocation": -16.476721175883,
      "SliceThickness": 2.0,
      "SmallestImagePixelValue": 0,
      "SoftwareVersions": "syngo MR E11",
      "SpacingBetweenSlices": 1.9999999792786,
      "SpecificCharacterSet": "ISO_IR 100",
      "StudyID": "2",
      "StudyTime": "093114.355000",
      "TransmitCoilName": "Body",
      "VariableFlipAngleFlag": "N",
      "WindowCenterWidthExplanation": "Algo1",
      "dBdt": 0.0},
    "slices": {}
  },
  "time": {
    "samples": {
      "AcquisitionNumber": [1, 2, 3, 4, 5, 6, 7, 8, 9, 10, 11, 12, 13, 14, 15, 16, 17, 18, 19, 20, 21, 22, 23, 24, 25, 26, 27, 28, 29, 30, 31, 32, 33, 34, 35, 36, 37, 38, 39, 40, 41, 42, 43, 44, 45, 46, 47, 48, 49, 50, 51, 52, 53, 54, 55, 56, 57, 58, 59, 60, 61, 62, 63, 64, 65, 66, 67, 68, 69, 70, 71, 72, 73, 74, 75, 76, 77, 78, 79, 80, 81, 82, 83, 84, 85, 86, 87, 88, 89, 90, 91, 92, 93, 94, 95, 96, 97, 98, 99, 100, 101, 102, 103, 104, 105, 106, 107, 108, 109, 110, 111, 112, 113, 114, 115, 116, 117, 118, 119, 120, 121, 122, 123, 124, 125, 126, 127, 128, 129, 130, 131, 132, 133, 134, 135, 136, 137, 138, 139, 140, 141, 142, 143, 144, 145, 146, 147, 148, 149, 150, 151, 152, 153, 154, 155, 156, 157, 158, 159, 160, 161, 162, 163, 164, 165, 166, 167, 168, 169, 170, 171, 172, 173, 174, 175, 176, 177, 178, 179, 180, 181, 182, 183, 184, 185, 186, 187, 188, 189, 190, 191, 192, 193, 194, 195, 196, 197, 198, 199, 200, 201, 202, 203, 204, 205, 206, 207, 208, 209, 210, 211, 212, 213, 214, 215, 216, 217, 218, 219, 220, 221, 222, 223, 224, 225, 226, 227, 228, 229, 230, 231, 232, 233, 234, 235, 236, 237, 238, 239, 240, 241, 242, 243, 244, 245, 246, 247, 248, 249, 250, 251, 252, 253, 254, 255, 256, 257, 258, 259, 260, 261, 262, 263, 264, 265, 266, 267, 268, 269, 270, 271, 272, 273, 274, 275, 276, 277, 278, 279, 280, 281, 282, 283, 284, 285, 286, 287, 288, 289, 290, 291, 292, 293, 294, 295, 296, 297, 298, 299, 300, 301, 302, 303, 304, 305, 306, 307, 308, 309, 310, 311, 312, 313, 314, 315, 316, 317, 318, 319, 320, 321, 322, 323, 324, 325, 326, 327, 328, 329, 330, 331, 332, 333, 334, 335, 336, 337, 338, 339, 340, 341, 342, 343, 344, 345, 346, 347, 348, 349, 350, 351, 352, 353, 354, 355, 356, 357, 358, 359, 360, 361, 362, 363, 364, 365, 366, 367, 368, 369, 370, 371, 372, 373, 374, 375, 376, 377, 378, 379, 380, 381, 382, 383, 384, 385, 386, 387, 388, 389, 390, 391, 392, 393, 394, 395, 396, 397, 398, 399, 400, 401, 402, 403, 404, 405, 406, 407, 408, 409, 410, 411, 412, 413, 414, 415, 416, 417, 418, 419, 420, 421, 422, 423, 424, 425, 426, 427, 428, 429, 430, 431, 432, 433, 434, 435, 436, 437, 438, 439, 440, 441, 442, 443, 444, 445, 446, 447, 448, 449, 450, 451, 452, 453, 454, 455, 456, 457, 458, 459, 460, 461, 462, 463, 464, 465, 466, 467],
      "AcquisitionTime": ["093346.250000", "093347.740000", "093349.230000", "093350.720000", "093352.210000", "093353.700000", "093355.190000", "093356.680000", "093358.170000", "093359.660000", "093401.150000", "093402.640000", "093404.130000", "093405.620000", "093407.110000", "093408.600000", "093410.090000", "093411.580000", "093413.070000", "093414.560000", "093416.050000", "093417.540000", "093419.030000", "093420.520000", "093422.010000", "093423.500000", "093424.990000", "093426.480000", "093427.970000", "093429.460000", "093430.950000", "093432.440000", "093433.930000", "093435.420000", "093436.910000", "093438.400000", "093439.890000", "093441.380000", "093442.870000", "093444.360000", "093445.850000", "093447.340000", "093448.830000", "093450.320000", "093451.810000", "093453.300000", "093454.790000", "093456.280000", "093457.770000", "093459.260000", "093500.750000", "093502.240000", "093503.730000", "093505.220000", "093506.710000", "093508.200000", "093509.690000", "093511.180000", "093512.670000", "093514.160000", "093515.650000", "093517.140000", "093518.630000", "093520.120000", "093521.610000", "093523.100000", "093524.590000", "093526.080000", "093527.570000", "093529.060000", "093530.550000", "093532.040000", "093533.530000", "093535.020000", "093536.510000", "093538.000000", "093539.490000", "093540.980000", "093542.470000", "093543.960000", "093545.450000", "093546.940000", "093548.430000", "093549.920000", "093551.410000", "093552.900000", "093554.390000", "093555.880000", "093557.370000", "093558.860000", "093600.350000", "093601.840000", "093603.330000", "093604.820000", "093606.310000", "093607.800000", "093609.290000", "093610.780000", "093612.270000", "093613.760000", "093615.250000", "093616.740000", "093618.230000", "093619.720000", "093621.210000", "093622.700000", "093624.190000", "093625.680000", "093627.170000", "093628.660000", "093630.150000", "093631.640000", "093633.130000", "093634.620000", "093636.110000", "093637.600000", "093639.090000", "093640.580000", "093642.070000", "093643.560000", "093645.050000", "093646.540000", "093648.030000", "093649.520000", "093651.010000", "093652.500000", "093653.990000", "093655.480000", "093656.970000", "093658.460000", "093659.950000", "093701.440000", "093702.930000", "093704.420000", "093705.910000", "093707.400000", "093708.890000", "093710.380000", "093711.870000", "093713.360000", "093714.850000", "093716.340000", "093717.830000", "093719.320000", "093720.810000", "093722.300000", "093723.790000", "093725.280000", "093726.770000", "093728.260000", "093729.750000", "093731.240000", "093732.730000", "093734.220000", "093735.710000", "093737.200000", "093738.690000", "093740.180000", "093741.670000", "093743.160000", "093744.650000", "093746.140000", "093747.630000", "093749.120000", "093750.610000", "093752.100000", "093753.590000", "093755.080000", "093756.570000", "093758.060000", "093759.550000", "093801.040000", "093802.530000", "093804.020000", "093805.510000", "093807.000000", "093808.490000", "093809.980000", "093811.470000", "093812.960000", "093814.450000", "093815.940000", "093817.430000", "093818.920000", "093820.410000", "093821.900000", "093823.390000", "093824.880000", "093826.370000", "093827.860000", "093829.350000", "093830.840000", "093832.330000", "093833.820000", "093835.310000", "093836.800000", "093838.290000", "093839.780000", "093841.270000", "093842.760000", "093844.250000", "093845.740000", "093847.230000", "093848.720000", "093850.210000", "093851.700000", "093853.190000", "093854.680000", "093856.170000", "093857.660000", "093859.150000", "093900.640000", "093902.130000", "093903.620000", "093905.110000", "093906.600000", "093908.090000", "093909.580000", "093911.070000", "093912.560000", "093914.050000", "093915.540000", "093917.030000", "093918.520000", "093920.010000", "093921.500000", "093922.990000", "093924.480000", "093925.970000", "093927.460000", "093928.950000", "093930.440000", "093931.930000", "093933.420000", "093934.910000", "093936.400000", "093937.890000", "093939.380000", "093940.870000", "093942.360000", "093943.850000", "093945.340000", "093946.830000", "093948.320000", "093949.810000", "093951.300000", "093952.790000", "093954.280000", "093955.770000", "093957.260000", "093958.750000", "094000.240000", "094001.730000", "094003.220000", "094004.710000", "094006.200000", "094007.690000", "094009.180000", "094010.670000", "094012.160000", "094013.650000", "094015.140000", "094016.630000", "094018.120000", "094019.610000", "094021.100000", "094022.590000", "094024.080000", "094025.570000", "094027.060000", "094028.550000", "094030.040000", "094031.530000", "094033.020000", "094034.510000", "094036.000000", "094037.490000", "094038.980000", "094040.470000", "094041.960000", "094043.450000", "094044.940000", "094046.430000", "094047.920000", "094049.410000", "094050.900000", "094052.390000", "094053.880000", "094055.370000", "094056.860000", "094058.350000", "094059.840000", "094101.330000", "094102.820000", "094104.310000", "094105.800000", "094107.290000", "094108.780000", "094110.270000", "094111.760000", "094113.250000", "094114.740000", "094116.230000", "094117.720000", "094119.210000", "094120.700000", "094122.190000", "094123.680000", "094125.170000", "094126.660000", "094128.150000", "094129.640000", "094131.130000", "094132.620000", "094134.110000", "094135.600000", "094137.090000", "094138.580000", "094140.070000", "094141.560000", "094143.050000", "094144.540000", "094146.030000", "094147.520000", "094149.010000", "094150.500000", "094151.990000", "094153.480000", "094154.970000", "094156.460000", "094157.950000", "094159.440000", "094200.930000", "094202.420000", "094203.910000", "094205.400000", "094206.890000", "094208.380000", "094209.870000", "094211.360000", "094212.850000", "094214.340000", "094215.830000", "094217.320000", "094218.810000", "094220.300000", "094221.790000", "094223.280000", "094224.770000", "094226.260000", "094227.750000", "094229.240000", "094230.730000", "094232.220000", "094233.710000", "094235.200000", "094236.690000", "094238.180000", "094239.670000", "094241.160000", "094242.650000", "094244.140000", "094245.630000", "094247.120000", "094248.610000", "094250.100000", "094251.590000", "094253.080000", "094254.570000", "094256.060000", "094257.550000", "094259.040000", "094300.530000", "094302.020000", "094303.510000", "094305.000000", "094306.490000", "094307.980000", "094309.470000", "094310.960000", "094312.450000", "094313.940000", "094315.430000", "094316.920000", "094318.410000", "094319.900000", "094321.390000", "094322.880000", "094324.370000", "094325.860000", "094327.350000", "094328.840000", "094330.330000", "094331.820000", "094333.310000", "094334.800000", "094336.290000", "094337.780000", "094339.270000", "094340.760000", "094342.250000", "094343.740000", "094345.230000", "094346.720000", "094348.210000", "094349.700000", "094351.190000", "094352.680000", "094354.170000", "094355.660000", "094357.150000", "094358.640000", "094400.130000", "094401.620000", "094403.110000", "094404.600000", "094406.090000", "094407.580000", "094409.070000", "094410.560000", "094412.050000", "094413.540000", "094415.030000", "094416.520000", "094418.010000", "094419.500000", "094420.990000", "094422.480000", "094423.970000", "094425.460000", "094426.950000", "094428.440000", "094429.930000", "094431.420000", "094432.910000", "094434.400000", "094435.890000", "094437.380000", "094438.870000", "094440.360000", "094441.850000", "094443.340000", "094444.830000", "094446.320000", "094447.810000", "094449.300000", "094450.790000", "094452.280000", "094453.770000", "094455.260000", "094456.750000", "094458.240000", "094459.730000", "094501.220000", "094502.710000", "094504.200000", "094505.690000", "094507.180000", "094508.670000", "094510.160000", "094511.650000", "094513.140000", "094514.630000", "094516.120000", "094517.610000", "094519.100000", "094520.590000"],
      "ContentTime": ["093541.821000", "093541.825000", "093541.828000", "093541.831000", "093541.834000", "093541.837000", "093541.840000", "093541.843000", "093541.846000", "093541.848000", "093541.851000", "093541.854000", "093541.857000", "093541.860000", "093541.863000", "093541.866000", "093541.869000", "093541.872000", "093541.875000", "093541.878000", "093541.881000", "093541.883000", "093541.886000", "093541.889000", "093541.892000", "093541.909000", "093541.912000", "093541.924000", "093541.926000", "093541.929000", "093541.932000", "093541.935000", "093541.938000", "093541.941000", "093541.944000", "093541.947000", "093541.950000", "093541.953000", "093601.796000", "093601.800000", "093601.803000", "093601.806000", "093601.812000", "093601.815000", "093601.818000", "093601.821000", "093601.825000", "093601.828000", "093601.831000", "093601.837000", "093601.841000", "093601.845000", "093601.848000", "093601.851000", "093601.855000", "093601.860000", "093601.863000", "093601.866000", "093621.796000", "093621.799000", "093621.802000", "093621.805000", "093621.808000", "093621.811000", "093621.814000", "093621.817000", "093621.820000", "093621.823000", "093621.825000", "093621.828000", "093621.831000", "093621.834000", "093621.837000", "093621.840000", "093621.843000", "093621.846000", "093621.849000", "093621.852000", "093641.796000", "093641.799000", "093641.802000", "093641.805000", "093641.808000", "093641.811000", "093641.813000", "093641.816000", "093641.819000", "093641.822000", "093641.825000", "093641.828000", "093641.831000", "093641.834000", "093641.837000", "093641.840000", "093641.843000", "093641.846000", "093641.848000", "093641.851000", "093701.795000", "093701.798000", "093701.801000", "093701.804000", "093701.807000", "093701.810000", "093701.813000", "093701.815000", "093701.818000", "093701.821000", "093701.824000", "093701.827000", "093701.830000", "093701.833000", "093701.836000", "093701.839000", "093701.842000", "093701.845000", "093701.848000", "093701.851000", "093721.795000", "093721.798000", "093721.801000", "093721.804000", "093721.807000", "093721.810000", "093721.813000", "093721.816000", "093721.819000", "093721.828000", "093721.831000", "093721.834000", "093721.837000", "093721.840000", "093721.843000", "093721.846000", "093721.849000", "093721.852000", "093721.854000", "093721.857000", "093801.796000", "093801.799000", "093801.802000", "093801.805000", "093801.808000", "093801.811000", "093801.814000", "093801.817000", "093801.820000", "093801.822000", "093801.826000", "093801.828000", "093801.831000", "093801.834000", "093801.837000", "093801.840000", "093801.843000", "093801.846000", "093801.849000", "093801.852000", "093801.855000", "093801.857000", "093801.860000", "093801.863000", "093801.866000", "093801.869000", "093801.872000", "093801.875000", "093801.878000", "093801.881000", "093801.884000", "093801.887000", "093801.890000", "093841.796000", "093841.799000", "093841.802000", "093841.805000", "093841.808000", "093841.811000", "093841.814000", "093841.817000", "093841.820000", "093841.823000", "093841.826000", "093841.829000", "093841.832000", "093841.835000", "093841.838000", "093841.841000", "093841.843000", "093841.847000", "093841.849000", "093841.852000", "093841.855000", "093841.858000", "093841.861000", "093841.864000", "093841.867000", "093841.870000", "093921.795000", "093921.798000", "093921.801000", "093921.804000", "093921.807000", "093921.810000", "093921.813000", "093921.816000", "093921.819000", "093921.822000", "093921.825000", "093921.838000", "093921.841000", "093921.844000", "093921.847000", "093921.850000", "093921.852000", "093921.855000", "093921.858000", "093921.861000", "093921.864000", "093921.867000", "093921.870000", "093921.873000", "093921.876000", "093921.879000", "093921.882000", "094001.795000", "094001.798000", "094001.801000", "094001.804000", "094001.807000", "094001.810000", "094001.813000", "094001.816000", "094001.819000", "094001.822000", "094001.825000", "094001.827000", "094001.830000", "094001.833000", "094001.836000", "094001.839000", "094001.842000", "094001.845000", "094001.848000", "094001.851000", "094001.854000", "094001.857000", "094001.860000", "094001.863000", "094001.866000", "094001.869000", "094001.871000", "094041.796000", "094041.799000", "094041.802000", "094041.805000", "094041.808000", "094041.811000", "094041.814000", "094041.817000", "094041.820000", "094041.823000", "094041.826000", "094041.829000", "094041.832000", "094041.834000", "094041.837000", "094041.840000", "094041.843000", "094041.846000", "094041.849000", "094041.852000", "094041.855000", "094041.858000", "094041.861000", "094041.864000", "094041.867000", "094041.870000", "094041.872000", "094121.796000", "094121.799000", "094121.802000", "094121.805000", "094121.808000", "094121.811000", "094121.814000", "094121.817000", "094121.820000", "094121.823000", "094121.826000", "094121.829000", "094121.832000", "094121.835000", "094121.838000", "094121.840000", "094121.843000", "094121.846000", "094121.849000", "094121.852000", "094121.855000", "094121.858000", "094121.861000", "094121.864000", "094121.867000", "094121.870000", "094121.873000", "094201.795000", "094201.798000", "094201.801000", "094201.804000", "094201.807000", "094201.810000", "094201.813000", "094201.816000", "094201.819000", "094201.822000", "094201.825000", "094201.827000", "094201.830000", "094201.833000", "094201.836000", "094201.839000", "094201.842000", "094201.845000", "094201.848000", "094201.851000", "094201.854000", "094201.857000", "094201.860000", "094201.863000", "094201.865000", "094201.869000", "094201.871000", "094241.796000", "094241.799000", "094241.802000", "094241.805000", "094241.808000", "094241.811000", "094241.814000", "094241.817000", "094241.820000", "094241.822000", "094241.825000", "094241.828000", "094241.831000", "094241.834000", "094241.837000", "094241.840000", "094241.843000", "094241.846000", "094241.849000", "094241.852000", "094241.855000", "094241.857000", "094241.860000", "094241.863000", "094241.866000", "094241.869000", "094241.872000", "094321.796000", "094321.799000", "094321.802000", "094321.805000", "094321.808000", "094321.811000", "094321.814000", "094321.817000", "094321.820000", "094321.823000", "094321.826000", "094321.829000", "094321.831000", "094321.835000", "094321.837000", "094321.840000", "094321.843000", "094321.846000", "094321.849000", "094321.852000", "094321.855000", "094321.858000", "094321.861000", "094321.864000", "094321.867000", "094321.870000", "094401.795000", "094401.798000", "094401.801000", "094401.804000", "094401.807000", "094401.810000", "094401.813000", "094401.835000", "094401.838000", "094401.841000", "094401.844000", "094401.847000", "094401.850000", "094401.853000", "094401.855000", "094401.858000", "094401.861000", "094401.864000", "094401.867000", "094401.870000", "094401.873000", "094401.876000", "094401.879000", "094401.882000", "094401.885000", "094401.888000", "094401.890000", "094441.795000", "094441.798000", "094441.801000", "094441.804000", "094441.807000", "094441.810000", "094441.813000", "094441.816000", "094441.819000", "094441.822000", "094441.825000", "094441.827000", "094441.830000", "094441.833000", "094441.836000", "094441.839000", "094441.842000", "094441.845000", "094441.848000", "094441.851000", "094441.854000", "094441.857000", "094441.860000", "094441.863000", "094441.866000", "094441.868000", "094441.871000", "094521.796000", "094521.799000", "094521.802000", "094521.805000", "094521.808000", "094521.811000", "094521.814000", "094521.817000", "094521.820000", "094521.823000", "094521.825000", "094521.829000", "094521.831000", "094521.834000", "094521.837000", "094521.840000", "094521.843000", "094521.846000", "094521.849000", "094521.852000", "094521.855000", "094521.858000", "094521.861000", "094521.864000", "094521.867000", "094521.869000", "094521.872000", "094522.745000"],
