{
  "AcquisitionMatrixPE": 104,
  "AcquisitionNumber": 1,
  "AcquisitionTime": "10:10:0.115000",
  "BandwidthPerPixelPhaseEncode": 17.17,
  "BaseResolution": 104,
  "BodyPartExamined": "BRAIN",
  "CoilString": "HC1-7;NC1_2",
  "ConsistencyInfo": "N4_VE11C_LATEST_20160120",
  "ConversionSoftware": "dcm2niix",
  "ConversionSoftwareVersion": "v1.0.20190902",
  "DerivedVendorReportedEchoSpacing": 0.000560011,
  "DeviceSerialNumber": "167006",
  "DwellTime": 2.1e-06,
  "EchoTime": 0.037,
  "EchoTrainLength": 104,
  "EffectiveEchoSpacing": 0.000560011,
  "FlipAngle": 52,
  "ImageComments": "Unaliased_MB4_PE3_LB",
  "ImageOrientationPatientDICOM": [0.998084, 0.0509328, 0.0351208, -0.0406107, 0.967613, -0.249151],
  "ImageType": [
    "ORIGINAL",
    "PRIMARY",
    "M",
    "MB",
    "ND",
    "MOSAIC"
],
  "ImagingFrequency": 123.259,
  "InPlanePhaseEncodingDirectionDICOM": "COL",
  "InstitutionAddress": "Chemin_Queen-Mary_4565_Montreal_District_CA_H3W_1W5",
  "InstitutionName": "IUGM",
  "InstitutionalDepartmentName": "Department",
  "MRAcquisitionType": "2D",
  "MagneticFieldStrength": 3,
  "Manufacturer": "Siemens",
  "ManufacturersModelName": "Prisma_fit",
  "Modality": "MR",
  "MultibandAccelerationFactor": 4,
  "PartialFourier": 1,
  "PatientPosition": "HFS",
  "PercentPhaseFOV": 100,
  "PhaseEncodingDirection": "j",
  "PhaseEncodingSteps": 104,
  "PhaseResolution": 1,
  "PixelBandwidth": 2290,
  "ProcedureStepDescription": "video_friends",
  "ProtocolName": "func_task-friends-s03e08b",
  "PulseSequenceDetails": "%CustomerSeq%_cmrr_mbep2d_bold",
  "ReceiveCoilActiveElements": "HC1-7;NC1,2",
  "ReceiveCoilName": "HeadNeck_64",
  "ReconMatrixPE": 104,
  "RepetitionTime": 1.49,
  "SAR": 0.0415264,
  "ScanOptions": "FS",
  "ScanningSequence": "EP",
  "SequenceName": "epfid2d1_104",
  "SequenceVariant": "SK_SS",
  "SeriesDescription": "func_task-friends-s03e08b",
  "SeriesNumber": 15,
  "ShimSetting": [644, -7209, -8777, 655, 107, -44, 112, -23],
  "SliceThickness": 2,
  "SliceTiming": [0, 0.7825, 0.0975, 0.88, 0.195, 0.98, 0.2925, 1.0775, 0.39, 1.175, 0.49, 1.2725, 0.5875, 1.37, 0.685, 0, 0.7825, 0.0975, 0.88, 0.195, 0.98, 0.2925, 1.0775, 0.39, 1.175, 0.49, 1.2725, 0.5875, 1.37, 0.685, 0, 0.7825, 0.0975, 0.88, 0.195, 0.98, 0.2925, 1.0775, 0.39, 1.175, 0.49, 1.2725, 0.5875, 1.37, 0.685, 0, 0.7825, 0.0975, 0.88, 0.195, 0.98, 0.2925, 1.0775, 0.39, 1.175, 0.49, 1.2725, 0.5875, 1.37, 0.685],
  "SoftwareVersions": "syngo_MR_E11",
  "SpacingBetweenSlices": 2,
  "StationName": "MRC35049",
  "TaskName": "s03e08b",
  "TotalReadoutTime": 0.0576811,
  "TxRefAmp": 254.224,
  "WipMemBlock": "750f44ad-78d8-4116-a6e9-aa806a49fcfc||Sequence: R016 ve11c/master r/e634e98; Dec 19 2017 11:00:25 by eja",
  "dcmmeta_affine": [
    [-1.9961687326431274, -0.0812213122844696, 0.09334652125835419, 105.17969512939453],
    [-0.10186558961868286, 1.9352257251739502, -0.49449440836906433, -69.82855987548828],
    [0.07024155557155609, 0.49830153584480286, 1.9356553554534912, -39.9355354309082],
    [0.0, 0.0, 0.0, 1.0]
],
  "dcmmeta_reorient_transform": [
    [0.0, -1.0, 0.0, 103.0],
    [1.0, 0.0, 0.0, 0.0],
    [0.0, 0.0, 1.0, 0.0],
    [0.0, 0.0, 0.0, 1.0]
],
  "dcmmeta_shape": [104, 104, 60, 460],
  "dcmmeta_slice_dim": 2,
  "dcmmeta_version": 0.6,
  "global": {
    "const": {
      "AcquisitionMatrix": [104, 0, 0, 104],
      "AngioFlag": "N",
      "BitsAllocated": 16,
      "BitsStored": 16,
      "BodyPartExamined": "BRAIN",
      "Columns": 832,
      "EchoNumbers": 1,
      "EchoTime": 37.0,
      "EchoTrainLength": 104,
      "FlipAngle": 52.0,
      "HighBit": 15,
      "ImageOrientationPatient": [0.99808435589094, 0.0509327946644, 0.0351207766635, -0.0406106545953, 0.9676128706739, -0.2491507721031],
      "ImagePositionPatient": [-793.85475635501, -871.00093548651, 167.20335972441],
      "ImageType": [
        "ORIGINAL",
        "PRIMARY",
        "M",
        "MB",
        "ND",
        "MOSAIC"
],
      "ImagedNucleus": "1H",
      "ImagingFrequency": 123.259055,
      "InPlanePhaseEncodingDirection": "COL",
      "MRAcquisitionType": "2D",
      "MagneticFieldStrength": 3.0,
      "Manufacturer": "SIEMENS",
      "ManufacturerModelName": "Prisma_fit",
      "Modality": "MR",
      "NumberOfAverages": 1.0,
      "NumberOfPhaseEncodingSteps": 104,
      "PercentPhaseFieldOfView": 100.0,
      "PercentSampling": 100.0,
      "PerformedProcedureStepStartTime": "093114.410000",
      "PhotometricInterpretation": "MONOCHROME2",
      "PixelBandwidth": 2290.0,
      "PixelRepresentation": 0,
      "PixelSpacing": [2.0, 2.0],
      "ProtocolName": "func_task-friends-s03e08b",
      "RepetitionTime": 1490.0,
      "Rows": 832,
      "SAR": 0.0415264011499,
      "SamplesPerPixel": 1,
      "ScanOptions": "FS",
      "ScanningSequence": "EP",
      "SequenceName": "epfid2d1_104",
      "SequenceVariant": [
        "SK",
        "SS"
],
      "SeriesDescription": "func_task-friends-s03e08b",
      "SeriesNumber": 15,
      "SeriesTime": "101121.822000",
      "SliceLocation": -16.476721175883,
      "SliceThickness": 2.0,
      "SmallestImagePixelValue": 0,
      "SoftwareVersions": "syngo MR E11",
      "SpacingBetweenSlices": 1.9999999792786,
      "SpecificCharacterSet": "ISO_IR 100",
      "StudyID": "2",
      "StudyTime": "093114.355000",
      "TransmitCoilName": "Body",
      "VariableFlipAngleFlag": "N",
      "WindowCenterWidthExplanation": "Algo1",
      "dBdt": 0.0},
    "slices": {}
  },
  "time": {
    "samples": {
      "AcquisitionNumber": [1, 2, 3, 4, 5, 6, 7, 8, 9, 10, 11, 12, 13, 14, 15, 16, 17, 18, 19, 20, 21, 22, 23, 24, 25, 26, 27, 28, 29, 30, 31, 32, 33, 34, 35, 36, 37, 38, 39, 40, 41, 42, 43, 44, 45, 46, 47, 48, 49, 50, 51, 52, 53, 54, 55, 56, 57, 58, 59, 60, 61, 62, 63, 64, 65, 66, 67, 68, 69, 70, 71, 72, 73, 74, 75, 76, 77, 78, 79, 80, 81, 82, 83, 84, 85, 86, 87, 88, 89, 90, 91, 92, 93, 94, 95, 96, 97, 98, 99, 100, 101, 102, 103, 104, 105, 106, 107, 108, 109, 110, 111, 112, 113, 114, 115, 116, 117, 118, 119, 120, 121, 122, 123, 124, 125, 126, 127, 128, 129, 130, 131, 132, 133, 134, 135, 136, 137, 138, 139, 140, 141, 142, 143, 144, 145, 146, 147, 148, 149, 150, 151, 152, 153, 154, 155, 156, 157, 158, 159, 160, 161, 162, 163, 164, 165, 166, 167, 168, 169, 170, 171, 172, 173, 174, 175, 176, 177, 178, 179, 180, 181, 182, 183, 184, 185, 186, 187, 188, 189, 190, 191, 192, 193, 194, 195, 196, 197, 198, 199, 200, 201, 202, 203, 204, 205, 206, 207, 208, 209, 210, 211, 212, 213, 214, 215, 216, 217, 218, 219, 220, 221, 222, 223, 224, 225, 226, 227, 228, 229, 230, 231, 232, 233, 234, 235, 236, 237, 238, 239, 240, 241, 242, 243, 244, 245, 246, 247, 248, 249, 250, 251, 252, 253, 254, 255, 256, 257, 258, 259, 260, 261, 262, 263, 264, 265, 266, 267, 268, 269, 270, 271, 272, 273, 274, 275, 276, 277, 278, 279, 280, 281, 282, 283, 284, 285, 286, 287, 288, 289, 290, 291, 292, 293, 294, 295, 296, 297, 298, 299, 300, 301, 302, 303, 304, 305, 306, 307, 308, 309, 310, 311, 312, 313, 314, 315, 316, 317, 318, 319, 320, 321, 322, 323, 324, 325, 326, 327, 328, 329, 330, 331, 332, 333, 334, 335, 336, 337, 338, 339, 340, 341, 342, 343, 344, 345, 346, 347, 348, 349, 350, 351, 352, 353, 354, 355, 356, 357, 358, 359, 360, 361, 362, 363, 364, 365, 366, 367, 368, 369, 370, 371, 372, 373, 374, 375, 376, 377, 378, 379, 380, 381, 382, 383, 384, 385, 386, 387, 388, 389, 390, 391, 392, 393, 394, 395, 396, 397, 398, 399, 400, 401, 402, 403, 404, 405, 406, 407, 408, 409, 410, 411, 412, 413, 414, 415, 416, 417, 418, 419, 420, 421, 422, 423, 424, 425, 426, 427, 428, 429, 430, 431, 432, 433, 434, 435, 436, 437, 438, 439, 440, 441, 442, 443, 444, 445, 446, 447, 448, 449, 450, 451, 452, 453, 454, 455, 456, 457, 458, 459, 460],
      "AcquisitionTime": ["101000.115000", "101001.605000", "101003.095000", "101004.585000", "101006.075000", "101007.565000", "101009.055000", "101010.545000", "101012.035000", "101013.525000", "101015.015000", "101016.505000", "101017.995000", "101019.485000", "101020.975000", "101022.465000", "101023.955000", "101025.445000", "101026.935000", "101028.425000", "101029.915000", "101031.405000", "101032.895000", "101034.385000", "101035.875000", "101037.365000", "101038.855000", "101040.345000", "101041.835000", "101043.325000", "101044.815000", "101046.305000", "101047.795000", "101049.285000", "101050.775000", "101052.265000", "101053.755000", "101055.245000", "101056.735000", "101058.225000", "101059.715000", "101101.205000", "101102.695000", "101104.185000", "101105.675000", "101107.165000", "101108.655000", "101110.145000", "101111.635000", "101113.125000", "101114.615000", "101116.105000", "101117.595000", "101119.085000", "101120.575000", "101122.065000", "101123.555000", "101125.045000", "101126.535000", "101128.025000", "101129.515000", "101131.005000", "101132.495000", "101133.985000", "101135.475000", "101136.965000", "101138.455000", "101139.945000", "101141.435000", "101142.925000", "101144.415000", "101145.905000", "101147.395000", "101148.885000", "101150.375000", "101151.865000", "101153.355000", "101154.845000", "101156.335000", "101157.825000", "101159.315000", "101200.805000", "101202.295000", "101203.785000", "101205.275000", "101206.765000", "101208.255000", "101209.745000", "101211.235000", "101212.725000", "101214.215000", "101215.705000", "101217.195000", "101218.685000", "101220.175000", "101221.665000", "101223.155000", "101224.645000", "101226.135000", "101227.625000", "101229.115000", "101230.605000", "101232.095000", "101233.585000", "101235.075000", "101236.565000", "101238.055000", "101239.545000", "101241.035000", "101242.525000", "101244.015000", "101245.505000", "101246.995000", "101248.485000", "101249.975000", "101251.465000", "101252.955000", "101254.445000", "101255.935000", "101257.425000", "101258.915000", "101300.405000", "101301.895000", "101303.385000", "101304.875000", "101306.365000", "101307.855000", "101309.345000", "101310.835000", "101312.325000", "101313.815000", "101315.305000", "101316.795000", "101318.285000", "101319.775000", "101321.265000", "101322.755000", "101324.245000", "101325.735000", "101327.225000", "101328.715000", "101330.205000", "101331.695000", "101333.185000", "101334.675000", "101336.165000", "101337.655000", "101339.145000", "101340.635000", "101342.125000", "101343.615000", "101345.105000", "101346.595000", "101348.085000", "101349.575000", "101351.065000", "101352.555000", "101354.045000", "101355.535000", "101357.025000", "101358.515000", "101400.005000", "101401.495000", "101402.985000", "101404.475000", "101405.965000", "101407.455000", "101408.945000", "101410.435000", "101411.925000", "101413.415000", "101414.905000", "101416.395000", "101417.885000", "101419.375000", "101420.865000", "101422.355000", "101423.845000", "101425.335000", "101426.825000", "101428.315000", "101429.805000", "101431.295000", "101432.785000", "101434.275000", "101435.765000", "101437.255000", "101438.745000", "101440.235000", "101441.725000", "101443.215000", "101444.705000", "101446.195000", "101447.685000", "101449.175000", "101450.665000", "101452.155000", "101453.645000", "101455.135000", "101456.625000", "101458.115000", "101459.605000", "101501.095000", "101502.585000", "101504.075000", "101505.565000", "101507.055000", "101508.545000", "101510.035000", "101511.525000", "101513.015000", "101514.505000", "101515.995000", "101517.485000", "101518.975000", "101520.465000", "101521.955000", "101523.445000", "101524.935000", "101526.425000", "101527.915000", "101529.405000", "101530.895000", "101532.385000", "101533.875000", "101535.365000", "101536.855000", "101538.345000", "101539.835000", "101541.325000", "101542.815000", "101544.305000", "101545.795000", "101547.285000", "101548.775000", "101550.265000", "101551.755000", "101553.245000", "101554.735000", "101556.225000", "101557.715000", "101559.205000", "101600.695000", "101602.185000", "101603.675000", "101605.165000", "101606.655000", "101608.145000", "101609.635000", "101611.125000", "101612.615000", "101614.105000", "101615.595000", "101617.085000", "101618.575000", "101620.065000", "101621.555000", "101623.045000", "101624.535000", "101626.025000", "101627.515000", "101629.005000", "101630.495000", "101631.985000", "101633.475000", "101634.965000", "101636.455000", "101637.945000", "101639.435000", "101640.925000", "101642.415000", "101643.905000", "101645.395000", "101646.885000", "101648.375000", "101649.865000", "101651.355000", "101652.845000", "101654.335000", "101655.825000", "101657.315000", "101658.805000", "101700.295000", "101701.785000", "101703.275000", "101704.765000", "101706.255000", "101707.745000", "101709.235000", "101710.725000", "101712.215000", "101713.705000", "101715.195000", "101716.685000", "101718.175000", "101719.665000", "101721.155000", "101722.645000", "101724.135000", "101725.625000", "101727.115000", "101728.605000", "101730.095000", "101731.585000", "101733.075000", "101734.565000", "101736.055000", "101737.545000", "101739.035000", "101740.525000", "101742.015000", "101743.505000", "101744.995000", "101746.485000", "101747.975000", "101749.465000", "101750.955000", "101752.445000", "101753.935000", "101755.425000", "101756.915000", "101758.405000", "101759.895000", "101801.385000", "101802.875000", "101804.365000", "101805.855000", "101807.345000", "101808.835000", "101810.325000", "101811.815000", "101813.305000", "101814.795000", "101816.285000", "101817.775000", "101819.265000", "101820.755000", "101822.245000", "101823.735000", "101825.225000", "101826.715000", "101828.205000", "101829.695000", "101831.185000", "101832.675000", "101834.165000", "101835.655000", "101837.145000", "101838.635000", "101840.125000", "101841.615000", "101843.105000", "101844.595000", "101846.085000", "101847.575000", "101849.065000", "101850.555000", "101852.045000", "101853.535000", "101855.025000", "101856.515000", "101858.005000", "101859.495000", "101900.985000", "101902.475000", "101903.965000", "101905.455000", "101906.945000", "101908.435000", "101909.925000", "101911.415000", "101912.905000", "101914.395000", "101915.885000", "101917.375000", "101918.865000", "101920.355000", "101921.845000", "101923.335000", "101924.825000", "101926.315000", "101927.805000", "101929.295000", "101930.785000", "101932.275000", "101933.765000", "101935.255000", "101936.745000", "101938.235000", "101939.725000", "101941.215000", "101942.705000", "101944.195000", "101945.685000", "101947.175000", "101948.665000", "101950.155000", "101951.645000", "101953.135000", "101954.625000", "101956.115000", "101957.605000", "101959.095000", "102000.585000", "102002.075000", "102003.565000", "102005.055000", "102006.545000", "102008.035000", "102009.525000", "102011.015000", "102012.505000", "102013.995000", "102015.485000", "102016.975000", "102018.465000", "102019.955000", "102021.445000", "102022.935000", "102024.425000", "102025.915000", "102027.405000", "102028.895000", "102030.385000", "102031.875000", "102033.365000", "102034.855000", "102036.345000", "102037.835000", "102039.325000", "102040.815000", "102042.305000", "102043.795000", "102045.285000", "102046.775000", "102048.265000", "102049.755000", "102051.245000", "102052.735000", "102054.225000", "102055.715000", "102057.205000", "102058.695000", "102100.185000", "102101.675000", "102103.165000", "102104.655000", "102106.145000", "102107.635000", "102109.125000", "102110.615000", "102112.105000", "102113.595000", "102115.085000", "102116.575000", "102118.065000", "102119.555000", "102121.045000", "102122.535000", "102124.025000"],
      "ContentTime": ["101121.825000", "101121.829000", "101121.832000", "101121.835000", "101121.838000", "101121.847000", "101121.850000", "101121.853000", "101121.856000", "101121.862000", "101121.865000", "101121.868000", "101121.871000", "101121.873000", "101121.876000", "101121.879000", "101121.882000", "101121.885000", "101121.888000", "101121.891000", "101121.897000", "101121.900000", "101121.903000", "101121.906000", "101121.909000", "101121.912000", "101121.915000", "101141.796000", "101141.799000", "101141.802000", "101141.805000", "101141.808000", "101141.810000", "101141.813000", "101141.816000", "101141.819000", "101141.828000", "101141.832000", "101141.834000", "101141.837000", "101141.840000", "101141.843000", "101141.846000", "101141.849000", "101141.852000", "101141.855000", "101141.858000", "101201.795000", "101201.798000", "101201.801000", "101201.804000", "101201.807000", "101201.810000", "101201.813000", "101201.816000", "101201.818000", "101201.821000", "101201.824000", "101201.827000", "101201.830000", "101201.833000", "101201.836000", "101201.839000", "101201.841000", "101201.844000", "101201.847000", "101201.850000", "101221.795000", "101221.798000", "101221.801000", "101221.804000", "101221.807000", "101221.810000", "101221.813000", "101221.815000", "101221.818000", "101221.821000", "101221.828000", "101221.831000", "101221.834000", "101221.837000", "101221.840000", "101221.842000", "101221.845000", "101221.848000", "101221.851000", "101221.854000", "101241.796000", "101241.799000", "101241.802000", "101241.805000", "101241.808000", "101241.811000", "101241.814000", "101241.817000", "101241.819000", "101241.822000", "101241.825000", "101241.828000", "101241.831000", "101241.834000", "101241.846000", "101241.849000", "101241.851000", "101241.866000", "101241.870000", "101241.873000", "101321.796000", "101321.799000", "101321.802000", "101321.805000", "101321.808000", "101321.811000", "101321.814000", "101321.816000", "101321.819000", "101321.822000", "101321.825000", "101321.828000", "101321.831000", "101321.834000", "101321.837000", "101321.840000", "101321.849000", "101321.852000", "101321.855000", "101321.858000", "101321.860000", "101321.863000", "101321.866000", "101321.869000", "101321.872000", "101321.875000", "101321.878000", "101321.881000", "101401.796000", "101401.799000", "101401.802000", "101401.805000", "101401.808000", "101401.811000", "101401.814000", "101401.818000", "101401.822000", "101401.825000", "101401.829000", "101401.831000", "101401.834000", "101401.837000", "101401.840000", "101401.843000", "101401.846000", "101401.849000", "101401.852000", "101401.855000", "101401.858000", "101401.860000", "101401.863000", "101401.866000", "101401.869000", "101401.872000", "101441.795000", "101441.798000", "101441.801000", "101441.804000", "101441.807000", "101441.810000", "101441.813000", "101441.816000", "101441.818000", "101441.821000", "101441.824000", "101441.827000", "101441.830000", "101441.833000", "101441.836000", "101441.839000", "101441.842000", "101441.844000", "101441.847000", "101441.850000", "101441.853000", "101441.856000", "101441.859000", "101441.862000", "101441.865000", "101441.868000", "101441.871000", "101521.796000", "101521.799000", "101521.802000", "101521.805000", "101521.808000", "101521.811000", "101521.814000", "101521.817000", "101521.819000", "101521.823000", "101521.825000", "101521.828000", "101521.831000", "101521.834000", "101521.837000", "101521.840000", "101521.843000", "101521.846000", "101521.849000", "101521.852000", "101521.855000", "101521.858000", "101521.860000", "101521.863000", "101521.866000", "101521.869000", "101521.872000", "101601.796000", "101601.799000", "101601.802000", "101601.805000", "101601.808000", "101601.811000", "101601.814000", "101601.817000", "101601.820000", "101601.822000", "101601.825000", "101601.828000", "101601.831000", "101601.834000", "101601.837000", "101601.840000", "101601.843000", "101601.846000", "101601.849000", "101601.852000", "101601.855000", "101601.858000", "101601.860000", "101601.863000", "101601.866000", "101601.869000", "101601.872000", "101641.795000", "101641.798000", "101641.801000", "101641.804000", "101641.807000", "101641.810000", "101641.813000", "101641.816000", "101641.818000", "101641.821000", "101641.824000", "101641.827000", "101641.830000", "101641.833000", "101641.836000", "101641.839000", "101641.842000", "101641.845000", "101641.848000", "101641.851000", "101641.854000", "101641.857000", "101641.859000", "101641.862000", "101641.865000", "101641.868000", "101641.871000", "101721.796000", "101721.799000", "101721.802000", "101721.805000", "101721.808000", "101721.811000", "101721.814000", "101721.817000", "101721.820000", "101721.822000", "101721.825000", "101721.828000", "101721.831000", "101721.834000", "101721.837000", "101721.840000", "101721.843000", "101721.846000", "101721.849000", "101721.852000", "101721.855000", "101721.870000", "101721.874000", "101721.876000", "101721.879000", "101721.882000", "101721.885000", "101801.796000", "101801.799000", "101801.802000", "101801.805000", "101801.808000", "101801.811000", "101801.814000", "101801.817000", "101801.820000", "101801.823000", "101801.826000", "101801.829000", "101801.831000", "101801.834000", "101801.837000", "101801.840000", "101801.843000", "101801.846000", "101801.849000", "101801.852000", "101801.855000", "101801.858000", "101801.861000", "101801.864000", "101801.867000", "101801.870000", "101801.872000", "101841.795000", "101841.798000", "101841.801000", "101841.804000", "101841.807000", "101841.811000", "101841.814000", "101841.817000", "101841.820000", "101841.823000", "101841.826000", "101841.829000", "101841.831000", "101841.834000", "101841.837000", "101841.840000", "101841.843000", "101841.846000", "101841.849000", "101841.852000", "101841.855000", "101841.858000", "101841.861000", "101841.864000", "101841.867000", "101841.870000", "101921.795000", "101921.798000", "101921.801000", "101921.804000", "101921.807000", "101921.810000", "101921.813000", "101921.816000", "101921.819000", "101921.822000", "101921.825000", "101921.827000", "101921.830000", "101921.833000", "101921.836000", "101921.839000", "101921.842000", "101921.845000", "101921.848000", "101921.851000", "101921.854000", "101921.856000", "101921.859000", "101921.862000", "101921.865000", "101921.868000", "101921.871000", "102001.796000", "102001.799000", "102001.802000", "102001.805000", "102001.808000", "102001.811000", "102001.814000", "102001.817000", "102001.820000", "102001.823000", "102001.826000", "102001.829000", "102001.832000", "102001.835000", "102001.838000", "102001.841000", "102001.843000", "102001.847000", "102001.849000", "102001.852000", "102001.855000", "102001.858000", "102001.861000", "102001.864000", "102001.867000", "102001.870000", "102001.873000", "102041.796000", "102041.799000", "102041.802000", "102041.805000", "102041.808000", "102041.811000", "102041.814000", "102041.817000", "102041.820000", "102041.823000", "102041.826000", "102041.828000", "102041.832000", "102041.834000", "102041.837000", "102041.840000", "102041.843000", "102041.846000", "102041.849000", "102041.852000", "102041.855000", "102041.858000", "102041.861000", "102041.864000", "102041.867000", "102041.869000", "102041.872000", "102121.795000", "102121.798000", "102121.801000", "102121.804000", "102121.807000", "102121.810000", "102121.813000", "102121.816000", "102121.819000", "102121.822000", "102121.824000", "102121.827000", "102121.830000", "102121.833000", "102121.836000", "102121.839000", "102121.842000", "102121.845000", "102121.848000", "102121.851000", "102121.854000", "102121.857000", "102121.860000", "102121.863000", "102121.865000", "102121.868000", "102121.871000", "102125.896000", "102125.900000", "102125.903000"],
