{
  "AcquisitionMatrixPE": 104,
  "AcquisitionNumber": 1,
  "AcquisitionTime": "10:42:13.962500",
  "BandwidthPerPixelPhaseEncode": 17.17,
  "BaseResolution": 104,
  "BodyPartExamined": "BRAIN",
  "CoilString": "HC1-7;NC1_2",
  "ConsistencyInfo": "N4_VE11C_LATEST_20160120",
  "ConversionSoftware": "dcm2niix",
  "ConversionSoftwareVersion": "v1.0.20190902",
  "DerivedVendorReportedEchoSpacing": 0.000560011,
  "DeviceSerialNumber": "167006",
  "DwellTime": 2.1e-06,
  "EchoTime": 0.037,
  "EchoTrainLength": 104,
  "EffectiveEchoSpacing": 0.000560011,
  "FlipAngle": 52,
  "ImageComments": "Unaliased_MB4_PE3_LB",
  "ImageOrientationPatientDICOM": [0.99408, 0.0893215, 0.0618544, -0.067421, 0.953582, -0.293488],
  "ImageType": [
    "ORIGINAL",
    "PRIMARY",
    "M",
    "MB",
    "ND",
    "MOSAIC"
],
  "ImagingFrequency": 123.259,
  "InPlanePhaseEncodingDirectionDICOM": "COL",
  "InstitutionAddress": "Chemin_Queen-Mary_4565_Montreal_District_CA_H3W_1W5",
  "InstitutionName": "IUGM",
  "InstitutionalDepartmentName": "Department",
  "MRAcquisitionType": "2D",
  "MagneticFieldStrength": 3,
  "Manufacturer": "Siemens",
  "ManufacturersModelName": "Prisma_fit",
  "Modality": "MR",
  "MultibandAccelerationFactor": 4,
  "PartialFourier": 1,
  "PatientPosition": "HFS",
  "PercentPhaseFOV": 100,
  "PhaseEncodingDirection": "j",
  "PhaseEncodingSteps": 104,
  "PhaseResolution": 1,
  "PixelBandwidth": 2290,
  "ProcedureStepDescription": "video_friends",
  "ProtocolName": "func_task-friends-s03e09b",
  "PulseSequenceDetails": "%CustomerSeq%_cmrr_mbep2d_bold",
  "ReceiveCoilActiveElements": "HC1-7;NC1,2",
  "ReceiveCoilName": "HeadNeck_64",
  "ReconMatrixPE": 104,
  "RepetitionTime": 1.49,
  "SAR": 0.0406014,
  "ScanOptions": "FS",
  "ScanningSequence": "EP",
  "SequenceName": "epfid2d1_104",
  "SequenceVariant": "SK_SS",
  "SeriesDescription": "func_task-friends-s03e09b",
  "SeriesNumber": 26,
  "ShimSetting": [637, -7227, -8844, 684, 107, -86, 106, -16],
  "SliceThickness": 2,
  "SliceTiming": [0, 0.785, 0.0975, 0.8825, 0.195, 0.98, 0.295, 1.0775, 0.3925, 1.175, 0.49, 1.2725, 0.5875, 1.3725, 0.685, 0, 0.785, 0.0975, 0.8825, 0.195, 0.98, 0.295, 1.0775, 0.3925, 1.175, 0.49, 1.2725, 0.5875, 1.3725, 0.685, 0, 0.785, 0.0975, 0.8825, 0.195, 0.98, 0.295, 1.0775, 0.3925, 1.175, 0.49, 1.2725, 0.5875, 1.3725, 0.685, 0, 0.785, 0.0975, 0.8825, 0.195, 0.98, 0.295, 1.0775, 0.3925, 1.175, 0.49, 1.2725, 0.5875, 1.3725, 0.685],
  "SoftwareVersions": "syngo_MR_E11",
  "SpacingBetweenSlices": 2,
  "StationName": "MRC35049",
  "TaskName": "s03e09b",
  "TotalReadoutTime": 0.0576811,
  "TxRefAmp": 249.875,
  "WipMemBlock": "47b1df19-74ab-45a3-8e6f-dcd3b2730ef5||Sequence: R016 ve11c/master r/e634e98; Dec 19 2017 11:00:25 by eja",
  "dcmmeta_affine": [
    [-1.9881606101989746, -0.13484197854995728, 0.17039620876312256, 105.428466796875],
    [-0.17864304780960083, 1.907164454460144, -0.5751610398292542, -63.11796951293945],
    [0.12370886653661728, 0.5869762897491455, 1.9079190492630005, -65.7474365234375],
    [0.0, 0.0, 0.0, 1.0]
],
  "dcmmeta_reorient_transform": [
    [0.0, -1.0, 0.0, 103.0],
    [1.0, 0.0, 0.0, 0.0],
    [0.0, 0.0, 1.0, 0.0],
    [0.0, 0.0, 0.0, 1.0]
],
  "dcmmeta_shape": [104, 104, 60, 493],
  "dcmmeta_slice_dim": 2,
  "dcmmeta_version": 0.6,
  "global": {
    "const": {
      "AcquisitionMatrix": [104, 0, 0, 104],
      "AngioFlag": "N",
      "BitsAllocated": 16,
      "BitsStored": 16,
      "BodyPartExamined": "BRAIN",
      "Columns": 832,
      "EchoNumbers": 1,
      "EchoTime": 37.0,
      "EchoTrainLength": 104,
      "FlipAngle": 52.0,
      "HighBit": 15,
      "ImageOrientationPatient": [0.99408032559404, 0.08932152728317, 0.06185443420364, -0.0674209896825, 0.95358225264874, -0.2934881557808],
      "ImagePositionPatient": [-766.1477389567, -892.55392753885, 163.34047026513],
      "ImageType": [
        "ORIGINAL",
        "PRIMARY",
        "M",
        "MB",
        "ND",
        "MOSAIC"
],
      "ImagedNucleus": "1H",
      "ImagingFrequency": 123.2591,
      "InPlanePhaseEncodingDirection": "COL",
      "MRAcquisitionType": "2D",
      "MagneticFieldStrength": 3.0,
      "Manufacturer": "SIEMENS",
      "ManufacturerModelName": "Prisma_fit",
      "Modality": "MR",
      "NumberOfAverages": 1.0,
      "NumberOfPhaseEncodingSteps": 104,
      "PercentPhaseFieldOfView": 100.0,
      "PercentSampling": 100.0,
      "PerformedProcedureStepStartTime": "093114.410000",
      "PhotometricInterpretation": "MONOCHROME2",
      "PixelBandwidth": 2290.0,
      "PixelRepresentation": 0,
      "PixelSpacing": [2.0, 2.0],
      "ProtocolName": "func_task-friends-s03e09b",
      "RepetitionTime": 1490.0,
      "Rows": 832,
      "SAR": 0.04060136719703,
      "SamplesPerPixel": 1,
      "ScanOptions": "FS",
      "ScanningSequence": "EP",
      "SequenceName": "epfid2d1_104",
      "SequenceVariant": [
        "SK",
        "SS"
],
      "SeriesDescription": "func_task-friends-s03e09b",
      "SeriesNumber": 26,
      "SeriesTime": "104333.425000",
      "SliceLocation": -35.586591386904,
      "SliceThickness": 2.0,
      "SmallestImagePixelValue": 0,
      "SoftwareVersions": "syngo MR E11",
      "SpacingBetweenSlices": 2.0000000566005,
      "SpecificCharacterSet": "ISO_IR 100",
      "StudyID": "2",
      "StudyTime": "093114.355000",
      "TransmitCoilName": "Body",
      "VariableFlipAngleFlag": "N",
      "WindowCenterWidthExplanation": "Algo1",
      "dBdt": 0.0},
    "slices": {}
  },
  "time": {
    "samples": {
      "AcquisitionNumber": [1, 2, 3, 4, 5, 6, 7, 8, 9, 10, 11, 12, 13, 14, 15, 16, 17, 18, 19, 20, 21, 22, 23, 24, 25, 26, 27, 28, 29, 30, 31, 32, 33, 34, 35, 36, 37, 38, 39, 40, 41, 42, 43, 44, 45, 46, 47, 48, 49, 50, 51, 52, 53, 54, 55, 56, 57, 58, 59, 60, 61, 62, 63, 64, 65, 66, 67, 68, 69, 70, 71, 72, 73, 74, 75, 76, 77, 78, 79, 80, 81, 82, 83, 84, 85, 86, 87, 88, 89, 90, 91, 92, 93, 94, 95, 96, 97, 98, 99, 100, 101, 102, 103, 104, 105, 106, 107, 108, 109, 110, 111, 112, 113, 114, 115, 116, 117, 118, 119, 120, 121, 122, 123, 124, 125, 126, 127, 128, 129, 130, 131, 132, 133, 134, 135, 136, 137, 138, 139, 140, 141, 142, 143, 144, 145, 146, 147, 148, 149, 150, 151, 152, 153, 154, 155, 156, 157, 158, 159, 160, 161, 162, 163, 164, 165, 166, 167, 168, 169, 170, 171, 172, 173, 174, 175, 176, 177, 178, 179, 180, 181, 182, 183, 184, 185, 186, 187, 188, 189, 190, 191, 192, 193, 194, 195, 196, 197, 198, 199, 200, 201, 202, 203, 204, 205, 206, 207, 208, 209, 210, 211, 212, 213, 214, 215, 216, 217, 218, 219, 220, 221, 222, 223, 224, 225, 226, 227, 228, 229, 230, 231, 232, 233, 234, 235, 236, 237, 238, 239, 240, 241, 242, 243, 244, 245, 246, 247, 248, 249, 250, 251, 252, 253, 254, 255, 256, 257, 258, 259, 260, 261, 262, 263, 264, 265, 266, 267, 268, 269, 270, 271, 272, 273, 274, 275, 276, 277, 278, 279, 280, 281, 282, 283, 284, 285, 286, 287, 288, 289, 290, 291, 292, 293, 294, 295, 296, 297, 298, 299, 300, 301, 302, 303, 304, 305, 306, 307, 308, 309, 310, 311, 312, 313, 314, 315, 316, 317, 318, 319, 320, 321, 322, 323, 324, 325, 326, 327, 328, 329, 330, 331, 332, 333, 334, 335, 336, 337, 338, 339, 340, 341, 342, 343, 344, 345, 346, 347, 348, 349, 350, 351, 352, 353, 354, 355, 356, 357, 358, 359, 360, 361, 362, 363, 364, 365, 366, 367, 368, 369, 370, 371, 372, 373, 374, 375, 376, 377, 378, 379, 380, 381, 382, 383, 384, 385, 386, 387, 388, 389, 390, 391, 392, 393, 394, 395, 396, 397, 398, 399, 400, 401, 402, 403, 404, 405, 406, 407, 408, 409, 410, 411, 412, 413, 414, 415, 416, 417, 418, 419, 420, 421, 422, 423, 424, 425, 426, 427, 428, 429, 430, 431, 432, 433, 434, 435, 436, 437, 438, 439, 440, 441, 442, 443, 444, 445, 446, 447, 448, 449, 450, 451, 452, 453, 454, 455, 456, 457, 458, 459, 460, 461, 462, 463, 464, 465, 466, 467, 468, 469, 470, 471, 472, 473, 474, 475, 476, 477, 478, 479, 480, 481, 482, 483, 484, 485, 486, 487, 488, 489, 490, 491, 492, 493],
      "AcquisitionTime": ["104213.962500", "104215.452500", "104216.942500", "104218.432500", "104219.922500", "104221.412500", "104222.902500", "104224.392500", "104225.882500", "104227.372500", "104228.862500", "104230.352500", "104231.842500", "104233.332500", "104234.822500", "104236.312500", "104237.802500", "104239.292500", "104240.782500", "104242.272500", "104243.762500", "104245.252500", "104246.742500", "104248.232500", "104249.722500", "104251.212500", "104252.702500", "104254.192500", "104255.682500", "104257.172500", "104258.662500", "104300.152500", "104301.642500", "104303.132500", "104304.622500", "104306.112500", "104307.602500", "104309.092500", "104310.582500", "104312.072500", "104313.562500", "104315.052500", "104316.542500", "104318.032500", "104319.522500", "104321.012500", "104322.502500", "104323.992500", "104325.482500", "104326.972500", "104328.462500", "104329.952500", "104331.442500", "104332.932500", "104334.422500", "104335.912500", "104337.402500", "104338.892500", "104340.382500", "104341.872500", "104343.362500", "104344.852500", "104346.342500", "104347.832500", "104349.322500", "104350.812500", "104352.302500", "104353.792500", "104355.282500", "104356.772500", "104358.262500", "104359.752500", "104401.242500", "104402.732500", "104404.222500", "104405.712500", "104407.202500", "104408.692500", "104410.182500", "104411.672500", "104413.162500", "104414.652500", "104416.142500", "104417.632500", "104419.122500", "104420.612500", "104422.102500", "104423.592500", "104425.082500", "104426.572500", "104428.062500", "104429.552500", "104431.042500", "104432.532500", "104434.022500", "104435.512500", "104437.002500", "104438.492500", "104439.982500", "104441.472500", "104442.962500", "104444.452500", "104445.942500", "104447.432500", "104448.922500", "104450.412500", "104451.902500", "104453.392500", "104454.882500", "104456.372500", "104457.862500", "104459.352500", "104500.842500", "104502.332500", "104503.822500", "104505.312500", "104506.802500", "104508.292500", "104509.782500", "104511.272500", "104512.762500", "104514.252500", "104515.742500", "104517.232500", "104518.722500", "104520.212500", "104521.702500", "104523.192500", "104524.682500", "104526.172500", "104527.662500", "104529.152500", "104530.642500", "104532.132500", "104533.622500", "104535.112500", "104536.602500", "104538.092500", "104539.582500", "104541.072500", "104542.562500", "104544.052500", "104545.542500", "104547.032500", "104548.522500", "104550.012500", "104551.502500", "104552.992500", "104554.482500", "104555.972500", "104557.462500", "104558.952500", "104600.442500", "104601.932500", "104603.422500", "104604.912500", "104606.402500", "104607.892500", "104609.382500", "104610.872500", "104612.362500", "104613.852500", "104615.342500", "104616.832500", "104618.322500", "104619.812500", "104621.302500", "104622.792500", "104624.282500", "104625.772500", "104627.262500", "104628.752500", "104630.242500", "104631.732500", "104633.222500", "104634.712500", "104636.202500", "104637.692500", "104639.182500", "104640.672500", "104642.162500", "104643.652500", "104645.142500", "104646.632500", "104648.122500", "104649.612500", "104651.102500", "104652.592500", "104654.082500", "104655.572500", "104657.062500", "104658.552500", "104700.042500", "104701.532500", "104703.022500", "104704.512500", "104706.002500", "104707.492500", "104708.982500", "104710.472500", "104711.962500", "104713.452500", "104714.942500", "104716.432500", "104717.922500", "104719.412500", "104720.902500", "104722.392500", "104723.882500", "104725.372500", "104726.862500", "104728.352500", "104729.842500", "104731.332500", "104732.822500", "104734.312500", "104735.802500", "104737.292500", "104738.782500", "104740.272500", "104741.762500", "104743.252500", "104744.742500", "104746.232500", "104747.722500", "104749.212500", "104750.702500", "104752.192500", "104753.682500", "104755.172500", "104756.662500", "104758.152500", "104759.642500", "104801.132500", "104802.622500", "104804.112500", "104805.602500", "104807.092500", "104808.582500", "104810.072500", "104811.562500", "104813.052500", "104814.542500", "104816.032500", "104817.522500", "104819.012500", "104820.502500", "104821.992500", "104823.482500", "104824.972500", "104826.462500", "104827.952500", "104829.442500", "104830.932500", "104832.422500", "104833.912500", "104835.402500", "104836.892500", "104838.382500", "104839.872500", "104841.362500", "104842.852500", "104844.342500", "104845.832500", "104847.322500", "104848.812500", "104850.302500", "104851.792500", "104853.282500", "104854.772500", "104856.262500", "104857.752500", "104859.242500", "104900.732500", "104902.222500", "104903.712500", "104905.202500", "104906.692500", "104908.182500", "104909.672500", "104911.162500", "104912.652500", "104914.142500", "104915.632500", "104917.122500", "104918.612500", "104920.102500", "104921.592500", "104923.082500", "104924.572500", "104926.062500", "104927.552500", "104929.042500", "104930.532500", "104932.022500", "104933.512500", "104935.002500", "104936.492500", "104937.982500", "104939.472500", "104940.962500", "104942.452500", "104943.942500", "104945.432500", "104946.922500", "104948.412500", "104949.902500", "104951.392500", "104952.882500", "104954.372500", "104955.862500", "104957.352500", "104958.842500", "105000.332500", "105001.822500", "105003.312500", "105004.802500", "105006.292500", "105007.782500", "105009.272500", "105010.762500", "105012.252500", "105013.742500", "105015.232500", "105016.722500", "105018.212500", "105019.702500", "105021.192500", "105022.682500", "105024.172500", "105025.662500", "105027.152500", "105028.642500", "105030.132500", "105031.622500", "105033.112500", "105034.602500", "105036.092500", "105037.582500", "105039.072500", "105040.562500", "105042.052500", "105043.542500", "105045.032500", "105046.522500", "105048.012500", "105049.502500", "105050.992500", "105052.482500", "105053.972500", "105055.462500", "105056.952500", "105058.442500", "105059.932500", "105101.422500", "105102.912500", "105104.402500", "105105.892500", "105107.382500", "105108.872500", "105110.362500", "105111.852500", "105113.342500", "105114.832500", "105116.322500", "105117.812500", "105119.302500", "105120.792500", "105122.282500", "105123.772500", "105125.262500", "105126.752500", "105128.242500", "105129.732500", "105131.222500", "105132.712500", "105134.202500", "105135.692500", "105137.182500", "105138.672500", "105140.162500", "105141.652500", "105143.142500", "105144.632500", "105146.122500", "105147.612500", "105149.102500", "105150.592500", "105152.082500", "105153.572500", "105155.062500", "105156.552500", "105158.042500", "105159.532500", "105201.022500", "105202.512500", "105204.002500", "105205.492500", "105206.982500", "105208.472500", "105209.962500", "105211.452500", "105212.942500", "105214.432500", "105215.922500", "105217.412500", "105218.902500", "105220.392500", "105221.882500", "105223.372500", "105224.862500", "105226.352500", "105227.842500", "105229.332500", "105230.822500", "105232.312500", "105233.802500", "105235.292500", "105236.782500", "105238.272500", "105239.762500", "105241.252500", "105242.742500", "105244.232500", "105245.722500", "105247.212500", "105248.702500", "105250.192500", "105251.682500", "105253.172500", "105254.662500", "105256.152500", "105257.642500", "105259.132500", "105300.622500", "105302.112500", "105303.602500", "105305.092500", "105306.582500", "105308.072500", "105309.562500", "105311.052500", "105312.542500", "105314.032500", "105315.522500", "105317.012500", "105318.502500", "105319.992500", "105321.482500", "105322.972500", "105324.462500", "105325.952500", "105327.442500", "105328.932500", "105330.422500", "105331.912500", "105333.402500", "105334.892500", "105336.382500", "105337.872500", "105339.362500", "105340.852500", "105342.342500", "105343.832500", "105345.322500", "105346.812500", "105348.302500", "105349.792500", "105351.282500", "105352.772500", "105354.262500", "105355.752500", "105357.242500", "105358.732500", "105400.222500", "105401.712500", "105403.202500", "105404.692500", "105406.182500", "105407.672500", "105409.162500", "105410.652500", "105412.142500", "105413.632500", "105415.122500", "105416.612500", "105418.102500", "105419.592500", "105421.082500", "105422.572500", "105424.062500", "105425.552500", "105427.042500"],
      "ContentTime": ["104333.428000", "104333.431000", "104333.434000", "104333.437000", "104333.440000", "104333.443000", "104333.446000", "104333.449000", "104333.452000", "104333.455000", "104333.457000", "104333.460000", "104333.463000", "104333.466000", "104333.477000", "104333.480000", "104333.485000", "104333.488000", "104333.490000", "104333.493000", "104333.496000", "104333.499000", "104333.502000", "104333.505000", "104353.399000", "104353.402000", "104353.405000", "104353.414000", "104353.417000", "104353.420000", "104353.423000", "104353.426000", "104353.429000", "104353.432000", "104353.435000", "104353.438000", "104353.441000", "104353.444000", "104353.446000", "104353.449000", "104353.452000", "104353.455000", "104353.458000", "104353.461000", "104413.399000", "104413.402000", "104413.405000", "104413.408000", "104413.411000", "104413.414000", "104413.417000", "104413.420000", "104413.422000", "104413.425000", "104413.428000", "104413.431000", "104413.434000", "104413.437000", "104413.440000", "104413.442000", "104413.446000", "104413.449000", "104413.453000", "104413.457000", "104433.399000", "104433.402000", "104433.405000", "104433.408000", "104433.411000", "104433.414000", "104433.417000", "104433.420000", "104433.422000", "104433.425000", "104433.428000", "104433.431000", "104433.434000", "104433.437000", "104433.440000", "104433.443000", "104433.446000", "104433.449000", "104433.452000", "104433.455000", "104433.458000", "104453.399000", "104453.402000", "104453.405000", "104453.408000", "104453.411000", "104453.414000", "104453.417000", "104453.420000", "104453.423000", "104453.426000", "104453.429000", "104453.431000", "104453.434000", "104453.437000", "104453.440000", "104453.443000", "104453.446000", "104453.449000", "104453.452000", "104453.455000", "104533.398000", "104533.401000", "104533.404000", "104533.407000", "104533.410000", "104533.413000", "104533.416000", "104533.419000", "104533.422000", "104533.425000", "104533.428000", "104533.431000", "104533.433000", "104533.446000", "104533.448000", "104533.451000", "104533.454000", "104533.457000", "104533.460000", "104533.463000", "104533.466000", "104533.469000", "104533.472000", "104533.475000", "104533.492000", "104533.499000", "104533.502000", "104533.505000", "104553.398000", "104553.401000", "104553.404000", "104553.407000", "104553.410000", "104553.413000", "104553.416000", "104553.419000", "104553.422000", "104553.425000", "104553.427000", "104553.430000", "104553.433000", "104633.399000", "104633.402000", "104633.405000", "104633.408000", "104633.411000", "104633.414000", "104633.417000", "104633.420000", "104633.423000", "104633.425000", "104633.428000", "104633.431000", "104633.434000", "104633.437000", "104633.440000", "104633.443000", "104633.446000", "104633.449000", "104633.452000", "104633.455000", "104633.458000", "104633.461000", "104633.463000", "104633.466000", "104633.469000", "104633.472000", "104633.475000", "104713.399000", "104713.402000", "104713.405000", "104713.408000", "104713.411000", "104713.414000", "104713.417000", "104713.420000", "104713.423000", "104713.426000", "104713.428000", "104713.432000", "104713.434000", "104713.437000", "104713.440000", "104713.443000", "104713.446000", "104713.449000", "104713.452000", "104713.455000", "104713.458000", "104713.461000", "104713.464000", "104713.467000", "104713.470000", "104713.472000", "104713.475000", "104753.398000", "104753.401000", "104753.412000", "104753.415000", "104753.418000", "104753.421000", "104753.424000", "104753.427000", "104753.430000", "104753.433000", "104753.436000", "104753.439000", "104753.442000", "104753.444000", "104753.448000", "104753.450000", "104753.453000", "104753.456000", "104753.459000", "104753.462000", "104753.465000", "104753.468000", "104753.471000", "104753.474000", "104753.476000", "104753.479000", "104753.482000", "104833.399000", "104833.402000", "104833.405000", "104833.408000", "104833.411000", "104833.414000", "104833.417000", "104833.420000", "104833.423000", "104833.426000", "104833.429000", "104833.432000", "104833.434000", "104833.438000", "104833.440000", "104833.443000", "104833.446000", "104833.449000", "104833.452000", "104833.455000", "104833.458000", "104833.461000", "104833.464000", "104833.467000", "104833.470000", "104833.473000", "104833.475000", "104913.399000", "104913.402000", "104913.405000", "104913.408000", "104913.411000", "104913.414000", "104913.417000", "104913.420000", "104913.423000", "104913.426000", "104913.429000", "104913.432000", "104913.435000", "104913.438000", "104913.441000", "104913.443000", "104913.446000", "104913.449000", "104913.452000", "104913.455000", "104913.458000", "104913.461000", "104913.464000", "104913.467000", "104913.470000", "104913.473000", "104953.398000", "104953.401000", "104953.404000", "104953.407000", "104953.410000", "104953.413000", "104953.416000", "104953.419000", "104953.422000", "104953.425000", "104953.428000", "104953.430000", "104953.433000", "104953.436000", "104953.439000", "104953.442000", "104953.445000", "104953.448000", "104953.451000", "104953.454000", "104953.457000", "104953.460000", "104953.463000", "104953.466000", "104953.468000", "104953.471000", "104953.474000", "105033.398000", "105033.401000", "105033.404000", "105033.407000", "105033.410000", "105033.413000", "105033.430000", "105033.434000", "105033.437000", "105033.440000", "105033.443000", "105033.445000", "105033.448000", "105033.451000", "105033.454000", "105033.457000", "105033.460000", "105033.463000", "105033.466000", "105033.469000", "105033.472000", "105033.475000", "105033.478000", "105033.481000", "105033.484000", "105033.487000", "105033.490000", "105113.399000", "105113.402000", "105113.405000", "105113.408000", "105113.411000", "105113.414000", "105113.417000", "105113.420000", "105113.423000", "105113.426000", "105113.429000", "105113.431000", "105113.435000", "105113.437000", "105113.440000", "105113.443000", "105113.446000", "105113.449000", "105113.452000", "105113.455000", "105113.458000", "105113.461000", "105113.464000", "105113.467000", "105113.470000", "105113.472000", "105113.475000", "105153.399000", "105153.402000", "105153.405000", "105153.408000", "105153.411000", "105153.414000", "105153.417000", "105153.420000", "105153.423000", "105153.426000", "105153.429000", "105153.432000", "105153.435000", "105153.438000", "105153.440000", "105153.444000", "105153.447000", "105153.450000", "105153.453000", "105153.456000", "105153.459000", "105153.461000", "105153.464000", "105153.467000", "105153.470000", "105153.473000", "105153.476000", "105233.398000", "105233.401000", "105233.404000", "105233.407000", "105233.410000", "105233.413000", "105233.416000", "105233.419000", "105233.422000", "105233.425000", "105233.428000", "105233.438000", "105233.441000", "105233.444000", "105233.447000", "105233.450000", "105233.453000", "105233.456000", "105233.459000", "105233.462000", "105233.465000", "105233.467000", "105233.471000", "105233.473000", "105233.476000", "105233.479000", "105233.482000", "105313.399000", "105313.402000", "105313.405000", "105313.409000", "105313.413000", "105313.416000", "105313.419000", "105313.422000", "105313.425000", "105313.428000", "105313.432000", "105313.435000", "105313.438000", "105313.441000", "105313.444000", "105313.447000", "105313.450000", "105313.453000", "105313.456000", "105313.459000", "105313.462000", "105313.465000", "105313.468000", "105313.471000", "105313.473000", "105313.476000", "105353.399000", "105353.402000", "105353.405000", "105353.408000", "105353.411000", "105353.414000", "105353.417000", "105353.420000", "105353.423000", "105353.425000", "105353.428000", "105353.431000", "105353.434000", "105353.437000", "105353.440000", "105353.443000", "105353.446000", "105353.449000", "105353.452000", "105353.455000", "105353.458000", "105353.461000", "105353.464000", "105353.466000", "105353.469000", "105353.472000", "105353.475000", "105429.460000", "105429.463000", "105429.466000", "105429.470000", "105429.473000", "105429.477000", "105429.480000", "105429.484000", "105429.487000", "105429.490000", "105429.494000", "105429.497000", "105429.500000", "105429.504000", "105429.507000", "105429.519000", "105429.523000", "105429.526000", "105429.530000", "105429.533000", "105429.537000", "105429.540000", "105429.544000", "105429.547000", "105429.550000"],
