{
  "AcquisitionMatrixPE": 104,
  "AcquisitionNumber": 1,
  "AcquisitionTime": "10:29:10.427500",
  "BandwidthPerPixelPhaseEncode": 17.17,
  "BaseResolution": 104,
  "BodyPartExamined": "BRAIN",
  "CoilString": "HC1-7;NC1_2",
  "ConsistencyInfo": "N4_VE11C_LATEST_20160120",
  "ConversionSoftware": "dcm2niix",
  "ConversionSoftwareVersion": "v1.0.20190902",
  "DerivedVendorReportedEchoSpacing": 0.000560011,
  "DeviceSerialNumber": "167006",
  "DwellTime": 2.1e-06,
  "EchoTime": 0.037,
  "EchoTrainLength": 104,
  "EffectiveEchoSpacing": 0.000560011,
  "FlipAngle": 52,
  "ImageComments": "Unaliased_MB4_PE3_LB",
  "ImageOrientationPatientDICOM": [0.99408, 0.0893215, 0.0618544, -0.067421, 0.953582, -0.293488],
  "ImageType": [
    "ORIGINAL",
    "PRIMARY",
    "M",
    "MB",
    "ND",
    "MOSAIC"
],
  "ImagingFrequency": 123.259,
  "InPlanePhaseEncodingDirectionDICOM": "COL",
  "InstitutionAddress": "Chemin_Queen-Mary_4565_Montreal_District_CA_H3W_1W5",
  "InstitutionName": "IUGM",
  "InstitutionalDepartmentName": "Department",
  "MRAcquisitionType": "2D",
  "MagneticFieldStrength": 3,
  "Manufacturer": "Siemens",
  "ManufacturersModelName": "Prisma_fit",
  "Modality": "MR",
  "MultibandAccelerationFactor": 4,
  "PartialFourier": 1,
  "PatientPosition": "HFS",
  "PercentPhaseFOV": 100,
  "PhaseEncodingDirection": "j",
  "PhaseEncodingSteps": 104,
  "PhaseResolution": 1,
  "PixelBandwidth": 2290,
  "ProcedureStepDescription": "video_friends",
  "ProtocolName": "func_task-friends-s03e09a",
  "PulseSequenceDetails": "%CustomerSeq%_cmrr_mbep2d_bold",
  "ReceiveCoilActiveElements": "HC1-7;NC1,2",
  "ReceiveCoilName": "HeadNeck_64",
  "ReconMatrixPE": 104,
  "RepetitionTime": 1.49,
  "SAR": 0.0406014,
  "ScanOptions": "FS",
  "ScanningSequence": "EP",
  "SequenceName": "epfid2d1_104",
  "SequenceVariant": "SK_SS",
  "SeriesDescription": "func_task-friends-s03e09a",
  "SeriesNumber": 24,
  "ShimSetting": [637, -7227, -8844, 684, 107, -86, 106, -16],
  "SliceThickness": 2,
  "SliceTiming": [0, 0.785, 0.1, 0.8825, 0.1975, 0.98, 0.295, 1.0775, 0.3925, 1.1775, 0.49, 1.275, 0.59, 1.3725, 0.6875, 0, 0.785, 0.1, 0.8825, 0.1975, 0.98, 0.295, 1.0775, 0.3925, 1.1775, 0.49, 1.275, 0.59, 1.3725, 0.6875, 0, 0.785, 0.1, 0.8825, 0.1975, 0.98, 0.295, 1.0775, 0.3925, 1.1775, 0.49, 1.275, 0.59, 1.3725, 0.6875, 0, 0.785, 0.1, 0.8825, 0.1975, 0.98, 0.295, 1.0775, 0.3925, 1.1775, 0.49, 1.275, 0.59, 1.3725, 0.6875],
  "SoftwareVersions": "syngo_MR_E11",
  "SpacingBetweenSlices": 2,
  "StationName": "MRC35049",
  "TaskName": "s03e09a",
  "TotalReadoutTime": 0.0576811,
  "TxRefAmp": 249.875,
  "WipMemBlock": "f1a4e356-65bd-4af3-b8db-acfb7d163cc5||Sequence: R016 ve11c/master r/e634e98; Dec 19 2017 11:00:25 by eja",
  "dcmmeta_affine": [
    [-1.9881606101989746, -0.13484197854995728, 0.17039620876312256, 105.428466796875],
    [-0.17864304780960083, 1.907164454460144, -0.5751610398292542, -63.11796951293945],
    [0.12370886653661728, 0.5869762897491455, 1.9079190492630005, -65.7474365234375],
    [0.0, 0.0, 0.0, 1.0]
],
  "dcmmeta_reorient_transform": [
    [0.0, -1.0, 0.0, 103.0],
    [1.0, 0.0, 0.0, 0.0],
    [0.0, 0.0, 1.0, 0.0],
    [0.0, 0.0, 0.0, 1.0]
],
  "dcmmeta_shape": [104, 104, 60, 493],
  "dcmmeta_slice_dim": 2,
  "dcmmeta_version": 0.6,
  "global": {
    "const": {
      "AcquisitionMatrix": [104, 0, 0, 104],
      "AngioFlag": "N",
      "BitsAllocated": 16,
      "BitsStored": 16,
      "BodyPartExamined": "BRAIN",
      "Columns": 832,
      "EchoNumbers": 1,
      "EchoTime": 37.0,
      "EchoTrainLength": 104,
      "FlipAngle": 52.0,
      "HighBit": 15,
      "ImageOrientationPatient": [0.99408032559404, 0.08932152728317, 0.06185443420364, -0.0674209896825, 0.95358225264874, -0.2934881557808],
      "ImagePositionPatient": [-766.1477389567, -892.55392753885, 163.34047026513],
      "ImageType": [
        "ORIGINAL",
        "PRIMARY",
        "M",
        "MB",
        "ND",
        "MOSAIC"
],
      "ImagedNucleus": "1H",
      "ImagingFrequency": 123.259093,
      "InPlanePhaseEncodingDirection": "COL",
      "MRAcquisitionType": "2D",
      "MagneticFieldStrength": 3.0,
      "Manufacturer": "SIEMENS",
      "ManufacturerModelName": "Prisma_fit",
      "Modality": "MR",
      "NumberOfAverages": 1.0,
      "NumberOfPhaseEncodingSteps": 104,
      "PercentPhaseFieldOfView": 100.0,
      "PercentSampling": 100.0,
      "PerformedProcedureStepStartTime": "093114.410000",
      "PhotometricInterpretation": "MONOCHROME2",
      "PixelBandwidth": 2290.0,
      "PixelRepresentation": 0,
      "PixelSpacing": [2.0, 2.0],
      "ProtocolName": "func_task-friends-s03e09a",
      "RepetitionTime": 1490.0,
      "Rows": 832,
      "SAR": 0.04060136719703,
      "SamplesPerPixel": 1,
      "ScanOptions": "FS",
      "ScanningSequence": "EP",
      "SequenceName": "epfid2d1_104",
      "SequenceVariant": [
        "SK",
        "SS"
],
      "SeriesDescription": "func_task-friends-s03e09a",
      "SeriesNumber": 24,
      "SeriesTime": "103037.389000",
      "SliceLocation": -35.586591386904,
      "SliceThickness": 2.0,
      "SmallestImagePixelValue": 0,
      "SoftwareVersions": "syngo MR E11",
      "SpacingBetweenSlices": 2.0000000566005,
      "SpecificCharacterSet": "ISO_IR 100",
      "StudyID": "2",
      "StudyTime": "093114.355000",
      "TransmitCoilName": "Body",
      "VariableFlipAngleFlag": "N",
      "WindowCenterWidthExplanation": "Algo1",
      "dBdt": 0.0},
    "slices": {}
  },
  "time": {
    "samples": {
      "AcquisitionNumber": [1, 2, 3, 4, 5, 6, 7, 8, 9, 10, 11, 12, 13, 14, 15, 16, 17, 18, 19, 20, 21, 22, 23, 24, 25, 26, 27, 28, 29, 30, 31, 32, 33, 34, 35, 36, 37, 38, 39, 40, 41, 42, 43, 44, 45, 46, 47, 48, 49, 50, 51, 52, 53, 54, 55, 56, 57, 58, 59, 60, 61, 62, 63, 64, 65, 66, 67, 68, 69, 70, 71, 72, 73, 74, 75, 76, 77, 78, 79, 80, 81, 82, 83, 84, 85, 86, 87, 88, 89, 90, 91, 92, 93, 94, 95, 96, 97, 98, 99, 100, 101, 102, 103, 104, 105, 106, 107, 108, 109, 110, 111, 112, 113, 114, 115, 116, 117, 118, 119, 120, 121, 122, 123, 124, 125, 126, 127, 128, 129, 130, 131, 132, 133, 134, 135, 136, 137, 138, 139, 140, 141, 142, 143, 144, 145, 146, 147, 148, 149, 150, 151, 152, 153, 154, 155, 156, 157, 158, 159, 160, 161, 162, 163, 164, 165, 166, 167, 168, 169, 170, 171, 172, 173, 174, 175, 176, 177, 178, 179, 180, 181, 182, 183, 184, 185, 186, 187, 188, 189, 190, 191, 192, 193, 194, 195, 196, 197, 198, 199, 200, 201, 202, 203, 204, 205, 206, 207, 208, 209, 210, 211, 212, 213, 214, 215, 216, 217, 218, 219, 220, 221, 222, 223, 224, 225, 226, 227, 228, 229, 230, 231, 232, 233, 234, 235, 236, 237, 238, 239, 240, 241, 242, 243, 244, 245, 246, 247, 248, 249, 250, 251, 252, 253, 254, 255, 256, 257, 258, 259, 260, 261, 262, 263, 264, 265, 266, 267, 268, 269, 270, 271, 272, 273, 274, 275, 276, 277, 278, 279, 280, 281, 282, 283, 284, 285, 286, 287, 288, 289, 290, 291, 292, 293, 294, 295, 296, 297, 298, 299, 300, 301, 302, 303, 304, 305, 306, 307, 308, 309, 310, 311, 312, 313, 314, 315, 316, 317, 318, 319, 320, 321, 322, 323, 324, 325, 326, 327, 328, 329, 330, 331, 332, 333, 334, 335, 336, 337, 338, 339, 340, 341, 342, 343, 344, 345, 346, 347, 348, 349, 350, 351, 352, 353, 354, 355, 356, 357, 358, 359, 360, 361, 362, 363, 364, 365, 366, 367, 368, 369, 370, 371, 372, 373, 374, 375, 376, 377, 378, 379, 380, 381, 382, 383, 384, 385, 386, 387, 388, 389, 390, 391, 392, 393, 394, 395, 396, 397, 398, 399, 400, 401, 402, 403, 404, 405, 406, 407, 408, 409, 410, 411, 412, 413, 414, 415, 416, 417, 418, 419, 420, 421, 422, 423, 424, 425, 426, 427, 428, 429, 430, 431, 432, 433, 434, 435, 436, 437, 438, 439, 440, 441, 442, 443, 444, 445, 446, 447, 448, 449, 450, 451, 452, 453, 454, 455, 456, 457, 458, 459, 460, 461, 462, 463, 464, 465, 466, 467, 468, 469, 470, 471, 472, 473, 474, 475, 476, 477, 478, 479, 480, 481, 482, 483, 484, 485, 486, 487, 488, 489, 490, 491, 492, 493],
      "AcquisitionTime": ["102910.427500", "102911.917500", "102913.407500", "102914.897500", "102916.387500", "102917.877500", "102919.367500", "102920.857500", "102922.347500", "102923.837500", "102925.327500", "102926.817500", "102928.307500", "102929.797500", "102931.287500", "102932.777500", "102934.267500", "102935.757500", "102937.247500", "102938.737500", "102940.227500", "102941.717500", "102943.207500", "102944.697500", "102946.187500", "102947.677500", "102949.167500", "102950.657500", "102952.147500", "102953.637500", "102955.127500", "102956.617500", "102958.107500", "102959.597500", "103001.087500", "103002.577500", "103004.067500", "103005.557500", "103007.047500", "103008.537500", "103010.027500", "103011.517500", "103013.007500", "103014.497500", "103015.987500", "103017.477500", "103018.967500", "103020.457500", "103021.947500", "103023.437500", "103024.927500", "103026.417500", "103027.907500", "103029.397500", "103030.887500", "103032.377500", "103033.867500", "103035.357500", "103036.847500", "103038.337500", "103039.827500", "103041.317500", "103042.807500", "103044.297500", "103045.787500", "103047.277500", "103048.767500", "103050.257500", "103051.747500", "103053.237500", "103054.727500", "103056.217500", "103057.707500", "103059.197500", "103100.687500", "103102.177500", "103103.667500", "103105.157500", "103106.647500", "103108.137500", "103109.627500", "103111.117500", "103112.607500", "103114.097500", "103115.587500", "103117.077500", "103118.567500", "103120.057500", "103121.547500", "103123.037500", "103124.527500", "103126.017500", "103127.507500", "103128.997500", "103130.487500", "103131.977500", "103133.467500", "103134.957500", "103136.447500", "103137.937500", "103139.427500", "103140.917500", "103142.407500", "103143.897500", "103145.387500", "103146.877500", "103148.367500", "103149.857500", "103151.347500", "103152.837500", "103154.327500", "103155.817500", "103157.307500", "103158.797500", "103200.287500", "103201.777500", "103203.267500", "103204.757500", "103206.247500", "103207.737500", "103209.227500", "103210.717500", "103212.207500", "103213.697500", "103215.187500", "103216.677500", "103218.167500", "103219.657500", "103221.147500", "103222.637500", "103224.127500", "103225.617500", "103227.107500", "103228.597500", "103230.087500", "103231.577500", "103233.067500", "103234.557500", "103236.047500", "103237.537500", "103239.027500", "103240.517500", "103242.007500", "103243.497500", "103244.987500", "103246.477500", "103247.967500", "103249.457500", "103250.947500", "103252.437500", "103253.927500", "103255.417500", "103256.907500", "103258.397500", "103259.887500", "103301.377500", "103302.867500", "103304.357500", "103305.847500", "103307.337500", "103308.827500", "103310.317500", "103311.807500", "103313.297500", "103314.787500", "103316.277500", "103317.767500", "103319.257500", "103320.747500", "103322.237500", "103323.727500", "103325.217500", "103326.707500", "103328.197500", "103329.687500", "103331.177500", "103332.667500", "103334.157500", "103335.647500", "103337.137500", "103338.627500", "103340.117500", "103341.607500", "103343.097500", "103344.587500", "103346.077500", "103347.567500", "103349.057500", "103350.547500", "103352.037500", "103353.527500", "103355.017500", "103356.507500", "103357.997500", "103359.487500", "103400.977500", "103402.467500", "103403.957500", "103405.447500", "103406.937500", "103408.427500", "103409.917500", "103411.407500", "103412.897500", "103414.387500", "103415.877500", "103417.367500", "103418.857500", "103420.347500", "103421.837500", "103423.327500", "103424.817500", "103426.307500", "103427.797500", "103429.287500", "103430.777500", "103432.267500", "103433.757500", "103435.247500", "103436.737500", "103438.227500", "103439.717500", "103441.207500", "103442.697500", "103444.187500", "103445.677500", "103447.167500", "103448.657500", "103450.147500", "103451.637500", "103453.127500", "103454.617500", "103456.107500", "103457.597500", "103459.087500", "103500.577500", "103502.067500", "103503.557500", "103505.047500", "103506.537500", "103508.027500", "103509.517500", "103511.007500", "103512.497500", "103513.987500", "103515.477500", "103516.967500", "103518.457500", "103519.947500", "103521.437500", "103522.927500", "103524.417500", "103525.907500", "103527.397500", "103528.887500", "103530.377500", "103531.867500", "103533.357500", "103534.847500", "103536.337500", "103537.827500", "103539.317500", "103540.807500", "103542.297500", "103543.787500", "103545.277500", "103546.767500", "103548.257500", "103549.747500", "103551.237500", "103552.727500", "103554.217500", "103555.707500", "103557.197500", "103558.687500", "103600.177500", "103601.667500", "103603.157500", "103604.647500", "103606.137500", "103607.627500", "103609.117500", "103610.607500", "103612.097500", "103613.587500", "103615.077500", "103616.567500", "103618.057500", "103619.547500", "103621.037500", "103622.527500", "103624.017500", "103625.507500", "103626.997500", "103628.487500", "103629.977500", "103631.467500", "103632.957500", "103634.447500", "103635.937500", "103637.427500", "103638.917500", "103640.407500", "103641.897500", "103643.387500", "103644.877500", "103646.367500", "103647.857500", "103649.347500", "103650.837500", "103652.327500", "103653.817500", "103655.307500", "103656.797500", "103658.287500", "103659.777500", "103701.267500", "103702.757500", "103704.247500", "103705.737500", "103707.227500", "103708.717500", "103710.207500", "103711.697500", "103713.187500", "103714.677500", "103716.167500", "103717.657500", "103719.147500", "103720.637500", "103722.127500", "103723.617500", "103725.107500", "103726.597500", "103728.087500", "103729.577500", "103731.067500", "103732.557500", "103734.047500", "103735.537500", "103737.027500", "103738.517500", "103740.007500", "103741.497500", "103742.987500", "103744.477500", "103745.967500", "103747.457500", "103748.947500", "103750.437500", "103751.927500", "103753.417500", "103754.907500", "103756.397500", "103757.887500", "103759.377500", "103800.867500", "103802.357500", "103803.847500", "103805.337500", "103806.827500", "103808.317500", "103809.807500", "103811.297500", "103812.787500", "103814.277500", "103815.767500", "103817.257500", "103818.747500", "103820.237500", "103821.727500", "103823.217500", "103824.707500", "103826.197500", "103827.687500", "103829.177500", "103830.667500", "103832.157500", "103833.647500", "103835.137500", "103836.627500", "103838.117500", "103839.607500", "103841.097500", "103842.587500", "103844.077500", "103845.567500", "103847.057500", "103848.547500", "103850.037500", "103851.527500", "103853.017500", "103854.507500", "103855.997500", "103857.487500", "103858.977500", "103900.467500", "103901.957500", "103903.447500", "103904.937500", "103906.427500", "103907.917500", "103909.407500", "103910.897500", "103912.387500", "103913.877500", "103915.367500", "103916.857500", "103918.347500", "103919.837500", "103921.327500", "103922.817500", "103924.307500", "103925.797500", "103927.287500", "103928.777500", "103930.267500", "103931.757500", "103933.247500", "103934.737500", "103936.227500", "103937.717500", "103939.207500", "103940.697500", "103942.187500", "103943.677500", "103945.167500", "103946.657500", "103948.147500", "103949.637500", "103951.127500", "103952.617500", "103954.107500", "103955.597500", "103957.087500", "103958.577500", "104000.067500", "104001.557500", "104003.047500", "104004.537500", "104006.027500", "104007.517500", "104009.007500", "104010.497500", "104011.987500", "104013.477500", "104014.967500", "104016.457500", "104017.947500", "104019.437500", "104020.927500", "104022.417500", "104023.907500", "104025.397500", "104026.887500", "104028.377500", "104029.867500", "104031.357500", "104032.847500", "104034.337500", "104035.827500", "104037.317500", "104038.807500", "104040.297500", "104041.787500", "104043.277500", "104044.767500", "104046.257500", "104047.747500", "104049.237500", "104050.727500", "104052.217500", "104053.707500", "104055.197500", "104056.687500", "104058.177500", "104059.667500", "104101.157500", "104102.647500", "104104.137500", "104105.627500", "104107.117500", "104108.607500", "104110.097500", "104111.587500", "104113.077500", "104114.567500", "104116.057500", "104117.547500", "104119.037500", "104120.527500", "104122.017500", "104123.507500"],
      "ContentTime": ["103037.391000", "103037.404000", "103037.407000", "103037.410000", "103037.413000", "103037.416000", "103037.419000", "103037.422000", "103037.429000", "103037.432000", "103037.435000", "103037.438000", "103037.441000", "103037.444000", "103037.447000", "103037.450000", "103037.453000", "103037.455000", "103037.458000", "103037.461000", "103037.464000", "103037.467000", "103037.470000", "103037.473000", "103037.476000", "103037.479000", "103037.482000", "103037.485000", "103037.489000", "103057.364000", "103057.367000", "103057.370000", "103057.373000", "103057.376000", "103057.379000", "103057.382000", "103057.385000", "103057.388000", "103057.390000", "103057.393000", "103057.396000", "103057.399000", "103057.402000", "103057.405000", "103057.408000", "103057.411000", "103057.414000", "103057.417000", "103057.419000", "103117.364000", "103117.367000", "103117.370000", "103117.373000", "103117.376000", "103117.378000", "103117.381000", "103117.384000", "103117.387000", "103117.390000", "103117.393000", "103117.396000", "103117.399000", "103117.402000", "103117.405000", "103117.407000", "103117.410000", "103117.413000", "103117.416000", "103117.419000", "103137.364000", "103137.367000", "103137.371000", "103137.374000", "103137.377000", "103137.379000", "103137.391000", "103137.394000", "103137.401000", "103137.404000", "103137.407000", "103137.410000", "103137.413000", "103137.416000", "103137.419000", "103137.422000", "103137.425000", "103137.427000", "103137.430000", "103137.433000", "103157.365000", "103157.368000", "103157.371000", "103157.374000", "103157.377000", "103157.380000", "103157.383000", "103157.385000", "103157.388000", "103157.391000", "103157.394000", "103157.397000", "103157.400000", "103157.403000", "103157.405000", "103157.408000", "103157.411000", "103157.414000", "103157.417000", "103157.420000", "103157.423000", "103237.364000", "103237.367000", "103237.370000", "103237.373000", "103237.376000", "103237.379000", "103237.382000", "103237.385000", "103237.387000", "103237.390000", "103237.393000", "103237.396000", "103237.400000", "103237.403000", "103237.406000", "103237.409000", "103237.412000", "103237.415000", "103237.418000", "103237.421000", "103237.424000", "103237.426000", "103237.429000", "103237.432000", "103237.435000", "103237.438000", "103237.441000", "103237.444000", "103317.364000", "103317.367000", "103317.370000", "103317.373000", "103317.376000", "103317.379000", "103317.382000", "103317.385000", "103317.388000", "103317.391000", "103317.394000", "103317.396000", "103317.399000", "103317.402000", "103317.405000", "103317.408000", "103317.411000", "103317.414000", "103317.417000", "103317.420000", "103317.422000", "103317.425000", "103317.428000", "103317.431000", "103317.434000", "103317.437000", "103317.440000", "103357.364000", "103357.367000", "103357.370000", "103357.373000", "103357.376000", "103357.379000", "103357.382000", "103357.385000", "103357.388000", "103357.391000", "103357.394000", "103357.396000", "103357.399000", "103357.402000", "103357.405000", "103357.408000", "103357.411000", "103357.414000", "103357.417000", "103357.420000", "103357.423000", "103357.426000", "103357.429000", "103357.432000", "103357.436000", "103357.439000", "103437.364000", "103437.367000", "103437.370000", "103437.373000", "103437.376000", "103437.379000", "103437.382000", "103437.385000", "103437.387000", "103437.390000", "103437.393000", "103437.396000", "103437.399000", "103437.402000", "103437.405000", "103437.408000", "103437.411000", "103437.414000", "103437.417000", "103437.420000", "103437.423000", "103437.425000", "103437.428000", "103437.431000", "103437.434000", "103437.437000", "103437.440000", "103517.364000", "103517.367000", "103517.370000", "103517.373000", "103517.376000", "103517.379000", "103517.382000", "103517.385000", "103517.388000", "103517.391000", "103517.394000", "103517.396000", "103517.399000", "103517.402000", "103517.405000", "103517.408000", "103517.411000", "103517.414000", "103517.417000", "103517.420000", "103517.423000", "103517.426000", "103517.429000", "103517.431000", "103517.434000", "103517.437000", "103517.440000", "103557.364000", "103557.367000", "103557.370000", "103557.373000", "103557.376000", "103557.379000", "103557.382000", "103557.385000", "103557.388000", "103557.390000", "103557.393000", "103557.396000", "103557.399000", "103557.402000", "103557.405000", "103557.408000", "103557.411000", "103557.414000", "103557.417000", "103557.420000", "103557.423000", "103557.425000", "103557.428000", "103557.431000", "103557.434000", "103557.437000", "103557.440000", "103637.365000", "103637.368000", "103637.378000", "103637.381000", "103637.384000", "103637.387000", "103637.390000", "103637.393000", "103637.396000", "103637.399000", "103637.402000", "103637.405000", "103637.408000", "103637.410000", "103637.413000", "103637.417000", "103637.419000", "103637.422000", "103637.425000", "103637.428000", "103637.431000", "103637.434000", "103637.437000", "103637.440000", "103637.443000", "103637.446000", "103637.448000", "103717.364000", "103717.367000", "103717.370000", "103717.373000", "103717.376000", "103717.379000", "103717.382000", "103717.385000", "103717.388000", "103717.390000", "103717.393000", "103717.396000", "103717.400000", "103717.402000", "103717.406000", "103717.408000", "103717.411000", "103717.414000", "103717.417000", "103717.420000", "103717.423000", "103717.426000", "103717.429000", "103717.432000", "103717.435000", "103717.437000", "103717.440000", "103757.364000", "103757.367000", "103757.370000", "103757.373000", "103757.376000", "103757.379000", "103757.382000", "103757.385000", "103757.388000", "103757.391000", "103757.394000", "103757.397000", "103757.400000", "103757.403000", "103757.406000", "103757.408000", "103757.411000", "103757.414000", "103757.417000", "103757.420000", "103757.423000", "103757.426000", "103757.429000", "103757.432000", "103757.435000", "103757.438000", "103757.441000", "103837.365000", "103837.368000", "103837.381000", "103837.384000", "103837.386000", "103837.389000", "103837.393000", "103837.395000", "103837.398000", "103837.401000", "103837.404000", "103837.407000", "103837.410000", "103837.413000", "103837.416000", "103837.419000", "103837.423000", "103837.426000", "103837.429000", "103837.432000", "103837.435000", "103837.437000", "103837.440000", "103837.443000", "103837.446000", "103837.449000", "103917.364000", "103917.367000", "103917.370000", "103917.373000", "103917.376000", "103917.379000", "103917.382000", "103917.385000", "103917.388000", "103917.391000", "103917.394000", "103917.397000", "103917.399000", "103917.402000", "103917.405000", "103917.408000", "103917.411000", "103917.414000", "103917.417000", "103917.420000", "103917.423000", "103917.426000", "103917.429000", "103917.432000", "103917.435000", "103917.438000", "103917.441000", "103957.364000", "103957.367000", "103957.370000", "103957.373000", "103957.376000", "103957.379000", "103957.382000", "103957.385000", "103957.388000", "103957.391000", "103957.394000", "103957.397000", "103957.400000", "103957.403000", "103957.406000", "103957.409000", "103957.411000", "103957.414000", "103957.417000", "103957.420000", "103957.423000", "103957.426000", "103957.429000", "103957.432000", "103957.435000", "103957.438000", "103957.441000", "104037.364000", "104037.367000", "104037.370000", "104037.373000", "104037.376000", "104037.379000", "104037.382000", "104037.385000", "104037.388000", "104037.391000", "104037.394000", "104037.410000", "104037.413000", "104037.416000", "104037.419000", "104037.422000", "104037.425000", "104037.428000", "104037.431000", "104037.434000", "104037.437000", "104037.440000", "104037.443000", "104037.446000", "104037.449000", "104037.452000", "104037.454000", "104117.365000", "104117.368000", "104117.371000", "104117.374000", "104117.377000", "104117.380000", "104117.383000", "104117.386000", "104117.389000", "104117.392000", "104117.395000", "104117.398000", "104117.401000", "104117.404000", "104117.406000", "104117.410000", "104117.412000", "104117.415000", "104117.418000", "104117.421000", "104117.424000", "104117.427000", "104117.430000", "104117.433000", "104117.436000", "104117.439000", "104117.442000", "104125.988000", "104125.992000", "104125.994000", "104125.998000", "104126.016000", "104126.019000"],
