{
  "AcquisitionMatrixPE": 104,
  "AcquisitionNumber": 1,
  "AcquisitionTime": "11:08:46.030000",
  "BandwidthPerPixelPhaseEncode": 17.17,
  "BaseResolution": 104,
  "BodyPartExamined": "BRAIN",
  "CoilString": "HC1-7;NC1_2",
  "ConsistencyInfo": "N4_VE11C_LATEST_20160120",
  "ConversionSoftware": "dcm2niix",
  "ConversionSoftwareVersion": "v1.0.20190902",
  "DerivedVendorReportedEchoSpacing": 0.000560011,
  "DeviceSerialNumber": "167006",
  "DwellTime": 2.1e-06,
  "EchoTime": 0.037,
  "EchoTrainLength": 104,
  "EffectiveEchoSpacing": 0.000560011,
  "FlipAngle": 52,
  "ImageComments": "Unaliased_MB4_PE3_LB",
  "ImageOrientationPatientDICOM": [0.998272, -0.0270468, -0.0521587, 0.0141136, 0.972139, -0.233979],
  "ImageType": [
    "ORIGINAL",
    "PRIMARY",
    "M",
    "MB",
    "ND",
    "MOSAIC"
],
  "ImagingFrequency": 123.259,
  "InPlanePhaseEncodingDirectionDICOM": "COL",
  "InstitutionAddress": "Chemin_Queen-Mary_4565_Montreal_District_CA_H3W_1W5",
  "InstitutionName": "IUGM",
  "InstitutionalDepartmentName": "Department",
  "MRAcquisitionType": "2D",
  "MagneticFieldStrength": 3,
  "Manufacturer": "Siemens",
  "ManufacturersModelName": "Prisma_fit",
  "Modality": "MR",
  "MultibandAccelerationFactor": 4,
  "PartialFourier": 1,
  "PatientPosition": "HFS",
  "PercentPhaseFOV": 100,
  "PhaseEncodingDirection": "j",
  "PhaseEncodingSteps": 104,
  "PhaseResolution": 1,
  "PixelBandwidth": 2290,
  "ProcedureStepDescription": "video_friends",
  "ProtocolName": "func_task-friends-s04e01a",
  "PulseSequenceDetails": "%CustomerSeq%_cmrr_mbep2d_bold",
  "ReceiveCoilActiveElements": "HC1-7;NC1,2",
  "ReceiveCoilName": "HeadNeck_64",
  "ReconMatrixPE": 104,
  "RepetitionTime": 1.49,
  "SAR": 0.0304982,
  "ScanOptions": "FS",
  "ScanningSequence": "EP",
  "SequenceName": "epfid2d1_104",
  "SequenceVariant": "SK_SS",
  "SeriesDescription": "func_task-friends-s04e01a",
  "SeriesNumber": 34,
  "ShimSetting": [602, -7254, -8842, 574, -73, -296, 0, 47],
  "SliceThickness": 2,
  "SliceTiming": [0, 0.7825, 0.0975, 0.88, 0.195, 0.98, 0.2925, 1.0775, 0.39, 1.175, 0.49, 1.2725, 0.5875, 1.37, 0.685, 0, 0.7825, 0.0975, 0.88, 0.195, 0.98, 0.2925, 1.0775, 0.39, 1.175, 0.49, 1.2725, 0.5875, 1.37, 0.685, 0, 0.7825, 0.0975, 0.88, 0.195, 0.98, 0.2925, 1.0775, 0.39, 1.175, 0.49, 1.2725, 0.5875, 1.37, 0.685, 0, 0.7825, 0.0975, 0.88, 0.195, 0.98, 0.2925, 1.0775, 0.39, 1.175, 0.49, 1.2725, 0.5875, 1.37, 0.685],
  "SoftwareVersions": "syngo_MR_E11",
  "SpacingBetweenSlices": 2,
  "StationName": "MRC35049",
  "TaskName": "s04e01a",
  "TotalReadoutTime": 0.0576811,
  "TxRefAmp": 219.144,
  "WipMemBlock": "d6c8016d-ed1e-4592-b7d8-4d3c8234116e||Sequence: R016 ve11c/master r/e634e98; Dec 19 2017 11:00:25 by eja",
  "dcmmeta_affine": [
    [-1.9965449571609497, 0.028227288275957108, -0.11406774073839188, 99.85115051269531],
    [0.05409364774823189, 1.944278597831726, -0.4656766951084137, -85.41253662109375],
    [-0.10431733727455139, 0.46795740723609924, 1.941683292388916, -50.85453796386719],
    [0.0, 0.0, 0.0, 1.0]
],
  "dcmmeta_reorient_transform": [
    [0.0, -1.0, 0.0, 103.0],
    [1.0, 0.0, 0.0, 0.0],
    [0.0, 0.0, 1.0, 0.0],
    [0.0, 0.0, 0.0, 1.0]
],
  "dcmmeta_shape": [104, 104, 60, 468],
  "dcmmeta_slice_dim": 2,
  "dcmmeta_version": 0.6,
  "global": {
    "const": {
      "AcquisitionMatrix": [104, 0, 0, 104],
      "AngioFlag": "N",
      "BitsAllocated": 16,
      "BitsStored": 16,
      "BodyPartExamined": "BRAIN",
      "Columns": 832,
      "EchoNumbers": 1,
      "EchoTime": 37.0,
      "EchoTrainLength": 104,
      "FlipAngle": 52.0,
      "HighBit": 15,
      "ImageOrientationPatient": [0.99827247918707, -0.0270468233506, -0.0521586679694, 0.01411364377357, 0.97213927736969, -0.2339786965828],
      "ImagePositionPatient": [-839.77565702084, -802.87546018079, 205.65307548488],
      "ImageType": [
        "ORIGINAL",
        "PRIMARY",
        "M",
        "MB",
        "ND",
        "MOSAIC"
],
      "ImagedNucleus": "1H",
      "ImagingFrequency": 123.259087,
      "InPlanePhaseEncodingDirection": "COL",
      "MRAcquisitionType": "2D",
      "MagneticFieldStrength": 3.0,
      "Manufacturer": "SIEMENS",
      "ManufacturerModelName": "Prisma_fit",
      "Modality": "MR",
      "NumberOfAverages": 1.0,
      "NumberOfPhaseEncodingSteps": 104,
      "PercentPhaseFieldOfView": 100.0,
      "PercentSampling": 100.0,
      "PerformedProcedureStepStartTime": "085508.704000",
      "PhotometricInterpretation": "MONOCHROME2",
      "PixelBandwidth": 2290.0,
      "PixelRepresentation": 0,
      "PixelSpacing": [2.0, 2.0],
      "ProtocolName": "func_task-friends-s04e01a",
      "RepetitionTime": 1490.0,
      "Rows": 832,
      "SAR": 0.03049823196552,
      "SamplesPerPixel": 1,
      "ScanOptions": "FS",
      "ScanningSequence": "EP",
      "SequenceName": "epfid2d1_104",
      "SequenceVariant": [
        "SK",
        "SS"
],
      "SeriesDescription": "func_task-friends-s04e01a",
      "SeriesNumber": 34,
      "SeriesTime": "111005.774000",
      "SliceLocation": -35.17928489423,
      "SliceThickness": 2.0,
      "SmallestImagePixelValue": 0,
      "SoftwareVersions": "syngo MR E11",
      "SpacingBetweenSlices": 2.0000000655473,
      "SpecificCharacterSet": "ISO_IR 100",
      "StudyID": "1",
      "StudyTime": "085508.580000",
      "TransmitCoilName": "Body",
      "VariableFlipAngleFlag": "N",
      "WindowCenterWidthExplanation": "Algo1",
      "dBdt": 0.0},
    "slices": {}
  },
  "time": {
    "samples": {
      "AcquisitionNumber": [1, 2, 3, 4, 5, 6, 7, 8, 9, 10, 11, 12, 13, 14, 15, 16, 17, 18, 19, 20, 21, 22, 23, 24, 25, 26, 27, 28, 29, 30, 31, 32, 33, 34, 35, 36, 37, 38, 39, 40, 41, 42, 43, 44, 45, 46, 47, 48, 49, 50, 51, 52, 53, 54, 55, 56, 57, 58, 59, 60, 61, 62, 63, 64, 65, 66, 67, 68, 69, 70, 71, 72, 73, 74, 75, 76, 77, 78, 79, 80, 81, 82, 83, 84, 85, 86, 87, 88, 89, 90, 91, 92, 93, 94, 95, 96, 97, 98, 99, 100, 101, 102, 103, 104, 105, 106, 107, 108, 109, 110, 111, 112, 113, 114, 115, 116, 117, 118, 119, 120, 121, 122, 123, 124, 125, 126, 127, 128, 129, 130, 131, 132, 133, 134, 135, 136, 137, 138, 139, 140, 141, 142, 143, 144, 145, 146, 147, 148, 149, 150, 151, 152, 153, 154, 155, 156, 157, 158, 159, 160, 161, 162, 163, 164, 165, 166, 167, 168, 169, 170, 171, 172, 173, 174, 175, 176, 177, 178, 179, 180, 181, 182, 183, 184, 185, 186, 187, 188, 189, 190, 191, 192, 193, 194, 195, 196, 197, 198, 199, 200, 201, 202, 203, 204, 205, 206, 207, 208, 209, 210, 211, 212, 213, 214, 215, 216, 217, 218, 219, 220, 221, 222, 223, 224, 225, 226, 227, 228, 229, 230, 231, 232, 233, 234, 235, 236, 237, 238, 239, 240, 241, 242, 243, 244, 245, 246, 247, 248, 249, 250, 251, 252, 253, 254, 255, 256, 257, 258, 259, 260, 261, 262, 263, 264, 265, 266, 267, 268, 269, 270, 271, 272, 273, 274, 275, 276, 277, 278, 279, 280, 281, 282, 283, 284, 285, 286, 287, 288, 289, 290, 291, 292, 293, 294, 295, 296, 297, 298, 299, 300, 301, 302, 303, 304, 305, 306, 307, 308, 309, 310, 311, 312, 313, 314, 315, 316, 317, 318, 319, 320, 321, 322, 323, 324, 325, 326, 327, 328, 329, 330, 331, 332, 333, 334, 335, 336, 337, 338, 339, 340, 341, 342, 343, 344, 345, 346, 347, 348, 349, 350, 351, 352, 353, 354, 355, 356, 357, 358, 359, 360, 361, 362, 363, 364, 365, 366, 367, 368, 369, 370, 371, 372, 373, 374, 375, 376, 377, 378, 379, 380, 381, 382, 383, 384, 385, 386, 387, 388, 389, 390, 391, 392, 393, 394, 395, 396, 397, 398, 399, 400, 401, 402, 403, 404, 405, 406, 407, 408, 409, 410, 411, 412, 413, 414, 415, 416, 417, 418, 419, 420, 421, 422, 423, 424, 425, 426, 427, 428, 429, 430, 431, 432, 433, 434, 435, 436, 437, 438, 439, 440, 441, 442, 443, 444, 445, 446, 447, 448, 449, 450, 451, 452, 453, 454, 455, 456, 457, 458, 459, 460, 461, 462, 463, 464, 465, 466, 467, 468],
      "AcquisitionTime": ["110846.030000", "110847.520000", "110849.010000", "110850.500000", "110851.990000", "110853.480000", "110854.970000", "110856.460000", "110857.950000", "110859.440000", "110900.930000", "110902.420000", "110903.910000", "110905.400000", "110906.890000", "110908.380000", "110909.870000", "110911.360000", "110912.850000", "110914.340000", "110915.830000", "110917.320000", "110918.810000", "110920.300000", "110921.790000", "110923.280000", "110924.770000", "110926.260000", "110927.750000", "110929.240000", "110930.730000", "110932.220000", "110933.710000", "110935.200000", "110936.690000", "110938.180000", "110939.670000", "110941.160000", "110942.650000", "110944.140000", "110945.630000", "110947.120000", "110948.610000", "110950.100000", "110951.590000", "110953.080000", "110954.570000", "110956.060000", "110957.550000", "110959.040000", "111000.530000", "111002.020000", "111003.510000", "111005.000000", "111006.490000", "111007.980000", "111009.470000", "111010.960000", "111012.450000", "111013.940000", "111015.430000", "111016.920000", "111018.410000", "111019.900000", "111021.390000", "111022.880000", "111024.370000", "111025.860000", "111027.350000", "111028.840000", "111030.330000", "111031.820000", "111033.310000", "111034.800000", "111036.290000", "111037.780000", "111039.270000", "111040.760000", "111042.250000", "111043.740000", "111045.230000", "111046.720000", "111048.210000", "111049.700000", "111051.190000", "111052.680000", "111054.170000", "111055.660000", "111057.150000", "111058.640000", "111100.130000", "111101.620000", "111103.110000", "111104.600000", "111106.090000", "111107.580000", "111109.070000", "111110.560000", "111112.050000", "111113.540000", "111115.030000", "111116.520000", "111118.010000", "111119.500000", "111120.990000", "111122.480000", "111123.970000", "111125.460000", "111126.950000", "111128.440000", "111129.930000", "111131.420000", "111132.910000", "111134.400000", "111135.890000", "111137.380000", "111138.870000", "111140.360000", "111141.850000", "111143.340000", "111144.830000", "111146.320000", "111147.810000", "111149.300000", "111150.790000", "111152.280000", "111153.770000", "111155.260000", "111156.750000", "111158.240000", "111159.730000", "111201.220000", "111202.710000", "111204.200000", "111205.690000", "111207.180000", "111208.670000", "111210.160000", "111211.650000", "111213.140000", "111214.630000", "111216.120000", "111217.610000", "111219.100000", "111220.590000", "111222.080000", "111223.570000", "111225.060000", "111226.550000", "111228.040000", "111229.530000", "111231.020000", "111232.510000", "111234.000000", "111235.490000", "111236.980000", "111238.470000", "111239.960000", "111241.450000", "111242.940000", "111244.430000", "111245.920000", "111247.410000", "111248.900000", "111250.390000", "111251.880000", "111253.370000", "111254.860000", "111256.350000", "111257.840000", "111259.330000", "111300.820000", "111302.310000", "111303.800000", "111305.290000", "111306.780000", "111308.270000", "111309.760000", "111311.250000", "111312.740000", "111314.230000", "111315.720000", "111317.210000", "111318.700000", "111320.190000", "111321.680000", "111323.170000", "111324.660000", "111326.150000", "111327.640000", "111329.130000", "111330.620000", "111332.110000", "111333.600000", "111335.090000", "111336.580000", "111338.070000", "111339.560000", "111341.050000", "111342.540000", "111344.030000", "111345.520000", "111347.010000", "111348.500000", "111349.990000", "111351.480000", "111352.970000", "111354.460000", "111355.950000", "111357.440000", "111358.930000", "111400.420000", "111401.910000", "111403.400000", "111404.890000", "111406.380000", "111407.870000", "111409.360000", "111410.850000", "111412.340000", "111413.830000", "111415.320000", "111416.810000", "111418.300000", "111419.790000", "111421.280000", "111422.770000", "111424.260000", "111425.750000", "111427.240000", "111428.730000", "111430.220000", "111431.710000", "111433.200000", "111434.690000", "111436.180000", "111437.670000", "111439.160000", "111440.650000", "111442.140000", "111443.630000", "111445.120000", "111446.610000", "111448.100000", "111449.590000", "111451.080000", "111452.570000", "111454.060000", "111455.550000", "111457.040000", "111458.530000", "111500.020000", "111501.510000", "111503.000000", "111504.490000", "111505.980000", "111507.470000", "111508.960000", "111510.450000", "111511.940000", "111513.430000", "111514.920000", "111516.410000", "111517.900000", "111519.390000", "111520.880000", "111522.370000", "111523.860000", "111525.350000", "111526.840000", "111528.330000", "111529.820000", "111531.310000", "111532.800000", "111534.290000", "111535.780000", "111537.270000", "111538.760000", "111540.250000", "111541.740000", "111543.230000", "111544.720000", "111546.210000", "111547.700000", "111549.190000", "111550.680000", "111552.170000", "111553.660000", "111555.150000", "111556.640000", "111558.130000", "111559.620000", "111601.110000", "111602.600000", "111604.090000", "111605.580000", "111607.070000", "111608.560000", "111610.050000", "111611.540000", "111613.030000", "111614.520000", "111616.010000", "111617.500000", "111618.990000", "111620.480000", "111621.970000", "111623.460000", "111624.950000", "111626.440000", "111627.930000", "111629.420000", "111630.910000", "111632.400000", "111633.890000", "111635.380000", "111636.870000", "111638.360000", "111639.850000", "111641.340000", "111642.830000", "111644.320000", "111645.810000", "111647.300000", "111648.790000", "111650.280000", "111651.770000", "111653.260000", "111654.750000", "111656.240000", "111657.730000", "111659.220000", "111700.710000", "111702.200000", "111703.690000", "111705.180000", "111706.670000", "111708.160000", "111709.650000", "111711.140000", "111712.630000", "111714.120000", "111715.610000", "111717.100000", "111718.590000", "111720.080000", "111721.570000", "111723.060000", "111724.550000", "111726.040000", "111727.530000", "111729.020000", "111730.510000", "111732.000000", "111733.490000", "111734.980000", "111736.470000", "111737.960000", "111739.450000", "111740.940000", "111742.430000", "111743.920000", "111745.410000", "111746.900000", "111748.390000", "111749.880000", "111751.370000", "111752.860000", "111754.350000", "111755.840000", "111757.330000", "111758.820000", "111800.310000", "111801.800000", "111803.290000", "111804.780000", "111806.270000", "111807.760000", "111809.250000", "111810.740000", "111812.230000", "111813.720000", "111815.210000", "111816.700000", "111818.190000", "111819.680000", "111821.170000", "111822.660000", "111824.150000", "111825.640000", "111827.130000", "111828.620000", "111830.110000", "111831.600000", "111833.090000", "111834.580000", "111836.070000", "111837.560000", "111839.050000", "111840.540000", "111842.030000", "111843.520000", "111845.010000", "111846.500000", "111847.990000", "111849.480000", "111850.970000", "111852.460000", "111853.950000", "111855.440000", "111856.930000", "111858.420000", "111859.910000", "111901.400000", "111902.890000", "111904.380000", "111905.870000", "111907.360000", "111908.850000", "111910.340000", "111911.830000", "111913.320000", "111914.810000", "111916.300000", "111917.790000", "111919.280000", "111920.770000", "111922.260000", "111923.750000", "111925.240000", "111926.730000", "111928.220000", "111929.710000", "111931.200000", "111932.690000", "111934.180000", "111935.670000", "111937.160000", "111938.650000", "111940.140000", "111941.630000", "111943.120000", "111944.610000", "111946.100000", "111947.590000", "111949.080000", "111950.570000", "111952.060000", "111953.550000", "111955.040000", "111956.530000", "111958.020000", "111959.510000", "112001.000000", "112002.490000", "112003.980000", "112005.470000", "112006.960000", "112008.450000", "112009.940000", "112011.430000", "112012.920000", "112014.410000", "112015.900000", "112017.390000", "112018.880000", "112020.370000", "112021.860000"],
      "ContentTime": ["111005.777000", "111005.780000", "111005.783000", "111005.786000", "111005.789000", "111005.792000", "111005.795000", "111005.798000", "111005.801000", "111005.804000", "111005.807000", "111005.811000", "111005.814000", "111005.818000", "111005.826000", "111005.832000", "111005.835000", "111005.838000", "111005.841000", "111005.843000", "111005.846000", "111005.849000", "111005.852000", "111005.855000", "111025.744000", "111025.747000", "111025.750000", "111025.753000", "111025.756000", "111025.759000", "111025.762000", "111025.765000", "111025.767000", "111025.770000", "111025.773000", "111025.776000", "111025.779000", "111025.782000", "111025.785000", "111025.788000", "111025.791000", "111025.800000", "111025.803000", "111025.806000", "111045.743000", "111045.746000", "111045.749000", "111045.752000", "111045.755000", "111045.758000", "111045.761000", "111045.764000", "111045.766000", "111045.769000", "111045.772000", "111045.775000", "111045.778000", "111045.781000", "111045.784000", "111045.787000", "111045.790000", "111045.793000", "111045.796000", "111045.799000", "111105.743000", "111105.746000", "111105.749000", "111105.752000", "111105.755000", "111105.758000", "111105.761000", "111105.764000", "111105.767000", "111105.770000", "111105.773000", "111105.776000", "111105.778000", "111105.781000", "111105.784000", "111105.787000", "111105.790000", "111105.793000", "111105.796000", "111105.799000", "111125.743000", "111125.746000", "111125.749000", "111125.752000", "111125.755000", "111125.758000", "111125.761000", "111125.764000", "111125.767000", "111125.769000", "111125.772000", "111125.775000", "111125.778000", "111125.781000", "111125.784000", "111125.787000", "111125.790000", "111125.792000", "111125.795000", "111125.798000", "111125.801000", "111205.744000", "111205.747000", "111205.750000", "111205.753000", "111205.756000", "111205.759000", "111205.762000", "111205.764000", "111205.767000", "111205.770000", "111205.773000", "111205.776000", "111205.779000", "111205.782000", "111205.785000", "111205.788000", "111205.798000", "111205.801000", "111205.804000", "111205.807000", "111205.810000", "111205.813000", "111205.816000", "111205.818000", "111205.821000", "111205.824000", "111205.827000", "111205.830000", "111245.744000", "111245.747000", "111245.750000", "111245.753000", "111245.756000", "111245.759000", "111245.762000", "111245.765000", "111245.768000", "111245.771000", "111245.774000", "111245.777000", "111245.780000", "111245.783000", "111245.786000", "111245.789000", "111245.792000", "111245.795000", "111245.797000", "111245.800000", "111245.803000", "111245.806000", "111245.809000", "111245.812000", "111245.825000", "111245.828000", "111245.831000", "111325.743000", "111325.746000", "111325.749000", "111325.752000", "111325.755000", "111325.758000", "111325.761000", "111325.764000", "111325.767000", "111325.784000", "111325.787000", "111325.790000", "111325.793000", "111325.796000", "111325.799000", "111325.802000", "111325.805000", "111325.808000", "111325.811000", "111325.814000", "111325.817000", "111325.820000", "111325.823000", "111325.826000", "111325.828000", "111325.831000", "111325.834000", "111405.744000", "111405.747000", "111405.750000", "111405.753000", "111405.756000", "111405.759000", "111405.762000", "111405.765000", "111405.768000", "111405.771000", "111405.774000", "111405.776000", "111405.779000", "111405.782000", "111405.785000", "111405.788000", "111405.791000", "111405.794000", "111405.797000", "111405.800000", "111405.803000", "111405.806000", "111405.809000", "111405.811000", "111405.814000", "111405.817000", "111405.820000", "111445.744000", "111445.747000", "111445.750000", "111445.753000", "111445.757000", "111445.760000", "111445.763000", "111445.766000", "111445.768000", "111445.771000", "111445.774000", "111445.777000", "111445.780000", "111445.783000", "111445.786000", "111445.789000", "111445.792000", "111445.795000", "111445.798000", "111445.801000", "111445.804000", "111445.807000", "111445.810000", "111445.813000", "111445.816000", "111445.819000", "111525.743000", "111525.746000", "111525.749000", "111525.752000", "111525.755000", "111525.758000", "111525.761000", "111525.764000", "111525.767000", "111525.770000", "111525.773000", "111525.776000", "111525.779000", "111525.782000", "111525.785000", "111525.788000", "111525.791000", "111525.794000", "111525.796000", "111525.799000", "111525.802000", "111525.810000", "111525.813000", "111525.816000", "111525.818000", "111525.821000", "111525.824000", "111605.743000", "111605.746000", "111605.749000", "111605.752000", "111605.755000", "111605.758000", "111605.761000", "111605.764000", "111605.767000", "111605.770000", "111605.773000", "111605.776000", "111605.779000", "111605.782000", "111605.785000", "111605.788000", "111605.791000", "111605.794000", "111605.797000", "111605.800000", "111605.803000", "111605.806000", "111605.808000", "111605.811000", "111605.814000", "111605.817000", "111605.820000", "111645.744000", "111645.747000", "111645.750000", "111645.753000", "111645.756000", "111645.759000", "111645.762000", "111645.765000", "111645.768000", "111645.771000", "111645.774000", "111645.776000", "111645.779000", "111645.782000", "111645.785000", "111645.788000", "111645.791000", "111645.794000", "111645.797000", "111645.800000", "111645.803000", "111645.806000", "111645.809000", "111645.812000", "111645.815000", "111645.817000", "111645.820000", "111725.743000", "111725.746000", "111725.749000", "111725.752000", "111725.755000", "111725.758000", "111725.761000", "111725.764000", "111725.767000", "111725.770000", "111725.773000", "111725.776000", "111725.779000", "111725.782000", "111725.785000", "111725.788000", "111725.791000", "111725.794000", "111725.797000", "111725.799000", "111725.802000", "111725.805000", "111725.808000", "111725.811000", "111725.814000", "111725.817000", "111725.820000", "111805.743000", "111805.746000", "111805.749000", "111805.752000", "111805.755000", "111805.758000", "111805.761000", "111805.764000", "111805.767000", "111805.770000", "111805.773000", "111805.776000", "111805.779000", "111805.782000", "111805.785000", "111805.788000", "111805.790000", "111805.811000", "111805.814000", "111805.817000", "111805.820000", "111805.823000", "111805.826000", "111805.829000", "111805.832000", "111805.835000", "111805.838000", "111845.744000", "111845.747000", "111845.750000", "111845.753000", "111845.756000", "111845.759000", "111845.762000", "111845.765000", "111845.768000", "111845.771000", "111845.774000", "111845.777000", "111845.780000", "111845.783000", "111845.786000", "111845.789000", "111845.792000", "111845.795000", "111845.798000", "111845.801000", "111845.804000", "111845.807000", "111845.810000", "111845.813000", "111845.815000", "111845.818000", "111925.744000", "111925.747000", "111925.750000", "111925.753000", "111925.756000", "111925.759000", "111925.762000", "111925.765000", "111925.768000", "111925.771000", "111925.774000", "111925.777000", "111925.780000", "111925.782000", "111925.785000", "111925.788000", "111925.791000", "111925.794000", "111925.797000", "111925.800000", "111925.803000", "111925.806000", "111925.809000", "111925.812000", "111925.815000", "111925.818000", "111925.821000", "112005.743000", "112005.746000", "112005.749000", "112005.752000", "112005.755000", "112005.758000", "112005.761000", "112005.764000", "112005.767000", "112005.770000", "112005.773000", "112005.776000", "112005.779000", "112005.782000", "112005.784000", "112005.787000", "112005.790000", "112005.793000", "112005.796000", "112005.799000", "112005.802000", "112005.805000", "112005.808000", "112005.811000", "112005.814000", "112005.817000", "112005.820000", "112024.156000", "112024.159000", "112024.162000", "112024.165000", "112024.168000", "112024.171000", "112024.174000", "112024.177000", "112024.180000", "112024.183000", "112024.186000", "112024.189000", "112024.192000"],
