{
  "AcquisitionMatrixPE": 104,
  "AcquisitionNumber": 1,
  "AcquisitionTime": "09:18:6.460000",
  "BandwidthPerPixelPhaseEncode": 17.17,
  "BaseResolution": 104,
  "BodyPartExamined": "BRAIN",
  "CoilString": "HC1-7;NC1_2",
  "ConsistencyInfo": "N4_VE11C_LATEST_20160120",
  "ConversionSoftware": "dcm2niix",
  "ConversionSoftwareVersion": "v1.0.20190902",
  "DerivedVendorReportedEchoSpacing": 0.000560011,
  "DeviceSerialNumber": "167006",
  "DwellTime": 2.1e-06,
  "EchoTime": 0.037,
  "EchoTrainLength": 104,
  "EffectiveEchoSpacing": 0.000560011,
  "FlipAngle": 52,
  "ImageComments": "Unaliased_MB4_PE3_LB",
  "ImageOrientationPatientDICOM": [0.997302, 0.00417262, -0.0732922, -0.0212388, 0.972087, -0.233658],
  "ImageType": [
    "ORIGINAL",
    "PRIMARY",
    "M",
    "MB",
    "ND",
    "MOSAIC"
],
  "ImagingFrequency": 123.259,
  "InPlanePhaseEncodingDirectionDICOM": "COL",
  "InstitutionAddress": "Chemin_Queen-Mary_4565_Montreal_District_CA_H3W_1W5",
  "InstitutionName": "IUGM",
  "InstitutionalDepartmentName": "Department",
  "MRAcquisitionType": "2D",
  "MagneticFieldStrength": 3,
  "Manufacturer": "Siemens",
  "ManufacturersModelName": "Prisma_fit",
  "Modality": "MR",
  "MultibandAccelerationFactor": 4,
  "PartialFourier": 1,
  "PatientPosition": "HFS",
  "PercentPhaseFOV": 100,
  "PhaseEncodingDirection": "j",
  "PhaseEncodingSteps": 104,
  "PhaseResolution": 1,
  "PixelBandwidth": 2290,
  "ProcedureStepDescription": "video_friends",
  "ProtocolName": "func_task-friends-s03e22a",
  "PulseSequenceDetails": "%CustomerSeq%_cmrr_mbep2d_bold",
  "ReceiveCoilActiveElements": "HC1-7;NC1,2",
  "ReceiveCoilName": "HeadNeck_64",
  "ReconMatrixPE": 104,
  "RepetitionTime": 1.49,
  "SAR": 0.0290885,
  "ScanOptions": "FS",
  "ScanningSequence": "EP",
  "SequenceName": "epfid2d1_104",
  "SequenceVariant": "SK_SS",
  "SeriesDescription": "func_task-friends-s03e22a",
  "SeriesNumber": 9,
  "ShimSetting": [600, -7239, -8852, 616, -66, -281, 11, 46],
  "SliceThickness": 2,
  "SliceTiming": [0, 0.7825, 0.0975, 0.8825, 0.195, 0.98, 0.2925, 1.0775, 0.3925, 1.175, 0.49, 1.2725, 0.5875, 1.3725, 0.685, 0, 0.7825, 0.0975, 0.8825, 0.195, 0.98, 0.2925, 1.0775, 0.3925, 1.175, 0.49, 1.2725, 0.5875, 1.3725, 0.685, 0, 0.7825, 0.0975, 0.8825, 0.195, 0.98, 0.2925, 1.0775, 0.3925, 1.175, 0.49, 1.2725, 0.5875, 1.3725, 0.685, 0, 0.7825, 0.0975, 0.8825, 0.195, 0.98, 0.2925, 1.0775, 0.3925, 1.175, 0.49, 1.2725, 0.5875, 1.3725, 0.685],
  "SoftwareVersions": "syngo_MR_E11",
  "SpacingBetweenSlices": 2,
  "StationName": "MRC35049",
  "TaskName": "s03e22a",
  "TotalReadoutTime": 0.0576811,
  "TxRefAmp": 217.663,
  "WipMemBlock": "5b794cda-f7cf-42c3-949a-663f99abeba6||Sequence: R016 ve11c/master r/e634e98; Dec 19 2017 11:00:25 by eja",
  "dcmmeta_affine": [
    [-1.9946035146713257, -0.042477529495954514, -0.14054277539253235, 104.16841125488281],
    [-0.008345238864421844, 1.9441736936569214, -0.4691685736179352, -82.02093505859375],
    [-0.14658433198928833, 0.467316210269928, 1.9391051530838013, -56.864139556884766],
    [0.0, 0.0, 0.0, 1.0]
],
  "dcmmeta_reorient_transform": [
    [0.0, -1.0, 0.0, 103.0],
    [1.0, 0.0, 0.0, 0.0],
    [0.0, 0.0, 1.0, 0.0],
    [0.0, 0.0, 0.0, 1.0]
],
  "dcmmeta_shape": [104, 104, 60, 463],
  "dcmmeta_slice_dim": 2,
  "dcmmeta_version": 0.6,
  "global": {
    "const": {
      "AcquisitionMatrix": [104, 0, 0, 104],
      "AngioFlag": "N",
      "BitsAllocated": 16,
      "BitsStored": 16,
      "BodyPartExamined": "BRAIN",
      "Columns": 832,
      "EchoNumbers": 1,
      "EchoTime": 37.0,
      "EchoTrainLength": 104,
      "FlipAngle": 52.0,
      "HighBit": 15,
      "ImageOrientationPatient": [0.99730178362679, 0.00417261965629, -0.0732921661572, -0.0212387642069, 0.97208682938064, -0.2336581071559],
      "ImagePositionPatient": [-810.36710337052, -828.94582912802, 214.72923079005],
      "ImageType": [
        "ORIGINAL",
        "PRIMARY",
        "M",
        "MB",
        "ND",
        "MOSAIC"
],
      "ImagedNucleus": "1H",
      "ImagingFrequency": 123.259076,
      "InPlanePhaseEncodingDirection": "COL",
      "MRAcquisitionType": "2D",
      "MagneticFieldStrength": 3.0,
      "Manufacturer": "SIEMENS",
      "ManufacturerModelName": "Prisma_fit",
      "Modality": "MR",
      "NumberOfAverages": 1.0,
      "NumberOfPhaseEncodingSteps": 104,
      "PercentPhaseFieldOfView": 100.0,
      "PercentSampling": 100.0,
      "PerformedProcedureStepStartTime": "085508.704000",
      "PhotometricInterpretation": "MONOCHROME2",
      "PixelBandwidth": 2290.0,
      "PixelRepresentation": 0,
      "PixelSpacing": [2.0, 2.0],
      "ProtocolName": "func_task-friends-s03e22a",
      "RepetitionTime": 1490.0,
      "Rows": 832,
      "SAR": 0.02908845875956,
      "SamplesPerPixel": 1,
      "ScanOptions": "FS",
      "ScanningSequence": "EP",
      "SequenceName": "epfid2d1_104",
      "SequenceVariant": [
        "SK",
        "SS"
],
      "SeriesDescription": "func_task-friends-s03e22a",
      "SeriesNumber": 9,
      "SeriesTime": "091935.359000",
      "SliceLocation": -43.212006004442,
      "SliceThickness": 2.0,
      "SmallestImagePixelValue": 0,
      "SoftwareVersions": "syngo MR E11",
      "SpacingBetweenSlices": 2.0000000456127,
      "SpecificCharacterSet": "ISO_IR 100",
      "StudyID": "1",
      "StudyTime": "085508.580000",
      "TransmitCoilName": "Body",
      "VariableFlipAngleFlag": "N",
      "WindowCenterWidthExplanation": "Algo1",
      "dBdt": 0.0},
    "slices": {}
  },
  "time": {
    "samples": {
      "AcquisitionNumber": [1, 2, 3, 4, 5, 6, 7, 8, 9, 10, 11, 12, 13, 14, 15, 16, 17, 18, 19, 20, 21, 22, 23, 24, 25, 26, 27, 28, 29, 30, 31, 32, 33, 34, 35, 36, 37, 38, 39, 40, 41, 42, 43, 44, 45, 46, 47, 48, 49, 50, 51, 52, 53, 54, 55, 56, 57, 58, 59, 60, 61, 62, 63, 64, 65, 66, 67, 68, 69, 70, 71, 72, 73, 74, 75, 76, 77, 78, 79, 80, 81, 82, 83, 84, 85, 86, 87, 88, 89, 90, 91, 92, 93, 94, 95, 96, 97, 98, 99, 100, 101, 102, 103, 104, 105, 106, 107, 108, 109, 110, 111, 112, 113, 114, 115, 116, 117, 118, 119, 120, 121, 122, 123, 124, 125, 126, 127, 128, 129, 130, 131, 132, 133, 134, 135, 136, 137, 138, 139, 140, 141, 142, 143, 144, 145, 146, 147, 148, 149, 150, 151, 152, 153, 154, 155, 156, 157, 158, 159, 160, 161, 162, 163, 164, 165, 166, 167, 168, 169, 170, 171, 172, 173, 174, 175, 176, 177, 178, 179, 180, 181, 182, 183, 184, 185, 186, 187, 188, 189, 190, 191, 192, 193, 194, 195, 196, 197, 198, 199, 200, 201, 202, 203, 204, 205, 206, 207, 208, 209, 210, 211, 212, 213, 214, 215, 216, 217, 218, 219, 220, 221, 222, 223, 224, 225, 226, 227, 228, 229, 230, 231, 232, 233, 234, 235, 236, 237, 238, 239, 240, 241, 242, 243, 244, 245, 246, 247, 248, 249, 250, 251, 252, 253, 254, 255, 256, 257, 258, 259, 260, 261, 262, 263, 264, 265, 266, 267, 268, 269, 270, 271, 272, 273, 274, 275, 276, 277, 278, 279, 280, 281, 282, 283, 284, 285, 286, 287, 288, 289, 290, 291, 292, 293, 294, 295, 296, 297, 298, 299, 300, 301, 302, 303, 304, 305, 306, 307, 308, 309, 310, 311, 312, 313, 314, 315, 316, 317, 318, 319, 320, 321, 322, 323, 324, 325, 326, 327, 328, 329, 330, 331, 332, 333, 334, 335, 336, 337, 338, 339, 340, 341, 342, 343, 344, 345, 346, 347, 348, 349, 350, 351, 352, 353, 354, 355, 356, 357, 358, 359, 360, 361, 362, 363, 364, 365, 366, 367, 368, 369, 370, 371, 372, 373, 374, 375, 376, 377, 378, 379, 380, 381, 382, 383, 384, 385, 386, 387, 388, 389, 390, 391, 392, 393, 394, 395, 396, 397, 398, 399, 400, 401, 402, 403, 404, 405, 406, 407, 408, 409, 410, 411, 412, 413, 414, 415, 416, 417, 418, 419, 420, 421, 422, 423, 424, 425, 426, 427, 428, 429, 430, 431, 432, 433, 434, 435, 436, 437, 438, 439, 440, 441, 442, 443, 444, 445, 446, 447, 448, 449, 450, 451, 452, 453, 454, 455, 456, 457, 458, 459, 460, 461, 462, 463],
      "AcquisitionTime": ["091806.460000", "091807.950000", "091809.440000", "091810.930000", "091812.420000", "091813.910000", "091815.400000", "091816.890000", "091818.380000", "091819.870000", "091821.360000", "091822.850000", "091824.340000", "091825.830000", "091827.320000", "091828.810000", "091830.300000", "091831.790000", "091833.280000", "091834.770000", "091836.260000", "091837.750000", "091839.240000", "091840.730000", "091842.220000", "091843.710000", "091845.200000", "091846.690000", "091848.180000", "091849.670000", "091851.160000", "091852.650000", "091854.140000", "091855.630000", "091857.120000", "091858.610000", "091900.100000", "091901.590000", "091903.080000", "091904.570000", "091906.060000", "091907.550000", "091909.040000", "091910.530000", "091912.020000", "091913.510000", "091915.000000", "091916.490000", "091917.980000", "091919.470000", "091920.960000", "091922.450000", "091923.940000", "091925.430000", "091926.920000", "091928.410000", "091929.900000", "091931.390000", "091932.880000", "091934.370000", "091935.860000", "091937.350000", "091938.840000", "091940.330000", "091941.820000", "091943.310000", "091944.800000", "091946.290000", "091947.780000", "091949.270000", "091950.760000", "091952.250000", "091953.740000", "091955.230000", "091956.720000", "091958.210000", "091959.700000", "092001.190000", "092002.680000", "092004.170000", "092005.660000", "092007.150000", "092008.640000", "092010.130000", "092011.620000", "092013.110000", "092014.600000", "092016.090000", "092017.580000", "092019.070000", "092020.560000", "092022.050000", "092023.540000", "092025.030000", "092026.520000", "092028.010000", "092029.500000", "092030.990000", "092032.480000", "092033.970000", "092035.460000", "092036.950000", "092038.440000", "092039.930000", "092041.420000", "092042.910000", "092044.400000", "092045.890000", "092047.380000", "092048.870000", "092050.360000", "092051.850000", "092053.340000", "092054.830000", "092056.320000", "092057.810000", "092059.300000", "092100.790000", "092102.280000", "092103.770000", "092105.260000", "092106.750000", "092108.240000", "092109.730000", "092111.220000", "092112.710000", "092114.200000", "092115.690000", "092117.180000", "092118.670000", "092120.160000", "092121.650000", "092123.140000", "092124.630000", "092126.120000", "092127.610000", "092129.100000", "092130.590000", "092132.080000", "092133.570000", "092135.060000", "092136.550000", "092138.040000", "092139.530000", "092141.020000", "092142.510000", "092144.000000", "092145.490000", "092146.980000", "092148.470000", "092149.960000", "092151.450000", "092152.940000", "092154.430000", "092155.920000", "092157.410000", "092158.900000", "092200.390000", "092201.880000", "092203.370000", "092204.860000", "092206.350000", "092207.840000", "092209.330000", "092210.820000", "092212.310000", "092213.800000", "092215.290000", "092216.780000", "092218.270000", "092219.760000", "092221.250000", "092222.740000", "092224.230000", "092225.720000", "092227.210000", "092228.700000", "092230.190000", "092231.680000", "092233.170000", "092234.660000", "092236.150000", "092237.640000", "092239.130000", "092240.620000", "092242.110000", "092243.600000", "092245.090000", "092246.580000", "092248.070000", "092249.560000", "092251.050000", "092252.540000", "092254.030000", "092255.520000", "092257.010000", "092258.500000", "092259.990000", "092301.480000", "092302.970000", "092304.460000", "092305.950000", "092307.440000", "092308.930000", "092310.420000", "092311.910000", "092313.400000", "092314.890000", "092316.380000", "092317.870000", "092319.360000", "092320.850000", "092322.340000", "092323.830000", "092325.320000", "092326.810000", "092328.300000", "092329.790000", "092331.280000", "092332.770000", "092334.260000", "092335.750000", "092337.240000", "092338.730000", "092340.220000", "092341.710000", "092343.200000", "092344.690000", "092346.180000", "092347.670000", "092349.160000", "092350.650000", "092352.140000", "092353.630000", "092355.120000", "092356.610000", "092358.100000", "092359.590000", "092401.080000", "092402.570000", "092404.060000", "092405.550000", "092407.040000", "092408.530000", "092410.020000", "092411.510000", "092413.000000", "092414.490000", "092415.980000", "092417.470000", "092418.960000", "092420.450000", "092421.940000", "092423.430000", "092424.920000", "092426.410000", "092427.900000", "092429.390000", "092430.880000", "092432.370000", "092433.860000", "092435.350000", "092436.840000", "092438.330000", "092439.820000", "092441.310000", "092442.800000", "092444.290000", "092445.780000", "092447.270000", "092448.760000", "092450.250000", "092451.740000", "092453.230000", "092454.720000", "092456.210000", "092457.700000", "092459.190000", "092500.680000", "092502.170000", "092503.660000", "092505.150000", "092506.640000", "092508.130000", "092509.620000", "092511.110000", "092512.600000", "092514.090000", "092515.580000", "092517.070000", "092518.560000", "092520.050000", "092521.540000", "092523.030000", "092524.520000", "092526.010000", "092527.500000", "092528.990000", "092530.480000", "092531.970000", "092533.460000", "092534.950000", "092536.440000", "092537.930000", "092539.420000", "092540.910000", "092542.400000", "092543.890000", "092545.380000", "092546.870000", "092548.360000", "092549.850000", "092551.340000", "092552.830000", "092554.320000", "092555.810000", "092557.300000", "092558.790000", "092600.280000", "092601.770000", "092603.260000", "092604.750000", "092606.240000", "092607.730000", "092609.220000", "092610.710000", "092612.200000", "092613.690000", "092615.180000", "092616.670000", "092618.160000", "092619.650000", "092621.140000", "092622.630000", "092624.120000", "092625.610000", "092627.100000", "092628.590000", "092630.080000", "092631.570000", "092633.060000", "092634.550000", "092636.040000", "092637.530000", "092639.020000", "092640.510000", "092642.000000", "092643.490000", "092644.980000", "092646.470000", "092647.960000", "092649.450000", "092650.940000", "092652.430000", "092653.920000", "092655.410000", "092656.900000", "092658.390000", "092659.880000", "092701.370000", "092702.860000", "092704.350000", "092705.840000", "092707.330000", "092708.820000", "092710.310000", "092711.800000", "092713.290000", "092714.780000", "092716.270000", "092717.760000", "092719.250000", "092720.740000", "092722.230000", "092723.720000", "092725.210000", "092726.700000", "092728.190000", "092729.680000", "092731.170000", "092732.660000", "092734.150000", "092735.640000", "092737.130000", "092738.620000", "092740.110000", "092741.600000", "092743.090000", "092744.580000", "092746.070000", "092747.560000", "092749.050000", "092750.540000", "092752.030000", "092753.520000", "092755.010000", "092756.500000", "092757.990000", "092759.480000", "092800.970000", "092802.460000", "092803.950000", "092805.440000", "092806.930000", "092808.420000", "092809.910000", "092811.400000", "092812.890000", "092814.380000", "092815.870000", "092817.360000", "092818.850000", "092820.340000", "092821.830000", "092823.320000", "092824.810000", "092826.300000", "092827.790000", "092829.280000", "092830.770000", "092832.260000", "092833.750000", "092835.240000", "092836.730000", "092838.220000", "092839.710000", "092841.200000", "092842.690000", "092844.180000", "092845.670000", "092847.160000", "092848.650000", "092850.140000", "092851.630000", "092853.120000", "092854.610000", "092856.100000", "092857.590000", "092859.080000", "092900.570000", "092902.060000", "092903.550000", "092905.040000", "092906.530000", "092908.020000", "092909.510000", "092911.000000", "092912.490000", "092913.980000", "092915.470000", "092916.960000", "092918.450000", "092919.940000", "092921.430000", "092922.920000", "092924.410000", "092925.900000", "092927.390000", "092928.880000", "092930.370000", "092931.860000", "092933.350000", "092934.840000"],
      "ContentTime": ["091935.362000", "091935.365000", "091935.368000", "091935.371000", "091935.374000", "091935.377000", "091935.380000", "091935.383000", "091935.385000", "091935.388000", "091935.391000", "091935.394000", "091935.397000", "091935.400000", "091935.403000", "091935.406000", "091935.409000", "091935.412000", "091935.415000", "091935.418000", "091935.428000", "091935.431000", "091935.434000", "091935.437000", "091935.440000", "091935.443000", "091935.446000", "091935.449000", "091935.451000", "091935.454000", "091935.457000", "091935.460000", "091935.463000", "091955.335000", "091955.338000", "091955.341000", "091955.344000", "091955.347000", "091955.350000", "091955.353000", "091955.355000", "091955.358000", "091955.361000", "091955.364000", "091955.367000", "091955.370000", "091955.373000", "091955.376000", "091955.379000", "091955.382000", "091955.384000", "091955.387000", "091955.390000", "092015.335000", "092015.338000", "092015.341000", "092015.344000", "092015.347000", "092015.350000", "092015.352000", "092015.355000", "092015.358000", "092015.361000", "092015.364000", "092015.367000", "092015.370000", "092015.373000", "092015.376000", "092015.379000", "092015.382000", "092015.384000", "092015.387000", "092015.390000", "092035.334000", "092035.337000", "092035.340000", "092035.343000", "092035.346000", "092035.349000", "092035.352000", "092035.355000", "092035.358000", "092035.360000", "092035.363000", "092035.366000", "092035.369000", "092035.372000", "092035.375000", "092035.378000", "092035.381000", "092035.384000", "092035.387000", "092035.390000", "092035.392000", "092115.334000", "092115.346000", "092115.349000", "092115.352000", "092115.355000", "092115.357000", "092115.360000", "092115.363000", "092115.366000", "092115.369000", "092115.372000", "092115.375000", "092115.378000", "092115.381000", "092115.384000", "092115.387000", "092115.390000", "092115.392000", "092115.395000", "092115.398000", "092115.401000", "092115.404000", "092115.407000", "092115.410000", "092115.413000", "092115.416000", "092115.419000", "092115.421000", "092115.424000", "092115.427000", "092115.430000", "092115.433000", "092155.335000", "092155.338000", "092155.341000", "092155.344000", "092155.347000", "092155.350000", "092155.353000", "092155.366000", "092155.369000", "092155.372000", "092155.375000", "092155.378000", "092155.381000", "092155.384000", "092155.387000", "092155.390000", "092155.393000", "092155.395000", "092155.398000", "092155.401000", "092155.404000", "092155.407000", "092155.410000", "092155.413000", "092155.416000", "092155.419000", "092235.335000", "092235.338000", "092235.341000", "092235.344000", "092235.347000", "092235.350000", "092235.353000", "092235.356000", "092235.370000", "092235.373000", "092235.376000", "092235.378000", "092235.381000", "092235.384000", "092235.387000", "092235.390000", "092235.393000", "092235.396000", "092235.399000", "092235.402000", "092235.405000", "092235.408000", "092235.411000", "092235.413000", "092235.416000", "092235.419000", "092235.422000", "092315.334000", "092315.337000", "092315.340000", "092315.343000", "092315.346000", "092315.349000", "092315.352000", "092315.355000", "092315.358000", "092315.361000", "092315.364000", "092315.366000", "092315.369000", "092315.372000", "092315.375000", "092315.378000", "092315.381000", "092315.384000", "092315.387000", "092315.390000", "092315.393000", "092315.396000", "092315.399000", "092315.402000", "092315.405000", "092315.408000", "092315.410000", "092355.334000", "092355.337000", "092355.340000", "092355.343000", "092355.346000", "092355.349000", "092355.352000", "092355.355000", "092355.358000", "092355.360000", "092355.363000", "092355.366000", "092355.369000", "092355.372000", "092355.375000", "092355.378000", "092355.381000", "092355.384000", "092355.387000", "092355.390000", "092355.393000", "092355.395000", "092355.398000", "092355.401000", "092355.404000", "092355.407000", "092355.410000", "092435.335000", "092435.338000", "092435.341000", "092435.344000", "092435.347000", "092435.350000", "092435.353000", "092435.356000", "092435.359000", "092435.362000", "092435.364000", "092435.367000", "092435.370000", "092435.373000", "092435.376000", "092435.379000", "092435.382000", "092435.385000", "092435.388000", "092435.391000", "092435.394000", "092435.397000", "092435.400000", "092435.403000", "092435.406000", "092435.409000", "092435.411000", "092515.334000", "092515.337000", "092515.340000", "092515.343000", "092515.346000", "092515.349000", "092515.352000", "092515.355000", "092515.358000", "092515.361000", "092515.364000", "092515.366000", "092515.369000", "092515.372000", "092515.375000", "092515.378000", "092515.381000", "092515.384000", "092515.387000", "092515.390000", "092515.393000", "092515.396000", "092515.399000", "092515.401000", "092515.404000", "092515.407000", "092515.410000", "092535.334000", "092535.337000", "092535.340000", "092535.343000", "092535.346000", "092535.349000", "092535.352000", "092535.355000", "092535.358000", "092535.361000", "092535.364000", "092535.366000", "092535.369000", "092615.334000", "092615.337000", "092615.340000", "092615.343000", "092615.346000", "092615.349000", "092615.352000", "092615.354000", "092615.357000", "092615.360000", "092615.363000", "092615.366000", "092615.369000", "092615.372000", "092615.375000", "092615.378000", "092615.381000", "092615.384000", "092615.387000", "092615.390000", "092615.393000", "092615.407000", "092615.410000", "092615.413000", "092615.416000", "092615.419000", "092615.422000", "092655.335000", "092655.338000", "092655.341000", "092655.344000", "092655.347000", "092655.350000", "092655.353000", "092655.356000", "092655.359000", "092655.362000", "092655.365000", "092655.367000", "092655.370000", "092655.373000", "092655.376000", "092655.379000", "092655.382000", "092655.385000", "092655.388000", "092655.391000", "092655.394000", "092655.397000", "092655.400000", "092655.403000", "092655.406000", "092655.408000", "092655.411000", "092735.334000", "092735.337000", "092735.340000", "092735.343000", "092735.346000", "092735.349000", "092735.352000", "092735.355000", "092735.358000", "092735.361000", "092735.363000", "092735.366000", "092735.369000", "092735.372000", "092735.375000", "092735.378000", "092735.381000", "092735.384000", "092735.387000", "092735.390000", "092735.393000", "092735.396000", "092735.399000", "092735.402000", "092735.405000", "092735.408000", "092735.410000", "092815.334000", "092815.337000", "092815.340000", "092815.343000", "092815.346000", "092815.349000", "092815.352000", "092815.355000", "092815.358000", "092815.361000", "092815.364000", "092815.367000", "092815.370000", "092815.372000", "092815.375000", "092815.378000", "092815.381000", "092815.384000", "092815.387000", "092815.390000", "092815.393000", "092815.396000", "092815.410000", "092815.413000", "092815.416000", "092815.419000", "092855.335000", "092855.338000", "092855.341000", "092855.344000", "092855.347000", "092855.350000", "092855.353000", "092855.356000", "092855.359000", "092855.362000", "092855.365000", "092855.368000", "092855.370000", "092855.373000", "092855.376000", "092855.379000", "092855.382000", "092855.385000", "092855.388000", "092855.391000", "092855.394000", "092855.397000", "092855.400000", "092855.402000", "092855.405000", "092855.408000", "092855.411000", "092935.335000", "092935.338000", "092935.341000", "092935.344000", "092935.347000", "092935.350000", "092935.353000", "092935.356000", "092935.359000", "092935.362000", "092935.365000", "092935.368000", "092935.371000", "092935.373000", "092935.376000", "092935.379000", "092935.382000", "092935.385000", "092935.388000", "092935.391000", "092935.394000", "092935.397000", "092935.400000", "092935.403000", "092935.406000", "092935.408000", "092935.411000", "092937.410000", "092937.413000"],
