{
  "AcquisitionMatrixPE": 104,
  "AcquisitionNumber": 1,
  "AcquisitionTime": "11:20:56.245000",
  "BandwidthPerPixelPhaseEncode": 17.17,
  "BaseResolution": 104,
  "BodyPartExamined": "BRAIN",
  "CoilString": "HC1-7;NC1_2",
  "ConsistencyInfo": "N4_VE11C_LATEST_20160120",
  "ConversionSoftware": "dcm2niix",
  "ConversionSoftwareVersion": "v1.0.20190902",
  "DerivedVendorReportedEchoSpacing": 0.000560011,
  "DeviceSerialNumber": "167006",
  "DwellTime": 2.1e-06,
  "EchoTime": 0.037,
  "EchoTrainLength": 104,
  "EffectiveEchoSpacing": 0.000560011,
  "FlipAngle": 52,
  "ImageComments": "Unaliased_MB4_PE3_LB",
  "ImageOrientationPatientDICOM": [0.998272, -0.0270468, -0.0521587, 0.0141136, 0.972139, -0.233979],
  "ImageType": [
    "ORIGINAL",
    "PRIMARY",
    "M",
    "MB",
    "ND",
    "MOSAIC"
],
  "ImagingFrequency": 123.259,
  "InPlanePhaseEncodingDirectionDICOM": "COL",
  "InstitutionAddress": "Chemin_Queen-Mary_4565_Montreal_District_CA_H3W_1W5",
  "InstitutionName": "IUGM",
  "InstitutionalDepartmentName": "Department",
  "MRAcquisitionType": "2D",
  "MagneticFieldStrength": 3,
  "Manufacturer": "Siemens",
  "ManufacturersModelName": "Prisma_fit",
  "Modality": "MR",
  "MultibandAccelerationFactor": 4,
  "PartialFourier": 1,
  "PatientPosition": "HFS",
  "PercentPhaseFOV": 100,
  "PhaseEncodingDirection": "j",
  "PhaseEncodingSteps": 104,
  "PhaseResolution": 1,
  "PixelBandwidth": 2290,
  "ProcedureStepDescription": "video_friends",
  "ProtocolName": "func_task-friends-s04e01b",
  "PulseSequenceDetails": "%CustomerSeq%_cmrr_mbep2d_bold",
  "ReceiveCoilActiveElements": "HC1-7;NC1,2",
  "ReceiveCoilName": "HeadNeck_64",
  "ReconMatrixPE": 104,
  "RepetitionTime": 1.49,
  "SAR": 0.0304982,
  "ScanOptions": "FS",
  "ScanningSequence": "EP",
  "SequenceName": "epfid2d1_104",
  "SequenceVariant": "SK_SS",
  "SeriesDescription": "func_task-friends-s04e01b",
  "SeriesNumber": 36,
  "ShimSetting": [602, -7254, -8842, 574, -73, -296, 0, 47],
  "SliceThickness": 2,
  "SliceTiming": [0, 0.785, 0.0975, 0.8825, 0.1975, 0.98, 0.295, 1.0775, 0.3925, 1.1775, 0.49, 1.275, 0.5875, 1.3725, 0.6875, 0, 0.785, 0.0975, 0.8825, 0.1975, 0.98, 0.295, 1.0775, 0.3925, 1.1775, 0.49, 1.275, 0.5875, 1.3725, 0.6875, 0, 0.785, 0.0975, 0.8825, 0.1975, 0.98, 0.295, 1.0775, 0.3925, 1.1775, 0.49, 1.275, 0.5875, 1.3725, 0.6875, 0, 0.785, 0.0975, 0.8825, 0.1975, 0.98, 0.295, 1.0775, 0.3925, 1.1775, 0.49, 1.275, 0.5875, 1.3725, 0.6875],
  "SoftwareVersions": "syngo_MR_E11",
  "SpacingBetweenSlices": 2,
  "StationName": "MRC35049",
  "TaskName": "s04e01b",
  "TotalReadoutTime": 0.0576811,
  "TxRefAmp": 219.144,
  "WipMemBlock": "dbc65d97-dfbe-4934-9a29-e85c7e4fbdc0||Sequence: R016 ve11c/master r/e634e98; Dec 19 2017 11:00:25 by eja",
  "dcmmeta_affine": [
    [-1.9965449571609497, 0.028227288275957108, -0.11406774073839188, 99.85115051269531],
    [0.05409364774823189, 1.944278597831726, -0.4656766951084137, -85.41253662109375],
    [-0.10431733727455139, 0.46795740723609924, 1.941683292388916, -50.85453796386719],
    [0.0, 0.0, 0.0, 1.0]
],
  "dcmmeta_reorient_transform": [
    [0.0, -1.0, 0.0, 103.0],
    [1.0, 0.0, 0.0, 0.0],
    [0.0, 0.0, 1.0, 0.0],
    [0.0, 0.0, 0.0, 1.0]
],
  "dcmmeta_shape": [104, 104, 60, 468],
  "dcmmeta_slice_dim": 2,
  "dcmmeta_version": 0.6,
  "global": {
    "const": {
      "AcquisitionMatrix": [104, 0, 0, 104],
      "AngioFlag": "N",
      "BitsAllocated": 16,
      "BitsStored": 16,
      "BodyPartExamined": "BRAIN",
      "Columns": 832,
      "EchoNumbers": 1,
      "EchoTime": 37.0,
      "EchoTrainLength": 104,
      "FlipAngle": 52.0,
      "HighBit": 15,
      "ImageOrientationPatient": [0.99827247918707, -0.0270468233506, -0.0521586679694, 0.01411364377357, 0.97213927736969, -0.2339786965828],
      "ImagePositionPatient": [-839.77565702084, -802.87546018079, 205.65307548488],
      "ImageType": [
        "ORIGINAL",
        "PRIMARY",
        "M",
        "MB",
        "ND",
        "MOSAIC"
],
      "ImagedNucleus": "1H",
      "ImagingFrequency": 123.259089,
      "InPlanePhaseEncodingDirection": "COL",
      "MRAcquisitionType": "2D",
      "MagneticFieldStrength": 3.0,
      "Manufacturer": "SIEMENS",
      "ManufacturerModelName": "Prisma_fit",
      "Modality": "MR",
      "NumberOfAverages": 1.0,
      "NumberOfPhaseEncodingSteps": 104,
      "PercentPhaseFieldOfView": 100.0,
      "PercentSampling": 100.0,
      "PerformedProcedureStepStartTime": "085508.704000",
      "PhotometricInterpretation": "MONOCHROME2",
      "PixelBandwidth": 2290.0,
      "PixelRepresentation": 0,
      "PixelSpacing": [2.0, 2.0],
      "ProtocolName": "func_task-friends-s04e01b",
      "RepetitionTime": 1490.0,
      "Rows": 832,
      "SAR": 0.03049823196552,
      "SamplesPerPixel": 1,
      "ScanOptions": "FS",
      "ScanningSequence": "EP",
      "SequenceName": "epfid2d1_104",
      "SequenceVariant": [
        "SK",
        "SS"
],
      "SeriesDescription": "func_task-friends-s04e01b",
      "SeriesNumber": 36,
      "SeriesTime": "112224.042000",
      "SliceLocation": -35.17928489423,
      "SliceThickness": 2.0,
      "SmallestImagePixelValue": 0,
      "SoftwareVersions": "syngo MR E11",
      "SpacingBetweenSlices": 2.0000000655473,
      "SpecificCharacterSet": "ISO_IR 100",
      "StudyID": "1",
      "StudyTime": "085508.580000",
      "TransmitCoilName": "Body",
      "VariableFlipAngleFlag": "N",
      "WindowCenterWidthExplanation": "Algo1",
      "dBdt": 0.0},
    "slices": {}
  },
  "time": {
    "samples": {
      "AcquisitionNumber": [1, 2, 3, 4, 5, 6, 7, 8, 9, 10, 11, 12, 13, 14, 15, 16, 17, 18, 19, 20, 21, 22, 23, 24, 25, 26, 27, 28, 29, 30, 31, 32, 33, 34, 35, 36, 37, 38, 39, 40, 41, 42, 43, 44, 45, 46, 47, 48, 49, 50, 51, 52, 53, 54, 55, 56, 57, 58, 59, 60, 61, 62, 63, 64, 65, 66, 67, 68, 69, 70, 71, 72, 73, 74, 75, 76, 77, 78, 79, 80, 81, 82, 83, 84, 85, 86, 87, 88, 89, 90, 91, 92, 93, 94, 95, 96, 97, 98, 99, 100, 101, 102, 103, 104, 105, 106, 107, 108, 109, 110, 111, 112, 113, 114, 115, 116, 117, 118, 119, 120, 121, 122, 123, 124, 125, 126, 127, 128, 129, 130, 131, 132, 133, 134, 135, 136, 137, 138, 139, 140, 141, 142, 143, 144, 145, 146, 147, 148, 149, 150, 151, 152, 153, 154, 155, 156, 157, 158, 159, 160, 161, 162, 163, 164, 165, 166, 167, 168, 169, 170, 171, 172, 173, 174, 175, 176, 177, 178, 179, 180, 181, 182, 183, 184, 185, 186, 187, 188, 189, 190, 191, 192, 193, 194, 195, 196, 197, 198, 199, 200, 201, 202, 203, 204, 205, 206, 207, 208, 209, 210, 211, 212, 213, 214, 215, 216, 217, 218, 219, 220, 221, 222, 223, 224, 225, 226, 227, 228, 229, 230, 231, 232, 233, 234, 235, 236, 237, 238, 239, 240, 241, 242, 243, 244, 245, 246, 247, 248, 249, 250, 251, 252, 253, 254, 255, 256, 257, 258, 259, 260, 261, 262, 263, 264, 265, 266, 267, 268, 269, 270, 271, 272, 273, 274, 275, 276, 277, 278, 279, 280, 281, 282, 283, 284, 285, 286, 287, 288, 289, 290, 291, 292, 293, 294, 295, 296, 297, 298, 299, 300, 301, 302, 303, 304, 305, 306, 307, 308, 309, 310, 311, 312, 313, 314, 315, 316, 317, 318, 319, 320, 321, 322, 323, 324, 325, 326, 327, 328, 329, 330, 331, 332, 333, 334, 335, 336, 337, 338, 339, 340, 341, 342, 343, 344, 345, 346, 347, 348, 349, 350, 351, 352, 353, 354, 355, 356, 357, 358, 359, 360, 361, 362, 363, 364, 365, 366, 367, 368, 369, 370, 371, 372, 373, 374, 375, 376, 377, 378, 379, 380, 381, 382, 383, 384, 385, 386, 387, 388, 389, 390, 391, 392, 393, 394, 395, 396, 397, 398, 399, 400, 401, 402, 403, 404, 405, 406, 407, 408, 409, 410, 411, 412, 413, 414, 415, 416, 417, 418, 419, 420, 421, 422, 423, 424, 425, 426, 427, 428, 429, 430, 431, 432, 433, 434, 435, 436, 437, 438, 439, 440, 441, 442, 443, 444, 445, 446, 447, 448, 449, 450, 451, 452, 453, 454, 455, 456, 457, 458, 459, 460, 461, 462, 463, 464, 465, 466, 467, 468],
      "AcquisitionTime": ["112056.245000", "112057.735000", "112059.225000", "112100.715000", "112102.205000", "112103.695000", "112105.185000", "112106.675000", "112108.165000", "112109.655000", "112111.145000", "112112.635000", "112114.125000", "112115.615000", "112117.105000", "112118.595000", "112120.085000", "112121.575000", "112123.065000", "112124.555000", "112126.045000", "112127.535000", "112129.025000", "112130.515000", "112132.005000", "112133.495000", "112134.985000", "112136.475000", "112137.965000", "112139.455000", "112140.945000", "112142.435000", "112143.925000", "112145.415000", "112146.905000", "112148.395000", "112149.885000", "112151.375000", "112152.865000", "112154.355000", "112155.845000", "112157.335000", "112158.825000", "112200.315000", "112201.805000", "112203.295000", "112204.785000", "112206.275000", "112207.765000", "112209.255000", "112210.745000", "112212.235000", "112213.725000", "112215.215000", "112216.705000", "112218.195000", "112219.685000", "112221.175000", "112222.665000", "112224.155000", "112225.645000", "112227.135000", "112228.625000", "112230.115000", "112231.605000", "112233.095000", "112234.585000", "112236.075000", "112237.565000", "112239.055000", "112240.545000", "112242.035000", "112243.525000", "112245.015000", "112246.505000", "112247.995000", "112249.485000", "112250.975000", "112252.465000", "112253.955000", "112255.445000", "112256.935000", "112258.425000", "112259.915000", "112301.405000", "112302.895000", "112304.385000", "112305.875000", "112307.365000", "112308.855000", "112310.345000", "112311.835000", "112313.325000", "112314.815000", "112316.305000", "112317.795000", "112319.285000", "112320.775000", "112322.265000", "112323.755000", "112325.245000", "112326.735000", "112328.225000", "112329.715000", "112331.205000", "112332.695000", "112334.185000", "112335.675000", "112337.165000", "112338.655000", "112340.145000", "112341.635000", "112343.125000", "112344.615000", "112346.105000", "112347.595000", "112349.085000", "112350.575000", "112352.065000", "112353.555000", "112355.045000", "112356.535000", "112358.025000", "112359.515000", "112401.005000", "112402.495000", "112403.985000", "112405.475000", "112406.965000", "112408.455000", "112409.945000", "112411.435000", "112412.925000", "112414.415000", "112415.905000", "112417.395000", "112418.885000", "112420.375000", "112421.865000", "112423.355000", "112424.845000", "112426.335000", "112427.825000", "112429.315000", "112430.805000", "112432.295000", "112433.785000", "112435.275000", "112436.765000", "112438.255000", "112439.745000", "112441.235000", "112442.725000", "112444.215000", "112445.705000", "112447.195000", "112448.685000", "112450.175000", "112451.665000", "112453.155000", "112454.645000", "112456.135000", "112457.625000", "112459.115000", "112500.605000", "112502.095000", "112503.585000", "112505.075000", "112506.565000", "112508.055000", "112509.545000", "112511.035000", "112512.525000", "112514.015000", "112515.505000", "112516.995000", "112518.485000", "112519.975000", "112521.465000", "112522.955000", "112524.445000", "112525.935000", "112527.425000", "112528.915000", "112530.405000", "112531.895000", "112533.385000", "112534.875000", "112536.365000", "112537.855000", "112539.345000", "112540.835000", "112542.325000", "112543.815000", "112545.305000", "112546.795000", "112548.285000", "112549.775000", "112551.265000", "112552.755000", "112554.245000", "112555.735000", "112557.225000", "112558.715000", "112600.205000", "112601.695000", "112603.185000", "112604.675000", "112606.165000", "112607.655000", "112609.145000", "112610.635000", "112612.125000", "112613.615000", "112615.105000", "112616.595000", "112618.085000", "112619.575000", "112621.065000", "112622.555000", "112624.045000", "112625.535000", "112627.025000", "112628.515000", "112630.005000", "112631.495000", "112632.985000", "112634.475000", "112635.965000", "112637.455000", "112638.945000", "112640.435000", "112641.925000", "112643.415000", "112644.905000", "112646.395000", "112647.885000", "112649.375000", "112650.865000", "112652.355000", "112653.845000", "112655.335000", "112656.825000", "112658.315000", "112659.805000", "112701.295000", "112702.785000", "112704.275000", "112705.765000", "112707.255000", "112708.745000", "112710.235000", "112711.725000", "112713.215000", "112714.705000", "112716.195000", "112717.685000", "112719.175000", "112720.665000", "112722.155000", "112723.645000", "112725.135000", "112726.625000", "112728.115000", "112729.605000", "112731.095000", "112732.585000", "112734.075000", "112735.565000", "112737.055000", "112738.545000", "112740.035000", "112741.525000", "112743.015000", "112744.505000", "112745.995000", "112747.485000", "112748.975000", "112750.465000", "112751.955000", "112753.445000", "112754.935000", "112756.425000", "112757.915000", "112759.405000", "112800.895000", "112802.385000", "112803.875000", "112805.365000", "112806.855000", "112808.345000", "112809.835000", "112811.325000", "112812.815000", "112814.305000", "112815.795000", "112817.285000", "112818.775000", "112820.265000", "112821.755000", "112823.245000", "112824.735000", "112826.225000", "112827.715000", "112829.205000", "112830.695000", "112832.185000", "112833.675000", "112835.165000", "112836.655000", "112838.145000", "112839.635000", "112841.125000", "112842.615000", "112844.105000", "112845.595000", "112847.085000", "112848.575000", "112850.065000", "112851.555000", "112853.045000", "112854.535000", "112856.025000", "112857.515000", "112859.005000", "112900.495000", "112901.985000", "112903.475000", "112904.965000", "112906.455000", "112907.945000", "112909.435000", "112910.925000", "112912.415000", "112913.905000", "112915.395000", "112916.885000", "112918.375000", "112919.865000", "112921.355000", "112922.845000", "112924.335000", "112925.825000", "112927.315000", "112928.805000", "112930.295000", "112931.785000", "112933.275000", "112934.765000", "112936.255000", "112937.745000", "112939.235000", "112940.725000", "112942.215000", "112943.705000", "112945.195000", "112946.685000", "112948.175000", "112949.665000", "112951.155000", "112952.645000", "112954.135000", "112955.625000", "112957.115000", "112958.605000", "113000.095000", "113001.585000", "113003.075000", "113004.565000", "113006.055000", "113007.545000", "113009.035000", "113010.525000", "113012.015000", "113013.505000", "113014.995000", "113016.485000", "113017.975000", "113019.465000", "113020.955000", "113022.445000", "113023.935000", "113025.425000", "113026.915000", "113028.405000", "113029.895000", "113031.385000", "113032.875000", "113034.365000", "113035.855000", "113037.345000", "113038.835000", "113040.325000", "113041.815000", "113043.305000", "113044.795000", "113046.285000", "113047.775000", "113049.265000", "113050.755000", "113052.245000", "113053.735000", "113055.225000", "113056.715000", "113058.205000", "113059.695000", "113101.185000", "113102.675000", "113104.165000", "113105.655000", "113107.145000", "113108.635000", "113110.125000", "113111.615000", "113113.105000", "113114.595000", "113116.085000", "113117.575000", "113119.065000", "113120.555000", "113122.045000", "113123.535000", "113125.025000", "113126.515000", "113128.005000", "113129.495000", "113130.985000", "113132.475000", "113133.965000", "113135.455000", "113136.945000", "113138.435000", "113139.925000", "113141.415000", "113142.905000", "113144.395000", "113145.885000", "113147.375000", "113148.865000", "113150.355000", "113151.845000", "113153.335000", "113154.825000", "113156.315000", "113157.805000", "113159.295000", "113200.785000", "113202.275000", "113203.765000", "113205.255000", "113206.745000", "113208.235000", "113209.725000", "113211.215000", "113212.705000", "113214.195000", "113215.685000", "113217.175000", "113218.665000", "113220.155000", "113221.645000", "113223.135000", "113224.625000", "113226.115000", "113227.605000", "113229.095000", "113230.585000", "113232.075000"],
      "ContentTime": ["112224.045000", "112224.048000", "112224.051000", "112224.054000", "112224.057000", "112224.060000", "112224.063000", "112224.066000", "112224.069000", "112224.072000", "112224.077000", "112224.080000", "112224.083000", "112224.086000", "112224.089000", "112224.091000", "112224.094000", "112224.097000", "112224.100000", "112224.103000", "112224.106000", "112224.109000", "112224.112000", "112224.115000", "112224.118000", "112224.121000", "112224.124000", "112224.126000", "112224.129000", "112224.132000", "112224.135000", "112224.138000", "112243.994000", "112243.997000", "112244.001000", "112244.004000", "112244.007000", "112244.010000", "112244.013000", "112244.033000", "112244.036000", "112244.039000", "112244.042000", "112244.045000", "112244.048000", "112244.050000", "112244.053000", "112244.056000", "112244.059000", "112244.062000", "112244.065000", "112244.068000", "112244.071000", "112303.994000", "112303.997000", "112304.001000", "112304.004000", "112304.006000", "112304.009000", "112304.012000", "112304.015000", "112304.018000", "112304.021000", "112304.024000", "112304.027000", "112304.030000", "112304.033000", "112304.036000", "112304.038000", "112304.041000", "112304.044000", "112304.047000", "112304.050000", "112323.995000", "112323.998000", "112324.001000", "112324.004000", "112324.007000", "112324.010000", "112324.012000", "112324.015000", "112324.018000", "112324.027000", "112324.030000", "112324.033000", "112324.036000", "112324.039000", "112324.042000", "112324.044000", "112324.047000", "112324.050000", "112324.053000", "112324.056000", "112403.995000", "112403.998000", "112404.002000", "112404.005000", "112404.008000", "112404.011000", "112404.014000", "112404.017000", "112404.020000", "112404.022000", "112404.025000", "112404.028000", "112404.031000", "112404.034000", "112404.037000", "112404.040000", "112404.043000", "112404.046000", "112404.048000", "112404.051000", "112404.054000", "112404.057000", "112404.060000", "112404.063000", "112404.066000", "112404.069000", "112404.072000", "112404.074000", "112404.077000", "112404.080000", "112404.083000", "112404.086000", "112443.994000", "112443.997000", "112444.000000", "112444.003000", "112444.006000", "112444.009000", "112444.012000", "112444.015000", "112444.018000", "112444.021000", "112444.023000", "112444.026000", "112444.029000", "112444.032000", "112444.035000", "112444.038000", "112444.041000", "112444.044000", "112444.047000", "112444.049000", "112444.052000", "112444.055000", "112444.058000", "112444.061000", "112444.064000", "112444.067000", "112444.070000", "112523.994000", "112523.997000", "112524.001000", "112524.004000", "112524.007000", "112524.010000", "112524.013000", "112524.016000", "112524.019000", "112524.022000", "112524.025000", "112524.027000", "112524.030000", "112524.033000", "112524.036000", "112524.039000", "112524.042000", "112524.045000", "112524.048000", "112524.051000", "112524.053000", "112524.056000", "112524.059000", "112524.062000", "112524.065000", "112524.068000", "112524.071000", "112603.995000", "112603.998000", "112604.001000", "112604.004000", "112604.007000", "112604.010000", "112604.013000", "112604.016000", "112604.019000", "112604.021000", "112604.024000", "112604.027000", "112604.030000", "112604.033000", "112604.036000", "112604.039000", "112604.042000", "112604.045000", "112604.048000", "112604.051000", "112604.054000", "112604.057000", "112604.059000", "112604.062000", "112604.065000", "112604.068000", "112604.071000", "112643.995000", "112643.998000", "112644.002000", "112644.005000", "112644.008000", "112644.011000", "112644.014000", "112644.017000", "112644.020000", "112644.023000", "112644.026000", "112644.029000", "112644.032000", "112644.034000", "112644.037000", "112644.040000", "112644.043000", "112644.046000", "112644.049000", "112644.052000", "112644.055000", "112644.058000", "112644.061000", "112644.064000", "112644.066000", "112644.069000", "112644.072000", "112723.994000", "112723.997000", "112724.001000", "112724.004000", "112724.007000", "112724.010000", "112724.013000", "112724.016000", "112724.018000", "112724.021000", "112724.024000", "112724.027000", "112724.030000", "112724.033000", "112724.036000", "112724.039000", "112724.042000", "112724.045000", "112724.048000", "112724.051000", "112724.054000", "112724.057000", "112724.060000", "112724.062000", "112724.065000", "112724.068000", "112803.995000", "112803.998000", "112804.001000", "112804.004000", "112804.007000", "112804.010000", "112804.013000", "112804.015000", "112804.018000", "112804.021000", "112804.024000", "112804.027000", "112804.030000", "112804.033000", "112804.036000", "112804.039000", "112804.042000", "112804.045000", "112804.048000", "112804.051000", "112804.053000", "112804.056000", "112804.059000", "112804.062000", "112804.065000", "112804.068000", "112804.071000", "112843.995000", "112843.998000", "112844.002000", "112844.005000", "112844.008000", "112844.011000", "112844.014000", "112844.017000", "112844.020000", "112844.023000", "112844.026000", "112844.029000", "112844.032000", "112844.035000", "112844.038000", "112844.041000", "112844.044000", "112844.046000", "112844.049000", "112844.052000", "112844.055000", "112844.058000", "112844.061000", "112844.064000", "112844.067000", "112844.070000", "112844.073000", "112923.994000", "112923.997000", "112924.001000", "112924.004000", "112924.007000", "112924.010000", "112924.013000", "112924.016000", "112924.019000", "112924.022000", "112924.024000", "112924.027000", "112924.030000", "112924.033000", "112924.036000", "112924.039000", "112924.042000", "112924.045000", "112924.048000", "112924.050000", "112924.053000", "112924.056000", "112924.059000", "112924.062000", "112924.065000", "112924.068000", "112924.071000", "113003.994000", "113003.997000", "113004.001000", "113004.004000", "113004.007000", "113004.010000", "113004.013000", "113004.016000", "113004.019000", "113004.022000", "113004.025000", "113004.027000", "113004.030000", "113004.033000", "113004.036000", "113004.039000", "113004.042000", "113004.045000", "113004.048000", "113004.051000", "113004.054000", "113004.057000", "113004.060000", "113004.063000", "113004.065000", "113004.068000", "113004.071000", "113043.995000", "113043.998000", "113044.002000", "113044.005000", "113044.008000", "113044.011000", "113044.014000", "113044.017000", "113044.020000", "113044.023000", "113044.026000", "113044.029000", "113044.031000", "113044.034000", "113044.037000", "113044.040000", "113044.043000", "113044.046000", "113044.049000", "113044.052000", "113044.055000", "113044.058000", "113044.061000", "113044.064000", "113044.066000", "113044.070000", "113044.073000", "113123.996000", "113124.000000", "113124.003000", "113124.006000", "113124.009000", "113124.012000", "113124.015000", "113124.018000", "113124.021000", "113124.024000", "113124.027000", "113124.030000", "113124.033000", "113124.036000", "113124.039000", "113124.041000", "113124.044000", "113124.047000", "113124.050000", "113124.053000", "113124.056000", "113124.059000", "113124.062000", "113124.065000", "113124.068000", "113124.071000", "113203.994000", "113203.997000", "113204.001000", "113204.004000", "113204.007000", "113204.010000", "113204.012000", "113204.015000", "113204.018000", "113204.021000", "113204.024000", "113204.027000", "113204.030000", "113204.033000", "113204.036000", "113204.039000", "113204.042000", "113204.045000", "113204.048000", "113204.051000", "113204.054000", "113204.056000", "113204.059000", "113204.062000", "113204.065000", "113204.068000", "113204.071000", "113234.076000", "113234.079000", "113234.082000", "113234.085000", "113234.088000", "113234.091000", "113234.094000", "113234.097000", "113234.099000", "113234.103000", "113234.106000", "113234.109000", "113234.112000", "113234.114000", "113234.117000", "113234.120000", "113234.123000", "113234.126000", "113234.129000", "113234.132000", "113234.135000"],
