{
  "AcquisitionMatrixPE": 104,
  "AcquisitionNumber": 1,
  "AcquisitionTime": "10:06:29.920000",
  "BandwidthPerPixelPhaseEncode": 17.17,
  "BaseResolution": 104,
  "BodyPartExamined": "BRAIN",
  "CoilString": "HC1-7;NC1_2",
  "ConsistencyInfo": "N4_VE11C_LATEST_20160120",
  "ConversionSoftware": "dcm2niix",
  "ConversionSoftwareVersion": "v1.0.20190902",
  "DerivedVendorReportedEchoSpacing": 0.000560011,
  "DeviceSerialNumber": "167006",
  "DwellTime": 2.1e-06,
  "EchoTime": 0.037,
  "EchoTrainLength": 104,
  "EffectiveEchoSpacing": 0.000560011,
  "FlipAngle": 52,
  "ImageComments": "Unaliased_MB4_PE3_LB",
  "ImageOrientationPatientDICOM": [0.997302, 0.00417262, -0.0732922, -0.0212388, 0.972087, -0.233658],
  "ImageType": [
    "ORIGINAL",
    "PRIMARY",
    "M",
    "MB",
    "ND",
    "MOSAIC"
],
  "ImagingFrequency": 123.259,
  "InPlanePhaseEncodingDirectionDICOM": "COL",
  "InstitutionAddress": "Chemin_Queen-Mary_4565_Montreal_District_CA_H3W_1W5",
  "InstitutionName": "IUGM",
  "InstitutionalDepartmentName": "Department",
  "MRAcquisitionType": "2D",
  "MagneticFieldStrength": 3,
  "Manufacturer": "Siemens",
  "ManufacturersModelName": "Prisma_fit",
  "Modality": "MR",
  "MultibandAccelerationFactor": 4,
  "PartialFourier": 1,
  "PatientPosition": "HFS",
  "PercentPhaseFOV": 100,
  "PhaseEncodingDirection": "j",
  "PhaseEncodingSteps": 104,
  "PhaseResolution": 1,
  "PixelBandwidth": 2290,
  "ProcedureStepDescription": "video_friends",
  "ProtocolName": "func_task-friends-s03e24a",
  "PulseSequenceDetails": "%CustomerSeq%_cmrr_mbep2d_bold",
  "ReceiveCoilActiveElements": "HC1-7;NC1,2",
  "ReceiveCoilName": "HeadNeck_64",
  "ReconMatrixPE": 104,
  "RepetitionTime": 1.49,
  "SAR": 0.029086,
  "ScanOptions": "FS",
  "ScanningSequence": "EP",
  "SequenceName": "epfid2d1_104",
  "SequenceVariant": "SK_SS",
  "SeriesDescription": "func_task-friends-s03e24a",
  "SeriesNumber": 17,
  "ShimSetting": [600, -7239, -8852, 616, -66, -281, 11, 46],
  "SliceThickness": 2,
  "SliceTiming": [0, 0.785, 0.0975, 0.8825, 0.195, 0.98, 0.295, 1.0775, 0.3925, 1.175, 0.49, 1.275, 0.5875, 1.3725, 0.685, 0, 0.785, 0.0975, 0.8825, 0.195, 0.98, 0.295, 1.0775, 0.3925, 1.175, 0.49, 1.275, 0.5875, 1.3725, 0.685, 0, 0.785, 0.0975, 0.8825, 0.195, 0.98, 0.295, 1.0775, 0.3925, 1.175, 0.49, 1.275, 0.5875, 1.3725, 0.685, 0, 0.785, 0.0975, 0.8825, 0.195, 0.98, 0.295, 1.0775, 0.3925, 1.175, 0.49, 1.275, 0.5875, 1.3725, 0.685],
  "SoftwareVersions": "syngo_MR_E11",
  "SpacingBetweenSlices": 2,
  "StationName": "MRC35049",
  "TaskName": "s03e24a",
  "TotalReadoutTime": 0.0576811,
  "TxRefAmp": 217.663,
  "WipMemBlock": "7ee161bf-e288-4317-b5aa-c1b9ca2b83f8||Sequence: R016 ve11c/master r/e634e98; Dec 19 2017 11:00:25 by eja",
  "dcmmeta_affine": [
    [-1.9946035146713257, -0.042477529495954514, -0.14054277539253235, 104.16841125488281],
    [-0.008345238864421844, 1.9441736936569214, -0.4691685736179352, -82.02093505859375],
    [-0.14658433198928833, 0.467316210269928, 1.9391051530838013, -56.864139556884766],
    [0.0, 0.0, 0.0, 1.0]
],
  "dcmmeta_reorient_transform": [
    [0.0, -1.0, 0.0, 103.0],
    [1.0, 0.0, 0.0, 0.0],
    [0.0, 0.0, 1.0, 0.0],
    [0.0, 0.0, 0.0, 1.0]
],
  "dcmmeta_shape": [104, 104, 60, 454],
  "dcmmeta_slice_dim": 2,
  "dcmmeta_version": 0.6,
  "global": {
    "const": {
      "AcquisitionMatrix": [104, 0, 0, 104],
      "AngioFlag": "N",
      "BitsAllocated": 16,
      "BitsStored": 16,
      "BodyPartExamined": "BRAIN",
      "Columns": 832,
      "EchoNumbers": 1,
      "EchoTime": 37.0,
      "EchoTrainLength": 104,
      "FlipAngle": 52.0,
      "HighBit": 15,
      "ImageOrientationPatient": [0.99730178362679, 0.00417261965629, -0.0732921661572, -0.0212387642069, 0.97208682938064, -0.2336581071559],
      "ImagePositionPatient": [-810.36710337052, -828.94582912802, 214.72923079005],
      "ImageType": [
        "ORIGINAL",
        "PRIMARY",
        "M",
        "MB",
        "ND",
        "MOSAIC"
],
      "ImagedNucleus": "1H",
      "ImagingFrequency": 123.259094,
      "InPlanePhaseEncodingDirection": "COL",
      "MRAcquisitionType": "2D",
      "MagneticFieldStrength": 3.0,
      "Manufacturer": "SIEMENS",
      "ManufacturerModelName": "Prisma_fit",
      "Modality": "MR",
      "NumberOfAverages": 1.0,
      "NumberOfPhaseEncodingSteps": 104,
      "PercentPhaseFieldOfView": 100.0,
      "PercentSampling": 100.0,
      "PerformedProcedureStepStartTime": "085508.704000",
      "PhotometricInterpretation": "MONOCHROME2",
      "PixelBandwidth": 2290.0,
      "PixelRepresentation": 0,
      "PixelSpacing": [2.0, 2.0],
      "ProtocolName": "func_task-friends-s03e24a",
      "RepetitionTime": 1490.0,
      "Rows": 832,
      "SAR": 0.02908599778196,
      "SamplesPerPixel": 1,
      "ScanOptions": "FS",
      "ScanningSequence": "EP",
      "SequenceName": "epfid2d1_104",
      "SequenceVariant": [
        "SK",
        "SS"
],
      "SeriesDescription": "func_task-friends-s03e24a",
      "SeriesNumber": 17,
      "SeriesTime": "100744.159000",
      "SliceLocation": -43.212006004442,
      "SliceThickness": 2.0,
      "SmallestImagePixelValue": 0,
      "SoftwareVersions": "syngo MR E11",
      "SpacingBetweenSlices": 2.0000000456127,
      "SpecificCharacterSet": "ISO_IR 100",
      "StudyID": "1",
      "StudyTime": "085508.580000",
      "TransmitCoilName": "Body",
      "VariableFlipAngleFlag": "N",
      "WindowCenterWidthExplanation": "Algo1",
      "dBdt": 0.0},
    "slices": {}
  },
  "time": {
    "samples": {
      "AcquisitionNumber": [1, 2, 3, 4, 5, 6, 7, 8, 9, 10, 11, 12, 13, 14, 15, 16, 17, 18, 19, 20, 21, 22, 23, 24, 25, 26, 27, 28, 29, 30, 31, 32, 33, 34, 35, 36, 37, 38, 39, 40, 41, 42, 43, 44, 45, 46, 47, 48, 49, 50, 51, 52, 53, 54, 55, 56, 57, 58, 59, 60, 61, 62, 63, 64, 65, 66, 67, 68, 69, 70, 71, 72, 73, 74, 75, 76, 77, 78, 79, 80, 81, 82, 83, 84, 85, 86, 87, 88, 89, 90, 91, 92, 93, 94, 95, 96, 97, 98, 99, 100, 101, 102, 103, 104, 105, 106, 107, 108, 109, 110, 111, 112, 113, 114, 115, 116, 117, 118, 119, 120, 121, 122, 123, 124, 125, 126, 127, 128, 129, 130, 131, 132, 133, 134, 135, 136, 137, 138, 139, 140, 141, 142, 143, 144, 145, 146, 147, 148, 149, 150, 151, 152, 153, 154, 155, 156, 157, 158, 159, 160, 161, 162, 163, 164, 165, 166, 167, 168, 169, 170, 171, 172, 173, 174, 175, 176, 177, 178, 179, 180, 181, 182, 183, 184, 185, 186, 187, 188, 189, 190, 191, 192, 193, 194, 195, 196, 197, 198, 199, 200, 201, 202, 203, 204, 205, 206, 207, 208, 209, 210, 211, 212, 213, 214, 215, 216, 217, 218, 219, 220, 221, 222, 223, 224, 225, 226, 227, 228, 229, 230, 231, 232, 233, 234, 235, 236, 237, 238, 239, 240, 241, 242, 243, 244, 245, 246, 247, 248, 249, 250, 251, 252, 253, 254, 255, 256, 257, 258, 259, 260, 261, 262, 263, 264, 265, 266, 267, 268, 269, 270, 271, 272, 273, 274, 275, 276, 277, 278, 279, 280, 281, 282, 283, 284, 285, 286, 287, 288, 289, 290, 291, 292, 293, 294, 295, 296, 297, 298, 299, 300, 301, 302, 303, 304, 305, 306, 307, 308, 309, 310, 311, 312, 313, 314, 315, 316, 317, 318, 319, 320, 321, 322, 323, 324, 325, 326, 327, 328, 329, 330, 331, 332, 333, 334, 335, 336, 337, 338, 339, 340, 341, 342, 343, 344, 345, 346, 347, 348, 349, 350, 351, 352, 353, 354, 355, 356, 357, 358, 359, 360, 361, 362, 363, 364, 365, 366, 367, 368, 369, 370, 371, 372, 373, 374, 375, 376, 377, 378, 379, 380, 381, 382, 383, 384, 385, 386, 387, 388, 389, 390, 391, 392, 393, 394, 395, 396, 397, 398, 399, 400, 401, 402, 403, 404, 405, 406, 407, 408, 409, 410, 411, 412, 413, 414, 415, 416, 417, 418, 419, 420, 421, 422, 423, 424, 425, 426, 427, 428, 429, 430, 431, 432, 433, 434, 435, 436, 437, 438, 439, 440, 441, 442, 443, 444, 445, 446, 447, 448, 449, 450, 451, 452, 453, 454],
      "AcquisitionTime": ["100629.920000", "100631.410000", "100632.900000", "100634.390000", "100635.880000", "100637.370000", "100638.860000", "100640.350000", "100641.840000", "100643.330000", "100644.820000", "100646.310000", "100647.800000", "100649.290000", "100650.780000", "100652.270000", "100653.760000", "100655.250000", "100656.740000", "100658.230000", "100659.720000", "100701.210000", "100702.700000", "100704.190000", "100705.680000", "100707.170000", "100708.660000", "100710.150000", "100711.640000", "100713.130000", "100714.620000", "100716.110000", "100717.600000", "100719.090000", "100720.580000", "100722.070000", "100723.560000", "100725.050000", "100726.540000", "100728.030000", "100729.520000", "100731.010000", "100732.500000", "100733.990000", "100735.480000", "100736.970000", "100738.460000", "100739.950000", "100741.440000", "100742.930000", "100744.420000", "100745.910000", "100747.400000", "100748.890000", "100750.380000", "100751.870000", "100753.360000", "100754.850000", "100756.340000", "100757.830000", "100759.320000", "100800.810000", "100802.300000", "100803.790000", "100805.280000", "100806.770000", "100808.260000", "100809.750000", "100811.240000", "100812.730000", "100814.220000", "100815.710000", "100817.200000", "100818.690000", "100820.180000", "100821.670000", "100823.160000", "100824.650000", "100826.140000", "100827.630000", "100829.120000", "100830.610000", "100832.100000", "100833.590000", "100835.080000", "100836.570000", "100838.060000", "100839.550000", "100841.040000", "100842.530000", "100844.020000", "100845.510000", "100847.000000", "100848.490000", "100849.980000", "100851.470000", "100852.960000", "100854.450000", "100855.940000", "100857.430000", "100858.920000", "100900.410000", "100901.900000", "100903.390000", "100904.880000", "100906.370000", "100907.860000", "100909.350000", "100910.840000", "100912.330000", "100913.820000", "100915.310000", "100916.800000", "100918.290000", "100919.780000", "100921.270000", "100922.760000", "100924.250000", "100925.740000", "100927.230000", "100928.720000", "100930.210000", "100931.700000", "100933.190000", "100934.680000", "100936.170000", "100937.660000", "100939.150000", "100940.640000", "100942.130000", "100943.620000", "100945.110000", "100946.600000", "100948.090000", "100949.580000", "100951.070000", "100952.560000", "100954.050000", "100955.540000", "100957.030000", "100958.520000", "101000.010000", "101001.500000", "101002.990000", "101004.480000", "101005.970000", "101007.460000", "101008.950000", "101010.440000", "101011.930000", "101013.420000", "101014.910000", "101016.400000", "101017.890000", "101019.380000", "101020.870000", "101022.360000", "101023.850000", "101025.340000", "101026.830000", "101028.320000", "101029.810000", "101031.300000", "101032.790000", "101034.280000", "101035.770000", "101037.260000", "101038.750000", "101040.240000", "101041.730000", "101043.220000", "101044.710000", "101046.200000", "101047.690000", "101049.180000", "101050.670000", "101052.160000", "101053.650000", "101055.140000", "101056.630000", "101058.120000", "101059.610000", "101101.100000", "101102.590000", "101104.080000", "101105.570000", "101107.060000", "101108.550000", "101110.040000", "101111.530000", "101113.020000", "101114.510000", "101116.000000", "101117.490000", "101118.980000", "101120.470000", "101121.960000", "101123.450000", "101124.940000", "101126.430000", "101127.920000", "101129.410000", "101130.900000", "101132.390000", "101133.880000", "101135.370000", "101136.860000", "101138.350000", "101139.840000", "101141.330000", "101142.820000", "101144.310000", "101145.800000", "101147.290000", "101148.780000", "101150.270000", "101151.760000", "101153.250000", "101154.740000", "101156.230000", "101157.720000", "101159.210000", "101200.700000", "101202.190000", "101203.680000", "101205.170000", "101206.660000", "101208.150000", "101209.640000", "101211.130000", "101212.620000", "101214.110000", "101215.600000", "101217.090000", "101218.580000", "101220.070000", "101221.560000", "101223.050000", "101224.540000", "101226.030000", "101227.520000", "101229.010000", "101230.500000", "101231.990000", "101233.480000", "101234.970000", "101236.460000", "101237.950000", "101239.440000", "101240.930000", "101242.420000", "101243.910000", "101245.400000", "101246.890000", "101248.380000", "101249.870000", "101251.360000", "101252.850000", "101254.340000", "101255.830000", "101257.320000", "101258.810000", "101300.300000", "101301.790000", "101303.280000", "101304.770000", "101306.260000", "101307.750000", "101309.240000", "101310.730000", "101312.220000", "101313.710000", "101315.200000", "101316.690000", "101318.180000", "101319.670000", "101321.160000", "101322.650000", "101324.140000", "101325.630000", "101327.120000", "101328.610000", "101330.100000", "101331.590000", "101333.080000", "101334.570000", "101336.060000", "101337.550000", "101339.040000", "101340.530000", "101342.020000", "101343.510000", "101345.000000", "101346.490000", "101347.980000", "101349.470000", "101350.960000", "101352.450000", "101353.940000", "101355.430000", "101356.920000", "101358.410000", "101359.900000", "101401.390000", "101402.880000", "101404.370000", "101405.860000", "101407.350000", "101408.840000", "101410.330000", "101411.820000", "101413.310000", "101414.800000", "101416.290000", "101417.780000", "101419.270000", "101420.760000", "101422.250000", "101423.740000", "101425.230000", "101426.720000", "101428.210000", "101429.700000", "101431.190000", "101432.680000", "101434.170000", "101435.660000", "101437.150000", "101438.640000", "101440.130000", "101441.620000", "101443.110000", "101444.600000", "101446.090000", "101447.580000", "101449.070000", "101450.560000", "101452.050000", "101453.540000", "101455.030000", "101456.520000", "101458.010000", "101459.500000", "101500.990000", "101502.480000", "101503.970000", "101505.460000", "101506.950000", "101508.440000", "101509.930000", "101511.420000", "101512.910000", "101514.400000", "101515.890000", "101517.380000", "101518.870000", "101520.360000", "101521.850000", "101523.340000", "101524.830000", "101526.320000", "101527.810000", "101529.300000", "101530.790000", "101532.280000", "101533.770000", "101535.260000", "101536.750000", "101538.240000", "101539.730000", "101541.220000", "101542.710000", "101544.200000", "101545.690000", "101547.180000", "101548.670000", "101550.160000", "101551.650000", "101553.140000", "101554.630000", "101556.120000", "101557.610000", "101559.100000", "101600.590000", "101602.080000", "101603.570000", "101605.060000", "101606.550000", "101608.040000", "101609.530000", "101611.020000", "101612.510000", "101614.000000", "101615.490000", "101616.980000", "101618.470000", "101619.960000", "101621.450000", "101622.940000", "101624.430000", "101625.920000", "101627.410000", "101628.900000", "101630.390000", "101631.880000", "101633.370000", "101634.860000", "101636.350000", "101637.840000", "101639.330000", "101640.820000", "101642.310000", "101643.800000", "101645.290000", "101646.780000", "101648.270000", "101649.760000", "101651.250000", "101652.740000", "101654.230000", "101655.720000", "101657.210000", "101658.700000", "101700.190000", "101701.680000", "101703.170000", "101704.660000", "101706.150000", "101707.640000", "101709.130000", "101710.620000", "101712.110000", "101713.600000", "101715.090000", "101716.580000", "101718.070000", "101719.560000", "101721.050000", "101722.540000", "101724.030000", "101725.520000", "101727.010000", "101728.500000", "101729.990000", "101731.480000", "101732.970000", "101734.460000", "101735.950000", "101737.440000", "101738.930000", "101740.420000", "101741.910000", "101743.400000", "101744.890000"],
      "ContentTime": ["100744.162000", "100744.165000", "100744.168000", "100744.171000", "100744.174000", "100744.177000", "100744.180000", "100744.183000", "100744.186000", "100744.188000", "100744.191000", "100744.194000", "100744.197000", "100744.200000", "100744.211000", "100744.214000", "100744.217000", "100744.219000", "100744.222000", "100744.225000", "100744.228000", "100744.231000", "100804.136000", "100804.139000", "100804.142000", "100804.146000", "100804.149000", "100804.152000", "100804.155000", "100804.159000", "100804.162000", "100804.165000", "100804.168000", "100804.171000", "100804.174000", "100804.177000", "100804.180000", "100804.183000", "100804.185000", "100804.188000", "100804.191000", "100804.194000", "100824.135000", "100824.138000", "100824.141000", "100824.144000", "100824.147000", "100824.150000", "100824.152000", "100824.155000", "100824.158000", "100824.161000", "100824.164000", "100824.167000", "100824.170000", "100824.173000", "100824.176000", "100824.178000", "100824.181000", "100824.184000", "100824.187000", "100824.190000", "100824.193000", "100844.135000", "100844.138000", "100844.141000", "100844.144000", "100844.147000", "100844.150000", "100844.153000", "100844.155000", "100844.158000", "100844.161000", "100844.164000", "100844.167000", "100844.170000", "100844.173000", "100844.176000", "100844.179000", "100844.187000", "100844.190000", "100844.193000", "100844.196000", "100904.135000", "100904.138000", "100904.141000", "100904.144000", "100904.147000", "100904.150000", "100904.153000", "100904.155000", "100904.158000", "100904.161000", "100904.164000", "100904.167000", "100904.170000", "100904.173000", "100904.176000", "100904.179000", "100904.182000", "100904.185000", "100904.187000", "100904.190000", "100944.136000", "100944.139000", "100944.142000", "100944.145000", "100944.148000", "100944.151000", "100944.154000", "100944.157000", "100944.160000", "100944.162000", "100944.165000", "100944.168000", "100944.171000", "100944.174000", "100944.177000", "100944.180000", "100944.203000", "100944.205000", "100944.208000", "100944.211000", "100944.214000", "100944.217000", "100944.220000", "100944.223000", "100944.226000", "100944.229000", "100944.231000", "101024.136000", "101024.139000", "101024.142000", "101024.145000", "101024.148000", "101024.151000", "101024.154000", "101024.157000", "101024.160000", "101024.163000", "101024.166000", "101024.169000", "101024.172000", "101024.175000", "101024.177000", "101024.180000", "101024.183000", "101024.186000", "101024.189000", "101024.192000", "101024.195000", "101024.198000", "101024.201000", "101024.204000", "101024.206000", "101024.209000", "101104.135000", "101104.138000", "101104.141000", "101104.144000", "101104.147000", "101104.150000", "101104.153000", "101104.156000", "101104.158000", "101104.161000", "101104.164000", "101104.167000", "101104.170000", "101104.173000", "101104.176000", "101104.179000", "101104.182000", "101104.185000", "101104.188000", "101104.191000", "101104.193000", "101104.196000", "101104.199000", "101104.202000", "101104.205000", "101104.208000", "101104.211000", "101144.136000", "101144.139000", "101144.142000", "101144.145000", "101144.148000", "101144.151000", "101144.154000", "101144.157000", "101144.160000", "101144.162000", "101144.165000", "101144.168000", "101144.171000", "101144.174000", "101144.177000", "101144.180000", "101144.183000", "101144.186000", "101144.189000", "101144.192000", "101144.195000", "101144.198000", "101144.200000", "101144.203000", "101144.206000", "101144.209000", "101144.212000", "101224.136000", "101224.139000", "101224.142000", "101224.147000", "101224.150000", "101224.153000", "101224.155000", "101224.158000", "101224.161000", "101224.164000", "101224.167000", "101224.170000", "101224.173000", "101224.176000", "101224.179000", "101224.182000", "101224.185000", "101224.188000", "101224.190000", "101224.193000", "101224.196000", "101224.199000", "101224.202000", "101224.205000", "101224.208000", "101224.211000", "101224.214000", "101304.135000", "101304.138000", "101304.141000", "101304.144000", "101304.147000", "101304.150000", "101304.153000", "101304.157000", "101304.160000", "101304.163000", "101304.166000", "101304.169000", "101304.172000", "101304.175000", "101304.178000", "101304.181000", "101304.184000", "101304.187000", "101304.189000", "101304.192000", "101304.195000", "101304.198000", "101304.201000", "101304.204000", "101304.207000", "101304.210000", "101304.213000", "101344.135000", "101344.138000", "101344.141000", "101344.144000", "101344.147000", "101344.150000", "101344.153000", "101344.156000", "101344.159000", "101344.162000", "101344.165000", "101344.167000", "101344.170000", "101344.173000", "101344.176000", "101344.179000", "101344.182000", "101344.185000", "101344.188000", "101344.191000", "101344.194000", "101344.197000", "101344.200000", "101344.202000", "101344.205000", "101344.208000", "101344.211000", "101424.136000", "101424.139000", "101424.142000", "101424.145000", "101424.148000", "101424.151000", "101424.154000", "101424.157000", "101424.160000", "101424.163000", "101424.166000", "101424.168000", "101424.171000", "101424.174000", "101424.177000", "101424.180000", "101424.183000", "101424.186000", "101424.189000", "101424.192000", "101424.195000", "101424.198000", "101424.201000", "101424.203000", "101424.206000", "101424.209000", "101424.212000", "101504.136000", "101504.139000", "101504.142000", "101504.145000", "101504.148000", "101504.151000", "101504.154000", "101504.157000", "101504.160000", "101504.163000", "101504.166000", "101504.168000", "101504.171000", "101504.174000", "101504.177000", "101504.180000", "101504.183000", "101504.186000", "101504.189000", "101504.192000", "101504.195000", "101504.198000", "101504.200000", "101504.203000", "101504.206000", "101504.209000", "101524.135000", "101524.138000", "101524.141000", "101524.144000", "101524.147000", "101524.150000", "101524.153000", "101524.156000", "101524.159000", "101524.162000", "101524.165000", "101524.168000", "101524.170000", "101524.173000", "101604.135000", "101604.138000", "101604.141000", "101604.145000", "101604.148000", "101604.151000", "101604.154000", "101604.157000", "101604.160000", "101604.163000", "101604.166000", "101604.169000", "101604.172000", "101604.174000", "101604.177000", "101604.180000", "101604.183000", "101604.187000", "101604.189000", "101604.193000", "101604.195000", "101604.198000", "101604.201000", "101604.204000", "101604.207000", "101604.211000", "101604.214000", "101644.136000", "101644.139000", "101644.143000", "101644.146000", "101644.149000", "101644.151000", "101644.154000", "101644.157000", "101644.160000", "101644.163000", "101644.166000", "101644.169000", "101644.172000", "101644.175000", "101644.179000", "101644.182000", "101644.185000", "101644.188000", "101644.191000", "101644.194000", "101644.197000", "101644.200000", "101644.203000", "101644.206000", "101644.209000", "101644.212000", "101724.136000", "101724.139000", "101724.142000", "101724.145000", "101724.148000", "101724.151000", "101724.154000", "101724.157000", "101724.160000", "101724.162000", "101724.165000", "101724.168000", "101724.171000", "101724.174000", "101724.177000", "101724.180000", "101724.183000", "101724.186000", "101724.198000", "101724.201000", "101724.204000", "101724.207000", "101724.209000", "101724.212000", "101724.215000", "101724.218000", "101724.221000", "101746.834000", "101746.837000", "101746.840000", "101746.843000", "101746.846000", "101746.849000", "101746.852000", "101746.855000", "101746.858000", "101746.861000", "101746.864000", "101746.867000", "101746.870000", "101746.873000", "101746.876000", "101746.879000"],
