{
  "AcquisitionMatrixPE": 104,
  "AcquisitionNumber": 1,
  "AcquisitionTime": "09:54:25.887500",
  "BandwidthPerPixelPhaseEncode": 17.17,
  "BaseResolution": 104,
  "BodyPartExamined": "BRAIN",
  "CoilString": "HC1-7;NC1_2",
  "ConsistencyInfo": "N4_VE11C_LATEST_20160120",
  "ConversionSoftware": "dcm2niix",
  "ConversionSoftwareVersion": "v1.0.20190902",
  "DerivedVendorReportedEchoSpacing": 0.000560011,
  "DeviceSerialNumber": "167006",
  "DwellTime": 2.1e-06,
  "EchoTime": 0.037,
  "EchoTrainLength": 104,
  "EffectiveEchoSpacing": 0.000560011,
  "FlipAngle": 52,
  "ImageComments": "Unaliased_MB4_PE3_LB",
  "ImageOrientationPatientDICOM": [0.997302, 0.00417262, -0.0732922, -0.0212388, 0.972087, -0.233658],
  "ImageType": [
    "ORIGINAL",
    "PRIMARY",
    "M",
    "MB",
    "ND",
    "MOSAIC"
],
  "ImagingFrequency": 123.259,
  "InPlanePhaseEncodingDirectionDICOM": "COL",
  "InstitutionAddress": "Chemin_Queen-Mary_4565_Montreal_District_CA_H3W_1W5",
  "InstitutionName": "IUGM",
  "InstitutionalDepartmentName": "Department",
  "MRAcquisitionType": "2D",
  "MagneticFieldStrength": 3,
  "Manufacturer": "Siemens",
  "ManufacturersModelName": "Prisma_fit",
  "Modality": "MR",
  "MultibandAccelerationFactor": 4,
  "PartialFourier": 1,
  "PatientPosition": "HFS",
  "PercentPhaseFOV": 100,
  "PhaseEncodingDirection": "j",
  "PhaseEncodingSteps": 104,
  "PhaseResolution": 1,
  "PixelBandwidth": 2290,
  "ProcedureStepDescription": "video_friends",
  "ProtocolName": "func_task-friends-s03e23b",
  "PulseSequenceDetails": "%CustomerSeq%_cmrr_mbep2d_bold",
  "ReceiveCoilActiveElements": "HC1-7;NC1,2",
  "ReceiveCoilName": "HeadNeck_64",
  "ReconMatrixPE": 104,
  "RepetitionTime": 1.49,
  "SAR": 0.0290903,
  "ScanOptions": "FS",
  "ScanningSequence": "EP",
  "SequenceName": "epfid2d1_104",
  "SequenceVariant": "SK_SS",
  "SeriesDescription": "func_task-friends-s03e23b",
  "SeriesNumber": 15,
  "ShimSetting": [600, -7239, -8852, 616, -66, -281, 11, 46],
  "SliceThickness": 2,
  "SliceTiming": [0, 0.785, 0.0975, 0.8825, 0.195, 0.98, 0.295, 1.0775, 0.3925, 1.175, 0.49, 1.275, 0.5875, 1.3725, 0.685, 0, 0.785, 0.0975, 0.8825, 0.195, 0.98, 0.295, 1.0775, 0.3925, 1.175, 0.49, 1.275, 0.5875, 1.3725, 0.685, 0, 0.785, 0.0975, 0.8825, 0.195, 0.98, 0.295, 1.0775, 0.3925, 1.175, 0.49, 1.275, 0.5875, 1.3725, 0.685, 0, 0.785, 0.0975, 0.8825, 0.195, 0.98, 0.295, 1.0775, 0.3925, 1.175, 0.49, 1.275, 0.5875, 1.3725, 0.685],
  "SoftwareVersions": "syngo_MR_E11",
  "SpacingBetweenSlices": 2,
  "StationName": "MRC35049",
  "TaskName": "s03e23b",
  "TotalReadoutTime": 0.0576811,
  "TxRefAmp": 217.663,
  "WipMemBlock": "187f0bc6-baac-42c1-8b1f-c65e11a4f16d||Sequence: R016 ve11c/master r/e634e98; Dec 19 2017 11:00:25 by eja",
  "dcmmeta_affine": [
    [-1.9946035146713257, -0.042477529495954514, -0.14054277539253235, 104.16841125488281],
    [-0.008345238864421844, 1.9441736936569214, -0.4691685736179352, -82.02093505859375],
    [-0.14658433198928833, 0.467316210269928, 1.9391051530838013, -56.864139556884766],
    [0.0, 0.0, 0.0, 1.0]
],
  "dcmmeta_reorient_transform": [
    [0.0, -1.0, 0.0, 103.0],
    [1.0, 0.0, 0.0, 0.0],
    [0.0, 0.0, 1.0, 0.0],
    [0.0, 0.0, 0.0, 1.0]
],
  "dcmmeta_shape": [104, 104, 60, 470],
  "dcmmeta_slice_dim": 2,
  "dcmmeta_version": 0.6,
  "global": {
    "const": {
      "AcquisitionMatrix": [104, 0, 0, 104],
      "AngioFlag": "N",
      "BitsAllocated": 16,
      "BitsStored": 16,
      "BodyPartExamined": "BRAIN",
      "Columns": 832,
      "EchoNumbers": 1,
      "EchoTime": 37.0,
      "EchoTrainLength": 104,
      "FlipAngle": 52.0,
      "HighBit": 15,
      "ImageOrientationPatient": [0.99730178362679, 0.00417261965629, -0.0732921661572, -0.0212387642069, 0.97208682938064, -0.2336581071559],
      "ImagePositionPatient": [-810.36710337052, -828.94582912802, 214.72923079005],
      "ImageType": [
        "ORIGINAL",
        "PRIMARY",
        "M",
        "MB",
        "ND",
        "MOSAIC"
],
      "ImagedNucleus": "1H",
      "ImagingFrequency": 123.25909,
      "InPlanePhaseEncodingDirection": "COL",
      "MRAcquisitionType": "2D",
      "MagneticFieldStrength": 3.0,
      "Manufacturer": "SIEMENS",
      "ManufacturerModelName": "Prisma_fit",
      "Modality": "MR",
      "NumberOfAverages": 1.0,
      "NumberOfPhaseEncodingSteps": 104,
      "PercentPhaseFieldOfView": 100.0,
      "PercentSampling": 100.0,
      "PerformedProcedureStepStartTime": "085508.704000",
      "PhotometricInterpretation": "MONOCHROME2",
      "PixelBandwidth": 2290.0,
      "PixelRepresentation": 0,
      "PixelSpacing": [2.0, 2.0],
      "ProtocolName": "func_task-friends-s03e23b",
      "RepetitionTime": 1490.0,
      "Rows": 832,
      "SAR": 0.02909030372666,
      "SamplesPerPixel": 1,
      "ScanOptions": "FS",
      "ScanningSequence": "EP",
      "SequenceName": "epfid2d1_104",
      "SequenceVariant": [
        "SK",
        "SS"
],
      "SeriesDescription": "func_task-friends-s03e23b",
      "SeriesNumber": 15,
      "SeriesTime": "095535.362000",
      "SliceLocation": -43.212006004442,
      "SliceThickness": 2.0,
      "SmallestImagePixelValue": 0,
      "SoftwareVersions": "syngo MR E11",
      "SpacingBetweenSlices": 2.0000000456127,
      "SpecificCharacterSet": "ISO_IR 100",
      "StudyID": "1",
      "StudyTime": "085508.580000",
      "TransmitCoilName": "Body",
      "VariableFlipAngleFlag": "N",
      "WindowCenterWidthExplanation": "Algo1",
      "dBdt": 0.0},
    "slices": {}
  },
  "time": {
    "samples": {
      "AcquisitionNumber": [1, 2, 3, 4, 5, 6, 7, 8, 9, 10, 11, 12, 13, 14, 15, 16, 17, 18, 19, 20, 21, 22, 23, 24, 25, 26, 27, 28, 29, 30, 31, 32, 33, 34, 35, 36, 37, 38, 39, 40, 41, 42, 43, 44, 45, 46, 47, 48, 49, 50, 51, 52, 53, 54, 55, 56, 57, 58, 59, 60, 61, 62, 63, 64, 65, 66, 67, 68, 69, 70, 71, 72, 73, 74, 75, 76, 77, 78, 79, 80, 81, 82, 83, 84, 85, 86, 87, 88, 89, 90, 91, 92, 93, 94, 95, 96, 97, 98, 99, 100, 101, 102, 103, 104, 105, 106, 107, 108, 109, 110, 111, 112, 113, 114, 115, 116, 117, 118, 119, 120, 121, 122, 123, 124, 125, 126, 127, 128, 129, 130, 131, 132, 133, 134, 135, 136, 137, 138, 139, 140, 141, 142, 143, 144, 145, 146, 147, 148, 149, 150, 151, 152, 153, 154, 155, 156, 157, 158, 159, 160, 161, 162, 163, 164, 165, 166, 167, 168, 169, 170, 171, 172, 173, 174, 175, 176, 177, 178, 179, 180, 181, 182, 183, 184, 185, 186, 187, 188, 189, 190, 191, 192, 193, 194, 195, 196, 197, 198, 199, 200, 201, 202, 203, 204, 205, 206, 207, 208, 209, 210, 211, 212, 213, 214, 215, 216, 217, 218, 219, 220, 221, 222, 223, 224, 225, 226, 227, 228, 229, 230, 231, 232, 233, 234, 235, 236, 237, 238, 239, 240, 241, 242, 243, 244, 245, 246, 247, 248, 249, 250, 251, 252, 253, 254, 255, 256, 257, 258, 259, 260, 261, 262, 263, 264, 265, 266, 267, 268, 269, 270, 271, 272, 273, 274, 275, 276, 277, 278, 279, 280, 281, 282, 283, 284, 285, 286, 287, 288, 289, 290, 291, 292, 293, 294, 295, 296, 297, 298, 299, 300, 301, 302, 303, 304, 305, 306, 307, 308, 309, 310, 311, 312, 313, 314, 315, 316, 317, 318, 319, 320, 321, 322, 323, 324, 325, 326, 327, 328, 329, 330, 331, 332, 333, 334, 335, 336, 337, 338, 339, 340, 341, 342, 343, 344, 345, 346, 347, 348, 349, 350, 351, 352, 353, 354, 355, 356, 357, 358, 359, 360, 361, 362, 363, 364, 365, 366, 367, 368, 369, 370, 371, 372, 373, 374, 375, 376, 377, 378, 379, 380, 381, 382, 383, 384, 385, 386, 387, 388, 389, 390, 391, 392, 393, 394, 395, 396, 397, 398, 399, 400, 401, 402, 403, 404, 405, 406, 407, 408, 409, 410, 411, 412, 413, 414, 415, 416, 417, 418, 419, 420, 421, 422, 423, 424, 425, 426, 427, 428, 429, 430, 431, 432, 433, 434, 435, 436, 437, 438, 439, 440, 441, 442, 443, 444, 445, 446, 447, 448, 449, 450, 451, 452, 453, 454, 455, 456, 457, 458, 459, 460, 461, 462, 463, 464, 465, 466, 467, 468, 469, 470],
      "AcquisitionTime": ["095425.887500", "095427.377500", "095428.867500", "095430.357500", "095431.847500", "095433.337500", "095434.827500", "095436.317500", "095437.807500", "095439.297500", "095440.787500", "095442.277500", "095443.767500", "095445.257500", "095446.747500", "095448.237500", "095449.727500", "095451.217500", "095452.707500", "095454.197500", "095455.687500", "095457.177500", "095458.667500", "095500.157500", "095501.647500", "095503.137500", "095504.627500", "095506.117500", "095507.607500", "095509.097500", "095510.587500", "095512.077500", "095513.567500", "095515.057500", "095516.547500", "095518.037500", "095519.527500", "095521.017500", "095522.507500", "095523.997500", "095525.487500", "095526.977500", "095528.467500", "095529.957500", "095531.447500", "095532.937500", "095534.427500", "095535.917500", "095537.407500", "095538.897500", "095540.387500", "095541.877500", "095543.367500", "095544.857500", "095546.347500", "095547.837500", "095549.327500", "095550.817500", "095552.307500", "095553.797500", "095555.287500", "095556.777500", "095558.267500", "095559.757500", "095601.247500", "095602.737500", "095604.227500", "095605.717500", "095607.207500", "095608.697500", "095610.187500", "095611.677500", "095613.167500", "095614.657500", "095616.147500", "095617.637500", "095619.127500", "095620.617500", "095622.107500", "095623.597500", "095625.087500", "095626.577500", "095628.067500", "095629.557500", "095631.047500", "095632.537500", "095634.027500", "095635.517500", "095637.007500", "095638.497500", "095639.987500", "095641.477500", "095642.967500", "095644.457500", "095645.947500", "095647.437500", "095648.927500", "095650.417500", "095651.907500", "095653.397500", "095654.887500", "095656.377500", "095657.867500", "095659.357500", "095700.847500", "095702.337500", "095703.827500", "095705.317500", "095706.807500", "095708.297500", "095709.787500", "095711.277500", "095712.767500", "095714.257500", "095715.747500", "095717.237500", "095718.727500", "095720.217500", "095721.707500", "095723.197500", "095724.687500", "095726.177500", "095727.667500", "095729.157500", "095730.647500", "095732.137500", "095733.627500", "095735.117500", "095736.607500", "095738.097500", "095739.587500", "095741.077500", "095742.567500", "095744.057500", "095745.547500", "095747.037500", "095748.527500", "095750.017500", "095751.507500", "095752.997500", "095754.487500", "095755.977500", "095757.467500", "095758.957500", "095800.447500", "095801.937500", "095803.427500", "095804.917500", "095806.407500", "095807.897500", "095809.387500", "095810.877500", "095812.367500", "095813.857500", "095815.347500", "095816.837500", "095818.327500", "095819.817500", "095821.307500", "095822.797500", "095824.287500", "095825.777500", "095827.267500", "095828.757500", "095830.247500", "095831.737500", "095833.227500", "095834.717500", "095836.207500", "095837.697500", "095839.187500", "095840.677500", "095842.167500", "095843.657500", "095845.147500", "095846.637500", "095848.127500", "095849.617500", "095851.107500", "095852.597500", "095854.087500", "095855.577500", "095857.067500", "095858.557500", "095900.047500", "095901.537500", "095903.027500", "095904.517500", "095906.007500", "095907.497500", "095908.987500", "095910.477500", "095911.967500", "095913.457500", "095914.947500", "095916.437500", "095917.927500", "095919.417500", "095920.907500", "095922.397500", "095923.887500", "095925.377500", "095926.867500", "095928.357500", "095929.847500", "095931.337500", "095932.827500", "095934.317500", "095935.807500", "095937.297500", "095938.787500", "095940.277500", "095941.767500", "095943.257500", "095944.747500", "095946.237500", "095947.727500", "095949.217500", "095950.707500", "095952.197500", "095953.687500", "095955.177500", "095956.667500", "095958.157500", "095959.647500", "100001.137500", "100002.627500", "100004.117500", "100005.607500", "100007.097500", "100008.587500", "100010.077500", "100011.567500", "100013.057500", "100014.547500", "100016.037500", "100017.527500", "100019.017500", "100020.507500", "100021.997500", "100023.487500", "100024.977500", "100026.467500", "100027.957500", "100029.447500", "100030.937500", "100032.427500", "100033.917500", "100035.407500", "100036.897500", "100038.387500", "100039.877500", "100041.367500", "100042.857500", "100044.347500", "100045.837500", "100047.327500", "100048.817500", "100050.307500", "100051.797500", "100053.287500", "100054.777500", "100056.267500", "100057.757500", "100059.247500", "100100.737500", "100102.227500", "100103.717500", "100105.207500", "100106.697500", "100108.187500", "100109.677500", "100111.167500", "100112.657500", "100114.147500", "100115.637500", "100117.127500", "100118.617500", "100120.107500", "100121.597500", "100123.087500", "100124.577500", "100126.067500", "100127.557500", "100129.047500", "100130.537500", "100132.027500", "100133.517500", "100135.007500", "100136.497500", "100137.987500", "100139.477500", "100140.967500", "100142.457500", "100143.947500", "100145.437500", "100146.927500", "100148.417500", "100149.907500", "100151.397500", "100152.887500", "100154.377500", "100155.867500", "100157.357500", "100158.847500", "100200.337500", "100201.827500", "100203.317500", "100204.807500", "100206.297500", "100207.787500", "100209.277500", "100210.767500", "100212.257500", "100213.747500", "100215.237500", "100216.727500", "100218.217500", "100219.707500", "100221.197500", "100222.687500", "100224.177500", "100225.667500", "100227.157500", "100228.647500", "100230.137500", "100231.627500", "100233.117500", "100234.607500", "100236.097500", "100237.587500", "100239.077500", "100240.567500", "100242.057500", "100243.547500", "100245.037500", "100246.527500", "100248.017500", "100249.507500", "100250.997500", "100252.487500", "100253.977500", "100255.467500", "100256.957500", "100258.447500", "100259.937500", "100301.427500", "100302.917500", "100304.407500", "100305.897500", "100307.387500", "100308.877500", "100310.367500", "100311.857500", "100313.347500", "100314.837500", "100316.327500", "100317.817500", "100319.307500", "100320.797500", "100322.287500", "100323.777500", "100325.267500", "100326.757500", "100328.247500", "100329.737500", "100331.227500", "100332.717500", "100334.207500", "100335.697500", "100337.187500", "100338.677500", "100340.167500", "100341.657500", "100343.147500", "100344.637500", "100346.127500", "100347.617500", "100349.107500", "100350.597500", "100352.087500", "100353.577500", "100355.067500", "100356.557500", "100358.047500", "100359.537500", "100401.027500", "100402.517500", "100404.007500", "100405.497500", "100406.987500", "100408.477500", "100409.967500", "100411.457500", "100412.947500", "100414.437500", "100415.927500", "100417.417500", "100418.907500", "100420.397500", "100421.887500", "100423.377500", "100424.867500", "100426.357500", "100427.847500", "100429.337500", "100430.827500", "100432.317500", "100433.807500", "100435.297500", "100436.787500", "100438.277500", "100439.767500", "100441.257500", "100442.747500", "100444.237500", "100445.727500", "100447.217500", "100448.707500", "100450.197500", "100451.687500", "100453.177500", "100454.667500", "100456.157500", "100457.647500", "100459.137500", "100500.627500", "100502.117500", "100503.607500", "100505.097500", "100506.587500", "100508.077500", "100509.567500", "100511.057500", "100512.547500", "100514.037500", "100515.527500", "100517.017500", "100518.507500", "100519.997500", "100521.487500", "100522.977500", "100524.467500", "100525.957500", "100527.447500", "100528.937500", "100530.427500", "100531.917500", "100533.407500", "100534.897500", "100536.387500", "100537.877500", "100539.367500", "100540.857500", "100542.347500", "100543.837500", "100545.327500", "100546.817500", "100548.307500", "100549.797500", "100551.287500", "100552.777500", "100554.267500", "100555.757500", "100557.247500", "100558.737500", "100600.227500", "100601.717500", "100603.207500", "100604.697500"],
      "ContentTime": ["095535.364000", "095535.368000", "095535.371000", "095535.374000", "095535.377000", "095535.379000", "095535.391000", "095535.394000", "095535.397000", "095535.399000", "095535.405000", "095535.413000", "095535.416000", "095535.419000", "095555.334000", "095555.337000", "095555.340000", "095555.343000", "095555.346000", "095555.349000", "095555.352000", "095555.355000", "095555.358000", "095555.361000", "095555.363000", "095555.378000", "095555.381000", "095555.384000", "095555.387000", "095555.392000", "095555.395000", "095555.398000", "095555.401000", "095555.404000", "095555.407000", "095615.334000", "095615.337000", "095615.340000", "095615.343000", "095615.346000", "095615.348000", "095615.351000", "095615.354000", "095615.357000", "095615.360000", "095615.363000", "095615.366000", "095615.369000", "095615.372000", "095615.375000", "095615.377000", "095615.380000", "095615.383000", "095615.386000", "095615.389000", "095635.335000", "095635.338000", "095635.341000", "095635.344000", "095635.347000", "095635.349000", "095635.352000", "095635.355000", "095635.358000", "095635.361000", "095635.375000", "095635.378000", "095635.381000", "095635.383000", "095635.386000", "095635.389000", "095635.392000", "095635.395000", "095635.398000", "095635.401000", "095655.335000", "095655.338000", "095655.341000", "095655.344000", "095655.347000", "095655.350000", "095655.352000", "095655.355000", "095655.358000", "095655.361000", "095655.364000", "095655.367000", "095655.370000", "095655.373000", "095655.376000", "095655.379000", "095655.382000", "095655.385000", "095655.388000", "095655.391000", "095735.335000", "095735.338000", "095735.341000", "095735.344000", "095735.347000", "095735.350000", "095735.353000", "095735.356000", "095735.359000", "095735.361000", "095735.364000", "095735.367000", "095735.370000", "095735.373000", "095735.376000", "095735.379000", "095735.382000", "095735.385000", "095735.388000", "095735.391000", "095735.393000", "095735.396000", "095735.399000", "095735.402000", "095735.405000", "095735.408000", "095735.411000", "095735.414000", "095735.417000", "095735.420000", "095735.423000", "095815.334000", "095815.337000", "095815.340000", "095815.343000", "095815.346000", "095815.349000", "095815.352000", "095815.355000", "095815.357000", "095815.360000", "095815.363000", "095815.366000", "095815.369000", "095815.372000", "095815.375000", "095815.378000", "095815.381000", "095815.384000", "095815.387000", "095815.390000", "095815.393000", "095815.396000", "095815.398000", "095815.401000", "095815.404000", "095815.407000", "095815.410000", "095855.335000", "095855.338000", "095855.341000", "095855.344000", "095855.347000", "095855.350000", "095855.353000", "095855.356000", "095855.359000", "095855.362000", "095855.365000", "095855.368000", "095855.370000", "095855.373000", "095855.376000", "095855.379000", "095855.382000", "095855.385000", "095855.388000", "095855.391000", "095855.394000", "095855.397000", "095855.400000", "095855.403000", "095855.406000", "095855.409000", "095855.411000", "095935.335000", "095935.338000", "095935.341000", "095935.344000", "095935.347000", "095935.350000", "095935.353000", "095935.356000", "095935.359000", "095935.362000", "095935.365000", "095935.367000", "095935.370000", "095935.373000", "095935.376000", "095935.379000", "095935.382000", "095935.385000", "095935.388000", "095935.391000", "095935.394000", "095935.397000", "095935.400000", "095935.403000", "095935.406000", "095935.409000", "095935.412000", "100015.334000", "100015.337000", "100015.340000", "100015.343000", "100015.347000", "100015.350000", "100015.353000", "100015.356000", "100015.359000", "100015.362000", "100015.365000", "100015.367000", "100015.370000", "100015.373000", "100015.376000", "100015.379000", "100015.382000", "100015.385000", "100015.388000", "100015.391000", "100015.404000", "100015.408000", "100015.410000", "100015.413000", "100015.416000", "100015.419000", "100055.334000", "100055.337000", "100055.340000", "100055.343000", "100055.346000", "100055.349000", "100055.352000", "100055.355000", "100055.365000", "100055.368000", "100055.371000", "100055.374000", "100055.377000", "100055.380000", "100055.382000", "100055.385000", "100055.388000", "100055.391000", "100055.394000", "100055.397000", "100055.400000", "100055.403000", "100055.406000", "100055.409000", "100055.412000", "100055.415000", "100055.418000", "100135.335000", "100135.338000", "100135.341000", "100135.344000", "100135.347000", "100135.350000", "100135.353000", "100135.356000", "100135.359000", "100135.362000", "100135.365000", "100135.368000", "100135.371000", "100135.374000", "100135.377000", "100135.380000", "100135.383000", "100135.386000", "100135.388000", "100135.391000", "100135.394000", "100135.397000", "100135.400000", "100135.403000", "100135.406000", "100135.409000", "100135.412000", "100215.334000", "100215.337000", "100215.340000", "100215.343000", "100215.346000", "100215.349000", "100215.352000", "100215.355000", "100215.358000", "100215.360000", "100215.363000", "100215.366000", "100215.369000", "100215.372000", "100215.375000", "100215.378000", "100215.381000", "100215.384000", "100215.387000", "100215.390000", "100215.393000", "100215.396000", "100215.399000", "100215.402000", "100215.405000", "100215.408000", "100215.411000", "100255.334000", "100255.337000", "100255.340000", "100255.343000", "100255.346000", "100255.349000", "100255.352000", "100255.355000", "100255.358000", "100255.361000", "100255.363000", "100255.366000", "100255.369000", "100255.372000", "100255.375000", "100255.378000", "100255.381000", "100255.384000", "100255.387000", "100255.390000", "100255.393000", "100255.396000", "100255.399000", "100255.402000", "100255.405000", "100255.408000", "100255.410000", "100335.335000", "100335.338000", "100335.341000", "100335.344000", "100335.347000", "100335.350000", "100335.353000", "100335.356000", "100335.359000", "100335.362000", "100335.365000", "100335.367000", "100335.370000", "100335.373000", "100335.376000", "100335.379000", "100335.382000", "100335.385000", "100335.388000", "100335.391000", "100335.394000", "100335.397000", "100335.400000", "100335.403000", "100335.406000", "100335.409000", "100335.412000", "100415.335000", "100415.338000", "100415.341000", "100415.344000", "100415.347000", "100415.350000", "100415.353000", "100415.356000", "100415.359000", "100415.362000", "100415.365000", "100415.368000", "100415.372000", "100415.375000", "100415.378000", "100415.381000", "100415.383000", "100415.386000", "100415.389000", "100415.392000", "100415.395000", "100415.398000", "100415.401000", "100415.404000", "100415.407000", "100415.410000", "100455.334000", "100455.337000", "100455.340000", "100455.343000", "100455.346000", "100455.349000", "100455.352000", "100455.355000", "100455.358000", "100455.361000", "100455.363000", "100455.366000", "100455.369000", "100455.372000", "100455.375000", "100455.378000", "100455.381000", "100455.384000", "100455.387000", "100455.390000", "100455.393000", "100455.414000", "100455.417000", "100455.420000", "100455.423000", "100455.426000", "100455.429000", "100535.334000", "100535.337000", "100535.340000", "100535.343000", "100535.346000", "100535.349000", "100535.352000", "100535.355000", "100535.358000", "100535.361000", "100535.364000", "100535.367000", "100535.369000", "100535.372000", "100535.375000", "100535.378000", "100535.381000", "100535.384000", "100535.387000", "100535.390000", "100535.393000", "100535.396000", "100535.399000", "100535.402000", "100535.405000", "100535.408000", "100535.411000", "100607.171000", "100607.174000", "100607.177000", "100607.180000", "100607.183000", "100607.186000", "100607.189000", "100607.192000", "100607.195000", "100607.198000", "100607.201000", "100607.204000", "100607.207000", "100607.210000", "100607.213000", "100607.216000", "100607.219000", "100607.222000", "100607.225000", "100607.228000", "100607.231000", "100607.234000"],
