{
  "AcquisitionMatrixPE": 104,
  "AcquisitionNumber": 1,
  "AcquisitionTime": "09:30:2.697500",
  "BandwidthPerPixelPhaseEncode": 17.17,
  "BaseResolution": 104,
  "BodyPartExamined": "BRAIN",
  "CoilString": "HC1-7;NC1_2",
  "ConsistencyInfo": "N4_VE11C_LATEST_20160120",
  "ConversionSoftware": "dcm2niix",
  "ConversionSoftwareVersion": "v1.0.20190902",
  "DerivedVendorReportedEchoSpacing": 0.000560011,
  "DeviceSerialNumber": "167006",
  "DwellTime": 2.1e-06,
  "EchoTime": 0.037,
  "EchoTrainLength": 104,
  "EffectiveEchoSpacing": 0.000560011,
  "FlipAngle": 52,
  "ImageComments": "Unaliased_MB4_PE3_LB",
  "ImageOrientationPatientDICOM": [0.997302, 0.00417262, -0.0732922, -0.0212388, 0.972087, -0.233658],
  "ImageType": [
    "ORIGINAL",
    "PRIMARY",
    "M",
    "MB",
    "ND",
    "MOSAIC"
],
  "ImagingFrequency": 123.259,
  "InPlanePhaseEncodingDirectionDICOM": "COL",
  "InstitutionAddress": "Chemin_Queen-Mary_4565_Montreal_District_CA_H3W_1W5",
  "InstitutionName": "IUGM",
  "InstitutionalDepartmentName": "Department",
  "MRAcquisitionType": "2D",
  "MagneticFieldStrength": 3,
  "Manufacturer": "Siemens",
  "ManufacturersModelName": "Prisma_fit",
  "Modality": "MR",
  "MultibandAccelerationFactor": 4,
  "PartialFourier": 1,
  "PatientPosition": "HFS",
  "PercentPhaseFOV": 100,
  "PhaseEncodingDirection": "j",
  "PhaseEncodingSteps": 104,
  "PhaseResolution": 1,
  "PixelBandwidth": 2290,
  "ProcedureStepDescription": "video_friends",
  "ProtocolName": "func_task-friends-s03e22b",
  "PulseSequenceDetails": "%CustomerSeq%_cmrr_mbep2d_bold",
  "ReceiveCoilActiveElements": "HC1-7;NC1,2",
  "ReceiveCoilName": "HeadNeck_64",
  "ReconMatrixPE": 104,
  "RepetitionTime": 1.49,
  "SAR": 0.0290885,
  "ScanOptions": "FS",
  "ScanningSequence": "EP",
  "SequenceName": "epfid2d1_104",
  "SequenceVariant": "SK_SS",
  "SeriesDescription": "func_task-friends-s03e22b",
  "SeriesNumber": 11,
  "ShimSetting": [600, -7239, -8852, 616, -66, -281, 11, 46],
  "SliceThickness": 2,
  "SliceTiming": [0, 0.7825, 0.0975, 0.88, 0.195, 0.98, 0.2925, 1.0775, 0.39, 1.175, 0.49, 1.2725, 0.5875, 1.37, 0.685, 0, 0.7825, 0.0975, 0.88, 0.195, 0.98, 0.2925, 1.0775, 0.39, 1.175, 0.49, 1.2725, 0.5875, 1.37, 0.685, 0, 0.7825, 0.0975, 0.88, 0.195, 0.98, 0.2925, 1.0775, 0.39, 1.175, 0.49, 1.2725, 0.5875, 1.37, 0.685, 0, 0.7825, 0.0975, 0.88, 0.195, 0.98, 0.2925, 1.0775, 0.39, 1.175, 0.49, 1.2725, 0.5875, 1.37, 0.685],
  "SoftwareVersions": "syngo_MR_E11",
  "SpacingBetweenSlices": 2,
  "StationName": "MRC35049",
  "TaskName": "s03e22b",
  "TotalReadoutTime": 0.0576811,
  "TxRefAmp": 217.663,
  "WipMemBlock": "146df7fd-b21c-41ca-bc8c-c1872df62841||Sequence: R016 ve11c/master r/e634e98; Dec 19 2017 11:00:25 by eja",
  "dcmmeta_affine": [
    [-1.9946035146713257, -0.042477529495954514, -0.14054277539253235, 104.16841125488281],
    [-0.008345238864421844, 1.9441736936569214, -0.4691685736179352, -82.02093505859375],
    [-0.14658433198928833, 0.467316210269928, 1.9391051530838013, -56.864139556884766],
    [0.0, 0.0, 0.0, 1.0]
],
  "dcmmeta_reorient_transform": [
    [0.0, -1.0, 0.0, 103.0],
    [1.0, 0.0, 0.0, 0.0],
    [0.0, 0.0, 1.0, 0.0],
    [0.0, 0.0, 0.0, 1.0]
],
  "dcmmeta_shape": [104, 104, 60, 463],
  "dcmmeta_slice_dim": 2,
  "dcmmeta_version": 0.6,
  "global": {
    "const": {
      "AcquisitionMatrix": [104, 0, 0, 104],
      "AngioFlag": "N",
      "BitsAllocated": 16,
      "BitsStored": 16,
      "BodyPartExamined": "BRAIN",
      "Columns": 832,
      "EchoNumbers": 1,
      "EchoTime": 37.0,
      "EchoTrainLength": 104,
      "FlipAngle": 52.0,
      "HighBit": 15,
      "ImageOrientationPatient": [0.99730178362679, 0.00417261965629, -0.0732921661572, -0.0212387642069, 0.97208682938064, -0.2336581071559],
      "ImagePositionPatient": [-810.36710337052, -828.94582912802, 214.72923079005],
      "ImageType": [
        "ORIGINAL",
        "PRIMARY",
        "M",
        "MB",
        "ND",
        "MOSAIC"
],
      "ImagedNucleus": "1H",
      "ImagingFrequency": 123.259084,
      "InPlanePhaseEncodingDirection": "COL",
      "MRAcquisitionType": "2D",
      "MagneticFieldStrength": 3.0,
      "Manufacturer": "SIEMENS",
      "ManufacturerModelName": "Prisma_fit",
      "Modality": "MR",
      "NumberOfAverages": 1.0,
      "NumberOfPhaseEncodingSteps": 104,
      "PercentPhaseFieldOfView": 100.0,
      "PercentSampling": 100.0,
      "PerformedProcedureStepStartTime": "085508.704000",
      "PhotometricInterpretation": "MONOCHROME2",
      "PixelBandwidth": 2290.0,
      "PixelRepresentation": 0,
      "PixelSpacing": [2.0, 2.0],
      "ProtocolName": "func_task-friends-s03e22b",
      "RepetitionTime": 1490.0,
      "Rows": 832,
      "SAR": 0.02908845875956,
      "SamplesPerPixel": 1,
      "ScanOptions": "FS",
      "ScanningSequence": "EP",
      "SequenceName": "epfid2d1_104",
      "SequenceVariant": [
        "SK",
        "SS"
],
      "SeriesDescription": "func_task-friends-s03e22b",
      "SeriesNumber": 11,
      "SeriesTime": "093124.172000",
      "SliceLocation": -43.212006004442,
      "SliceThickness": 2.0,
      "SmallestImagePixelValue": 0,
      "SoftwareVersions": "syngo MR E11",
      "SpacingBetweenSlices": 2.0000000456127,
      "SpecificCharacterSet": "ISO_IR 100",
      "StudyID": "1",
      "StudyTime": "085508.580000",
      "TransmitCoilName": "Body",
      "VariableFlipAngleFlag": "N",
      "WindowCenterWidthExplanation": "Algo1",
      "dBdt": 0.0},
    "slices": {}
  },
  "time": {
    "samples": {
      "AcquisitionNumber": [1, 2, 3, 4, 5, 6, 7, 8, 9, 10, 11, 12, 13, 14, 15, 16, 17, 18, 19, 20, 21, 22, 23, 24, 25, 26, 27, 28, 29, 30, 31, 32, 33, 34, 35, 36, 37, 38, 39, 40, 41, 42, 43, 44, 45, 46, 47, 48, 49, 50, 51, 52, 53, 54, 55, 56, 57, 58, 59, 60, 61, 62, 63, 64, 65, 66, 67, 68, 69, 70, 71, 72, 73, 74, 75, 76, 77, 78, 79, 80, 81, 82, 83, 84, 85, 86, 87, 88, 89, 90, 91, 92, 93, 94, 95, 96, 97, 98, 99, 100, 101, 102, 103, 104, 105, 106, 107, 108, 109, 110, 111, 112, 113, 114, 115, 116, 117, 118, 119, 120, 121, 122, 123, 124, 125, 126, 127, 128, 129, 130, 131, 132, 133, 134, 135, 136, 137, 138, 139, 140, 141, 142, 143, 144, 145, 146, 147, 148, 149, 150, 151, 152, 153, 154, 155, 156, 157, 158, 159, 160, 161, 162, 163, 164, 165, 166, 167, 168, 169, 170, 171, 172, 173, 174, 175, 176, 177, 178, 179, 180, 181, 182, 183, 184, 185, 186, 187, 188, 189, 190, 191, 192, 193, 194, 195, 196, 197, 198, 199, 200, 201, 202, 203, 204, 205, 206, 207, 208, 209, 210, 211, 212, 213, 214, 215, 216, 217, 218, 219, 220, 221, 222, 223, 224, 225, 226, 227, 228, 229, 230, 231, 232, 233, 234, 235, 236, 237, 238, 239, 240, 241, 242, 243, 244, 245, 246, 247, 248, 249, 250, 251, 252, 253, 254, 255, 256, 257, 258, 259, 260, 261, 262, 263, 264, 265, 266, 267, 268, 269, 270, 271, 272, 273, 274, 275, 276, 277, 278, 279, 280, 281, 282, 283, 284, 285, 286, 287, 288, 289, 290, 291, 292, 293, 294, 295, 296, 297, 298, 299, 300, 301, 302, 303, 304, 305, 306, 307, 308, 309, 310, 311, 312, 313, 314, 315, 316, 317, 318, 319, 320, 321, 322, 323, 324, 325, 326, 327, 328, 329, 330, 331, 332, 333, 334, 335, 336, 337, 338, 339, 340, 341, 342, 343, 344, 345, 346, 347, 348, 349, 350, 351, 352, 353, 354, 355, 356, 357, 358, 359, 360, 361, 362, 363, 364, 365, 366, 367, 368, 369, 370, 371, 372, 373, 374, 375, 376, 377, 378, 379, 380, 381, 382, 383, 384, 385, 386, 387, 388, 389, 390, 391, 392, 393, 394, 395, 396, 397, 398, 399, 400, 401, 402, 403, 404, 405, 406, 407, 408, 409, 410, 411, 412, 413, 414, 415, 416, 417, 418, 419, 420, 421, 422, 423, 424, 425, 426, 427, 428, 429, 430, 431, 432, 433, 434, 435, 436, 437, 438, 439, 440, 441, 442, 443, 444, 445, 446, 447, 448, 449, 450, 451, 452, 453, 454, 455, 456, 457, 458, 459, 460, 461, 462, 463],
      "AcquisitionTime": ["093002.697500", "093004.187500", "093005.677500", "093007.167500", "093008.657500", "093010.147500", "093011.637500", "093013.127500", "093014.617500", "093016.107500", "093017.597500", "093019.087500", "093020.577500", "093022.067500", "093023.557500", "093025.047500", "093026.537500", "093028.027500", "093029.517500", "093031.007500", "093032.497500", "093033.987500", "093035.477500", "093036.967500", "093038.457500", "093039.947500", "093041.437500", "093042.927500", "093044.417500", "093045.907500", "093047.397500", "093048.887500", "093050.377500", "093051.867500", "093053.357500", "093054.847500", "093056.337500", "093057.827500", "093059.317500", "093100.807500", "093102.297500", "093103.787500", "093105.277500", "093106.767500", "093108.257500", "093109.747500", "093111.237500", "093112.727500", "093114.217500", "093115.707500", "093117.197500", "093118.687500", "093120.177500", "093121.667500", "093123.157500", "093124.647500", "093126.137500", "093127.627500", "093129.117500", "093130.607500", "093132.097500", "093133.587500", "093135.077500", "093136.567500", "093138.057500", "093139.547500", "093141.037500", "093142.527500", "093144.017500", "093145.507500", "093146.997500", "093148.487500", "093149.977500", "093151.467500", "093152.957500", "093154.447500", "093155.937500", "093157.427500", "093158.917500", "093200.407500", "093201.897500", "093203.387500", "093204.877500", "093206.367500", "093207.857500", "093209.347500", "093210.837500", "093212.327500", "093213.817500", "093215.307500", "093216.797500", "093218.287500", "093219.777500", "093221.267500", "093222.757500", "093224.247500", "093225.737500", "093227.227500", "093228.717500", "093230.207500", "093231.697500", "093233.187500", "093234.677500", "093236.167500", "093237.657500", "093239.147500", "093240.637500", "093242.127500", "093243.617500", "093245.107500", "093246.597500", "093248.087500", "093249.577500", "093251.067500", "093252.557500", "093254.047500", "093255.537500", "093257.027500", "093258.517500", "093300.007500", "093301.497500", "093302.987500", "093304.477500", "093305.967500", "093307.457500", "093308.947500", "093310.437500", "093311.927500", "093313.417500", "093314.907500", "093316.397500", "093317.887500", "093319.377500", "093320.867500", "093322.357500", "093323.847500", "093325.337500", "093326.827500", "093328.317500", "093329.807500", "093331.297500", "093332.787500", "093334.277500", "093335.767500", "093337.257500", "093338.747500", "093340.237500", "093341.727500", "093343.217500", "093344.707500", "093346.197500", "093347.687500", "093349.177500", "093350.667500", "093352.157500", "093353.647500", "093355.137500", "093356.627500", "093358.117500", "093359.607500", "093401.097500", "093402.587500", "093404.077500", "093405.567500", "093407.057500", "093408.547500", "093410.037500", "093411.527500", "093413.017500", "093414.507500", "093415.997500", "093417.487500", "093418.977500", "093420.467500", "093421.957500", "093423.447500", "093424.937500", "093426.427500", "093427.917500", "093429.407500", "093430.897500", "093432.387500", "093433.877500", "093435.367500", "093436.857500", "093438.347500", "093439.837500", "093441.327500", "093442.817500", "093444.307500", "093445.797500", "093447.287500", "093448.777500", "093450.267500", "093451.757500", "093453.247500", "093454.737500", "093456.227500", "093457.717500", "093459.207500", "093500.697500", "093502.187500", "093503.677500", "093505.167500", "093506.657500", "093508.147500", "093509.637500", "093511.127500", "093512.617500", "093514.107500", "093515.597500", "093517.087500", "093518.577500", "093520.067500", "093521.557500", "093523.047500", "093524.537500", "093526.027500", "093527.517500", "093529.007500", "093530.497500", "093531.987500", "093533.477500", "093534.967500", "093536.457500", "093537.947500", "093539.437500", "093540.927500", "093542.417500", "093543.907500", "093545.397500", "093546.887500", "093548.377500", "093549.867500", "093551.357500", "093552.847500", "093554.337500", "093555.827500", "093557.317500", "093558.807500", "093600.297500", "093601.787500", "093603.277500", "093604.767500", "093606.257500", "093607.747500", "093609.237500", "093610.727500", "093612.217500", "093613.707500", "093615.197500", "093616.687500", "093618.177500", "093619.667500", "093621.157500", "093622.647500", "093624.137500", "093625.627500", "093627.117500", "093628.607500", "093630.097500", "093631.587500", "093633.077500", "093634.567500", "093636.057500", "093637.547500", "093639.037500", "093640.527500", "093642.017500", "093643.507500", "093644.997500", "093646.487500", "093647.977500", "093649.467500", "093650.957500", "093652.447500", "093653.937500", "093655.427500", "093656.917500", "093658.407500", "093659.897500", "093701.387500", "093702.877500", "093704.367500", "093705.857500", "093707.347500", "093708.837500", "093710.327500", "093711.817500", "093713.307500", "093714.797500", "093716.287500", "093717.777500", "093719.267500", "093720.757500", "093722.247500", "093723.737500", "093725.227500", "093726.717500", "093728.207500", "093729.697500", "093731.187500", "093732.677500", "093734.167500", "093735.657500", "093737.147500", "093738.637500", "093740.127500", "093741.617500", "093743.107500", "093744.597500", "093746.087500", "093747.577500", "093749.067500", "093750.557500", "093752.047500", "093753.537500", "093755.027500", "093756.517500", "093758.007500", "093759.497500", "093800.987500", "093802.477500", "093803.967500", "093805.457500", "093806.947500", "093808.437500", "093809.927500", "093811.417500", "093812.907500", "093814.397500", "093815.887500", "093817.377500", "093818.867500", "093820.357500", "093821.847500", "093823.337500", "093824.827500", "093826.317500", "093827.807500", "093829.297500", "093830.787500", "093832.277500", "093833.767500", "093835.257500", "093836.747500", "093838.237500", "093839.727500", "093841.217500", "093842.707500", "093844.197500", "093845.687500", "093847.177500", "093848.667500", "093850.157500", "093851.647500", "093853.137500", "093854.627500", "093856.117500", "093857.607500", "093859.097500", "093900.587500", "093902.077500", "093903.567500", "093905.057500", "093906.547500", "093908.037500", "093909.527500", "093911.017500", "093912.507500", "093913.997500", "093915.487500", "093916.977500", "093918.467500", "093919.957500", "093921.447500", "093922.937500", "093924.427500", "093925.917500", "093927.407500", "093928.897500", "093930.387500", "093931.877500", "093933.367500", "093934.857500", "093936.347500", "093937.837500", "093939.327500", "093940.817500", "093942.307500", "093943.797500", "093945.287500", "093946.777500", "093948.267500", "093949.757500", "093951.247500", "093952.737500", "093954.227500", "093955.717500", "093957.207500", "093958.697500", "094000.187500", "094001.677500", "094003.167500", "094004.657500", "094006.147500", "094007.637500", "094009.127500", "094010.617500", "094012.107500", "094013.597500", "094015.087500", "094016.577500", "094018.067500", "094019.557500", "094021.047500", "094022.537500", "094024.027500", "094025.517500", "094027.007500", "094028.497500", "094029.987500", "094031.477500", "094032.967500", "094034.457500", "094035.947500", "094037.437500", "094038.927500", "094040.417500", "094041.907500", "094043.397500", "094044.887500", "094046.377500", "094047.867500", "094049.357500", "094050.847500", "094052.337500", "094053.827500", "094055.317500", "094056.807500", "094058.297500", "094059.787500", "094101.277500", "094102.767500", "094104.257500", "094105.747500", "094107.237500", "094108.727500", "094110.217500", "094111.707500", "094113.197500", "094114.687500", "094116.177500", "094117.667500", "094119.157500", "094120.647500", "094122.137500", "094123.627500", "094125.117500", "094126.607500", "094128.097500", "094129.587500", "094131.077500"],
      "ContentTime": ["093124.174000", "093124.181000", "093124.184000", "093124.187000", "093124.190000", "093124.192000", "093124.195000", "093124.198000", "093124.201000", "093124.209000", "093124.212000", "093124.215000", "093124.218000", "093124.221000", "093124.231000", "093124.234000", "093124.237000", "093124.240000", "093124.243000", "093124.246000", "093124.249000", "093124.251000", "093124.254000", "093124.257000", "093124.260000", "093124.263000", "093124.266000", "093124.269000", "093144.135000", "093144.138000", "093144.141000", "093144.144000", "093144.147000", "093144.149000", "093144.152000", "093144.155000", "093144.158000", "093144.161000", "093144.164000", "093144.174000", "093144.176000", "093144.179000", "093144.182000", "093144.185000", "093144.188000", "093144.191000", "093144.194000", "093144.197000", "093204.135000", "093204.138000", "093204.150000", "093204.153000", "093204.156000", "093204.159000", "093204.162000", "093204.165000", "093204.167000", "093204.170000", "093204.173000", "093204.176000", "093204.179000", "093204.182000", "093204.185000", "093204.188000", "093204.191000", "093204.194000", "093204.196000", "093204.199000", "093224.136000", "093224.139000", "093224.150000", "093224.153000", "093224.156000", "093224.158000", "093224.161000", "093224.164000", "093224.167000", "093224.170000", "093224.173000", "093224.176000", "093224.179000", "093224.182000", "093224.184000", "093224.187000", "093224.190000", "093224.193000", "093224.196000", "093224.199000", "093304.136000", "093304.139000", "093304.142000", "093304.145000", "093304.148000", "093304.151000", "093304.154000", "093304.156000", "093304.159000", "093304.162000", "093304.165000", "093304.168000", "093304.171000", "093304.174000", "093304.177000", "093304.180000", "093304.183000", "093304.185000", "093304.188000", "093304.191000", "093304.194000", "093304.197000", "093304.200000", "093304.203000", "093304.206000", "093304.209000", "093304.212000", "093304.214000", "093304.217000", "093304.220000", "093304.223000", "093304.226000", "093304.229000", "093344.135000", "093344.138000", "093344.141000", "093344.144000", "093344.147000", "093344.150000", "093344.153000", "093344.156000", "093344.158000", "093344.161000", "093344.164000", "093344.167000", "093344.170000", "093344.173000", "093344.176000", "093344.179000", "093344.182000", "093344.185000", "093344.187000", "093344.190000", "093344.193000", "093344.196000", "093344.199000", "093344.202000", "093344.205000", "093344.208000", "093344.211000", "093424.135000", "093424.138000", "093424.141000", "093424.144000", "093424.147000", "093424.150000", "093424.153000", "093424.156000", "093424.158000", "093424.161000", "093424.164000", "093424.167000", "093424.170000", "093424.173000", "093424.176000", "093424.179000", "093424.182000", "093424.184000", "093424.187000", "093424.190000", "093424.193000", "093424.196000", "093424.199000", "093424.202000", "093424.210000", "093424.213000", "093424.216000", "093504.136000", "093504.139000", "093504.142000", "093504.145000", "093504.148000", "093504.151000", "093504.154000", "093504.156000", "093504.159000", "093504.162000", "093504.165000", "093504.168000", "093504.171000", "093504.174000", "093504.177000", "093504.180000", "093504.183000", "093504.186000", "093504.188000", "093504.191000", "093504.195000", "093504.198000", "093504.201000", "093504.204000", "093504.207000", "093504.210000", "093524.136000", "093524.139000", "093524.142000", "093524.145000", "093524.148000", "093524.151000", "093524.154000", "093524.157000", "093524.159000", "093524.162000", "093524.165000", "093524.168000", "093524.171000", "093524.174000", "093604.135000", "093604.138000", "093604.141000", "093604.144000", "093604.147000", "093604.150000", "093604.153000", "093604.156000", "093604.159000", "093604.162000", "093604.165000", "093604.168000", "093604.171000", "093604.174000", "093604.176000", "093604.179000", "093604.182000", "093604.185000", "093604.188000", "093604.191000", "093604.194000", "093604.197000", "093604.200000", "093604.203000", "093604.205000", "093604.226000", "093604.229000", "093644.135000", "093644.138000", "093644.142000", "093644.146000", "093644.149000", "093644.152000", "093644.156000", "093644.159000", "093644.162000", "093644.165000", "093644.168000", "093644.171000", "093644.174000", "093644.177000", "093644.180000", "093644.183000", "093644.186000", "093644.189000", "093644.192000", "093644.195000", "093644.197000", "093644.200000", "093644.203000", "093644.206000", "093644.209000", "093644.212000", "093724.136000", "093724.139000", "093724.142000", "093724.145000", "093724.148000", "093724.151000", "093724.154000", "093724.156000", "093724.159000", "093724.162000", "093724.165000", "093724.168000", "093724.171000", "093724.174000", "093724.177000", "093724.180000", "093724.183000", "093724.186000", "093724.189000", "093724.192000", "093724.194000", "093724.197000", "093724.200000", "093724.203000", "093724.206000", "093724.209000", "093724.212000", "093804.135000", "093804.138000", "093804.141000", "093804.144000", "093804.147000", "093804.150000", "093804.153000", "093804.156000", "093804.159000", "093804.161000", "093804.164000", "093804.167000", "093804.170000", "093804.173000", "093804.176000", "093804.179000", "093804.182000", "093804.185000", "093804.188000", "093804.191000", "093804.193000", "093804.196000", "093804.199000", "093804.202000", "093804.205000", "093804.208000", "093804.211000", "093844.135000", "093844.138000", "093844.141000", "093844.144000", "093844.147000", "093844.150000", "093844.153000", "093844.156000", "093844.159000", "093844.161000", "093844.164000", "093844.167000", "093844.170000", "093844.173000", "093844.176000", "093844.179000", "093844.182000", "093844.185000", "093844.188000", "093844.191000", "093844.194000", "093844.197000", "093844.199000", "093844.202000", "093844.205000", "093844.208000", "093844.211000", "093924.136000", "093924.139000", "093924.142000", "093924.145000", "093924.148000", "093924.151000", "093924.153000", "093924.156000", "093924.159000", "093924.162000", "093924.165000", "093924.168000", "093924.171000", "093924.174000", "093924.177000", "093924.180000", "093924.183000", "093924.186000", "093924.189000", "093924.192000", "093924.195000", "093924.198000", "093924.200000", "093924.203000", "093924.206000", "093924.209000", "093924.212000", "094004.136000", "094004.139000", "094004.142000", "094004.145000", "094004.148000", "094004.151000", "094004.154000", "094004.162000", "094004.165000", "094004.168000", "094004.171000", "094004.174000", "094004.177000", "094004.180000", "094004.183000", "094004.186000", "094004.189000", "094004.192000", "094004.195000", "094004.198000", "094004.201000", "094004.203000", "094004.206000", "094004.209000", "094004.212000", "094004.215000", "094004.218000", "094044.135000", "094044.138000", "094044.141000", "094044.144000", "094044.147000", "094044.150000", "094044.153000", "094044.156000", "094044.159000", "094044.162000", "094044.164000", "094044.167000", "094044.170000", "094044.173000", "094044.176000", "094044.179000", "094044.182000", "094044.185000", "094044.188000", "094044.191000", "094044.194000", "094044.197000", "094044.200000", "094044.202000", "094044.205000", "094044.208000", "094044.220000", "094124.135000", "094124.139000", "094124.142000", "094124.145000", "094124.147000", "094124.150000", "094124.153000", "094124.156000", "094124.159000", "094124.162000", "094124.165000", "094124.168000", "094124.171000", "094124.174000", "094124.177000", "094124.180000", "094124.183000", "094124.186000", "094124.189000", "094124.192000", "094124.195000", "094124.198000", "094124.201000", "094124.204000", "094124.206000", "094124.209000", "094133.276000", "094133.279000", "094133.282000", "094133.285000", "094133.288000", "094133.291000", "094133.294000"],
