{
  "AcquisitionMatrixPE": 104,
  "AcquisitionNumber": 1,
  "AcquisitionTime": "18:12:54.610000",
  "BandwidthPerPixelPhaseEncode": 17.17,
  "BaseResolution": 104,
  "BodyPartExamined": "BRAIN",
  "CoilString": "HC1-7;NC1_2",
  "ConsistencyInfo": "N4_VE11C_LATEST_20160120",
  "ConversionSoftware": "dcm2niix",
  "ConversionSoftwareVersion": "v1.0.20190720  (JP2:OpenJPEG) GCC7.3.0",
  "DerivedVendorReportedEchoSpacing": 0.000560011,
  "DeviceSerialNumber": "167006",
  "DwellTime": 2.1e-06,
  "EchoTime": 0.037,
  "EchoTrainLength": 104,
  "EffectiveEchoSpacing": 0.000560011,
  "FlipAngle": 52,
  "ImageComments": "Unaliased_MB4_PE3_LB",
  "ImageOrientationPatientDICOM": [0.998738, -0.0465922, -0.0187743, 0.0334806, 0.896057, -0.442676],
  "ImageType": [
    "ORIGINAL",
    "PRIMARY",
    "M",
    "MB",
    "ND",
    "MOSAIC"
],
  "ImagingFrequency": 123.259,
  "InPlanePhaseEncodingDirectionDICOM": "COL",
  "InstitutionAddress": "Chemin_Queen-Mary_4565_Montreal_District_CA_H3W_1W5",
  "InstitutionName": "IUGM",
  "InstitutionalDepartmentName": "Department",
  "MRAcquisitionType": "2D",
  "MagneticFieldStrength": 3,
  "Manufacturer": "Siemens",
  "ManufacturersModelName": "Prisma_fit",
  "Modality": "MR",
  "MultibandAccelerationFactor": 4,
  "PartialFourier": 1,
  "PatientPosition": "HFS",
  "PercentPhaseFOV": 100,
  "PhaseEncodingDirection": "j",
  "PhaseEncodingSteps": 104,
  "PhaseResolution": 1,
  "PixelBandwidth": 2290,
  "ProcedureStepDescription": "video_friends",
  "ProtocolName": "func_task-s01e01a",
  "PulseSequenceDetails": "%CustomerSeq%_cmrr_mbep2d_bold",
  "ReceiveCoilActiveElements": "HC1-7;NC1,2",
  "ReceiveCoilName": "HeadNeck_64",
  "ReconMatrixPE": 104,
  "RepetitionTime": 1.49,
  "SAR": 0.0370963,
  "ScanOptions": "FS",
  "ScanningSequence": "EP",
  "SequenceName": "epfid2d1_104",
  "SequenceVariant": "SK_SS",
  "SeriesDescription": "func_task-s01e01a",
  "SeriesNumber": 18,
  "ShimSetting": [603, -7254, -8819, 447, -14, -383, -1, 22],
  "SliceThickness": 2,
  "SliceTiming": [0, 0.785, 0.1, 0.8825, 0.1975, 0.98, 0.295, 1.08, 0.3925, 1.1775, 0.49, 1.275, 0.59, 1.3725, 0.6875, 0, 0.785, 0.1, 0.8825, 0.1975, 0.98, 0.295, 1.08, 0.3925, 1.1775, 0.49, 1.275, 0.59, 1.3725, 0.6875, 0, 0.785, 0.1, 0.8825, 0.1975, 0.98, 0.295, 1.08, 0.3925, 1.1775, 0.49, 1.275, 0.59, 1.3725, 0.6875, 0, 0.785, 0.1, 0.8825, 0.1975, 0.98, 0.295, 1.08, 0.3925, 1.1775, 0.49, 1.275, 0.59, 1.3725, 0.6875],
  "SoftwareVersions": "syngo_MR_E11",
  "SpacingBetweenSlices": 2,
  "StationName": "MRC35049",
  "TaskName": "friends",
  "TotalReadoutTime": 0.0576811,
  "TxRefAmp": 239.471,
  "WipMemBlock": "614ac92f-bbd8-4ec6-b38e-cb53984402b3||Sequence: R016 ve11c/master r/e634e98; Dec 19 2017 11:00:25 by eja",
  "dcmmeta_affine": [
    [-1.9974751472473145, 0.06696116924285889, -0.07489620894193649, 97.9878158569336],
    [0.09318441897630692, 1.792113184928894, -0.8829761147499084, -68.77477264404297],
    [-0.03754868730902672, 0.8853510022163391, 1.7929706573486328, -62.93124008178711],
    [0.0, 0.0, 0.0, 1.0]
],
  "dcmmeta_reorient_transform": [
    [0.0, -1.0, 0.0, 103.0],
    [1.0, 0.0, 0.0, 0.0],
    [0.0, 0.0, 1.0, 0.0],
    [0.0, 0.0, 0.0, 1.0]
],
  "dcmmeta_shape": [104, 104, 60, 482],
  "dcmmeta_slice_dim": 2,
  "dcmmeta_version": 0.6,
  "global": {
    "const": {
      "AcquisitionMatrix": [104, 0, 0, 104],
      "AngioFlag": "N",
      "BitsAllocated": 16,
      "BitsStored": 16,
      "BodyPartExamined": "BRAIN",
      "Columns": 832,
      "EchoNumbers": 1,
      "EchoTime": 37.0,
      "EchoTrainLength": 104,
      "FlipAngle": 52.0,
      "HighBit": 15,
      "ImageOrientationPatient": [0.99873754807832, -0.0465922106566, -0.0187743432542, 0.03348058435065, 0.89605661305001, -0.4426754981709],
      "ImagePositionPatient": [-856.33961460841, -734.22297638869, 364.19539877254],
      "ImageType": [
        "ORIGINAL",
        "PRIMARY",
        "M",
        "MB",
        "ND",
        "MOSAIC"
],
      "ImagedNucleus": "1H",
      "ImagingFrequency": 123.259323,
      "InPlanePhaseEncodingDirection": "COL",
      "MRAcquisitionType": "2D",
      "MagneticFieldStrength": 3.0,
      "Manufacturer": "SIEMENS",
      "ManufacturerModelName": "Prisma_fit",
      "Modality": "MR",
      "NumberOfAverages": 1.0,
      "NumberOfPhaseEncodingSteps": 104,
      "PercentPhaseFieldOfView": 100.0,
      "PercentSampling": 100.0,
      "PerformedProcedureStepStartTime": "174355.880000",
      "PhotometricInterpretation": "MONOCHROME2",
      "PixelBandwidth": 2290.0,
      "PixelRepresentation": 0,
      "PixelSpacing": [2.0, 2.0],
      "ProtocolName": "func_task-s01e01a",
      "RepetitionTime": 1490.0,
      "Rows": 832,
      "SAR": 0.03709625113983,
      "SamplesPerPixel": 1,
      "ScanOptions": "FS",
      "ScanningSequence": "EP",
      "SequenceName": "epfid2d1_104",
      "SequenceVariant": [
        "SK",
        "SS"
],
      "SeriesDescription": "func_task-s01e01a",
      "SeriesNumber": 18,
      "SeriesTime": "181413.870000",
      "SliceLocation": -29.72314869163,
      "SliceThickness": 2.0,
      "SmallestImagePixelValue": 0,
      "SoftwareVersions": "syngo MR E11",
      "SpacingBetweenSlices": 1.9999999923531,
      "SpecificCharacterSet": "ISO_IR 100",
      "StudyID": "1",
      "StudyTime": "174355.812000",
      "TransmitCoilName": "Body",
      "VariableFlipAngleFlag": "N",
      "WindowCenterWidthExplanation": "Algo1",
      "dBdt": 0.0},
    "slices": {}
  },
  "time": {
    "samples": {
      "AcquisitionNumber": [1, 2, 3, 4, 5, 6, 7, 8, 9, 10, 11, 12, 13, 14, 15, 16, 17, 18, 19, 20, 21, 22, 23, 24, 25, 26, 27, 28, 29, 30, 31, 32, 33, 34, 35, 36, 37, 38, 39, 40, 41, 42, 43, 44, 45, 46, 47, 48, 49, 50, 51, 52, 53, 54, 55, 56, 57, 58, 59, 60, 61, 62, 63, 64, 65, 66, 67, 68, 69, 70, 71, 72, 73, 74, 75, 76, 77, 78, 79, 80, 81, 82, 83, 84, 85, 86, 87, 88, 89, 90, 91, 92, 93, 94, 95, 96, 97, 98, 99, 100, 101, 102, 103, 104, 105, 106, 107, 108, 109, 110, 111, 112, 113, 114, 115, 116, 117, 118, 119, 120, 121, 122, 123, 124, 125, 126, 127, 128, 129, 130, 131, 132, 133, 134, 135, 136, 137, 138, 139, 140, 141, 142, 143, 144, 145, 146, 147, 148, 149, 150, 151, 152, 153, 154, 155, 156, 157, 158, 159, 160, 161, 162, 163, 164, 165, 166, 167, 168, 169, 170, 171, 172, 173, 174, 175, 176, 177, 178, 179, 180, 181, 182, 183, 184, 185, 186, 187, 188, 189, 190, 191, 192, 193, 194, 195, 196, 197, 198, 199, 200, 201, 202, 203, 204, 205, 206, 207, 208, 209, 210, 211, 212, 213, 214, 215, 216, 217, 218, 219, 220, 221, 222, 223, 224, 225, 226, 227, 228, 229, 230, 231, 232, 233, 234, 235, 236, 237, 238, 239, 240, 241, 242, 243, 244, 245, 246, 247, 248, 249, 250, 251, 252, 253, 254, 255, 256, 257, 258, 259, 260, 261, 262, 263, 264, 265, 266, 267, 268, 269, 270, 271, 272, 273, 274, 275, 276, 277, 278, 279, 280, 281, 282, 283, 284, 285, 286, 287, 288, 289, 290, 291, 292, 293, 294, 295, 296, 297, 298, 299, 300, 301, 302, 303, 304, 305, 306, 307, 308, 309, 310, 311, 312, 313, 314, 315, 316, 317, 318, 319, 320, 321, 322, 323, 324, 325, 326, 327, 328, 329, 330, 331, 332, 333, 334, 335, 336, 337, 338, 339, 340, 341, 342, 343, 344, 345, 346, 347, 348, 349, 350, 351, 352, 353, 354, 355, 356, 357, 358, 359, 360, 361, 362, 363, 364, 365, 366, 367, 368, 369, 370, 371, 372, 373, 374, 375, 376, 377, 378, 379, 380, 381, 382, 383, 384, 385, 386, 387, 388, 389, 390, 391, 392, 393, 394, 395, 396, 397, 398, 399, 400, 401, 402, 403, 404, 405, 406, 407, 408, 409, 410, 411, 412, 413, 414, 415, 416, 417, 418, 419, 420, 421, 422, 423, 424, 425, 426, 427, 428, 429, 430, 431, 432, 433, 434, 435, 436, 437, 438, 439, 440, 441, 442, 443, 444, 445, 446, 447, 448, 449, 450, 451, 452, 453, 454, 455, 456, 457, 458, 459, 460, 461, 462, 463, 464, 465, 466, 467, 468, 469, 470, 471, 472, 473, 474, 475, 476, 477, 478, 479, 480, 481, 482],
      "AcquisitionTime": ["181254.610000", "181256.100000", "181257.590000", "181259.080000", "181300.570000", "181302.060000", "181303.550000", "181305.040000", "181306.530000", "181308.020000", "181309.510000", "181311.000000", "181312.490000", "181313.980000", "181315.470000", "181316.960000", "181318.450000", "181319.940000", "181321.430000", "181322.920000", "181324.410000", "181325.900000", "181327.390000", "181328.880000", "181330.370000", "181331.860000", "181333.350000", "181334.840000", "181336.330000", "181337.820000", "181339.310000", "181340.800000", "181342.290000", "181343.780000", "181345.270000", "181346.760000", "181348.250000", "181349.740000", "181351.230000", "181352.720000", "181354.210000", "181355.700000", "181357.190000", "181358.680000", "181400.170000", "181401.660000", "181403.150000", "181404.640000", "181406.130000", "181407.620000", "181409.110000", "181410.600000", "181412.090000", "181413.580000", "181415.070000", "181416.560000", "181418.050000", "181419.540000", "181421.030000", "181422.520000", "181424.010000", "181425.500000", "181426.990000", "181428.480000", "181429.970000", "181431.460000", "181432.950000", "181434.440000", "181435.930000", "181437.420000", "181438.910000", "181440.400000", "181441.890000", "181443.380000", "181444.870000", "181446.360000", "181447.850000", "181449.340000", "181450.830000", "181452.320000", "181453.810000", "181455.300000", "181456.790000", "181458.280000", "181459.770000", "181501.260000", "181502.750000", "181504.240000", "181505.730000", "181507.220000", "181508.710000", "181510.200000", "181511.690000", "181513.180000", "181514.670000", "181516.160000", "181517.650000", "181519.140000", "181520.630000", "181522.120000", "181523.610000", "181525.100000", "181526.590000", "181528.080000", "181529.570000", "181531.060000", "181532.550000", "181534.040000", "181535.530000", "181537.020000", "181538.510000", "181540.000000", "181541.490000", "181542.980000", "181544.470000", "181545.960000", "181547.450000", "181548.940000", "181550.430000", "181551.920000", "181553.410000", "181554.900000", "181556.390000", "181557.880000", "181559.370000", "181600.860000", "181602.350000", "181603.840000", "181605.330000", "181606.820000", "181608.310000", "181609.800000", "181611.290000", "181612.780000", "181614.270000", "181615.760000", "181617.250000", "181618.740000", "181620.230000", "181621.720000", "181623.210000", "181624.700000", "181626.190000", "181627.680000", "181629.170000", "181630.660000", "181632.150000", "181633.640000", "181635.130000", "181636.620000", "181638.110000", "181639.600000", "181641.090000", "181642.580000", "181644.070000", "181645.560000", "181647.050000", "181648.540000", "181650.030000", "181651.520000", "181653.010000", "181654.500000", "181655.990000", "181657.480000", "181658.970000", "181700.460000", "181701.950000", "181703.440000", "181704.930000", "181706.420000", "181707.910000", "181709.400000", "181710.890000", "181712.380000", "181713.870000", "181715.360000", "181716.850000", "181718.340000", "181719.830000", "181721.320000", "181722.810000", "181724.300000", "181725.790000", "181727.280000", "181728.770000", "181730.260000", "181731.750000", "181733.240000", "181734.730000", "181736.220000", "181737.710000", "181739.200000", "181740.690000", "181742.180000", "181743.670000", "181745.160000", "181746.650000", "181748.140000", "181749.630000", "181751.120000", "181752.610000", "181754.100000", "181755.590000", "181757.080000", "181758.570000", "181800.060000", "181801.550000", "181803.040000", "181804.530000", "181806.020000", "181807.510000", "181809.000000", "181810.490000", "181811.980000", "181813.470000", "181814.960000", "181816.450000", "181817.940000", "181819.430000", "181820.920000", "181822.410000", "181823.900000", "181825.390000", "181826.880000", "181828.370000", "181829.860000", "181831.350000", "181832.840000", "181834.330000", "181835.820000", "181837.310000", "181838.800000", "181840.290000", "181841.780000", "181843.270000", "181844.760000", "181846.250000", "181847.740000", "181849.230000", "181850.720000", "181852.210000", "181853.700000", "181855.190000", "181856.680000", "181858.170000", "181859.660000", "181901.150000", "181902.640000", "181904.130000", "181905.620000", "181907.110000", "181908.600000", "181910.090000", "181911.580000", "181913.070000", "181914.560000", "181916.050000", "181917.540000", "181919.030000", "181920.520000", "181922.010000", "181923.500000", "181924.990000", "181926.480000", "181927.970000", "181929.460000", "181930.950000", "181932.440000", "181933.930000", "181935.420000", "181936.910000", "181938.400000", "181939.890000", "181941.380000", "181942.870000", "181944.360000", "181945.850000", "181947.340000", "181948.830000", "181950.320000", "181951.810000", "181953.300000", "181954.790000", "181956.280000", "181957.770000", "181959.260000", "182000.750000", "182002.240000", "182003.730000", "182005.220000", "182006.710000", "182008.200000", "182009.690000", "182011.180000", "182012.670000", "182014.160000", "182015.650000", "182017.140000", "182018.630000", "182020.120000", "182021.610000", "182023.100000", "182024.590000", "182026.080000", "182027.570000", "182029.060000", "182030.550000", "182032.040000", "182033.530000", "182035.020000", "182036.510000", "182038.000000", "182039.490000", "182040.980000", "182042.470000", "182043.960000", "182045.450000", "182046.940000", "182048.430000", "182049.920000", "182051.410000", "182052.900000", "182054.390000", "182055.880000", "182057.370000", "182058.860000", "182100.350000", "182101.840000", "182103.330000", "182104.820000", "182106.310000", "182107.800000", "182109.290000", "182110.780000", "182112.270000", "182113.760000", "182115.250000", "182116.740000", "182118.230000", "182119.720000", "182121.210000", "182122.700000", "182124.190000", "182125.680000", "182127.170000", "182128.660000", "182130.150000", "182131.640000", "182133.130000", "182134.620000", "182136.110000", "182137.600000", "182139.090000", "182140.580000", "182142.070000", "182143.560000", "182145.050000", "182146.540000", "182148.030000", "182149.520000", "182151.010000", "182152.500000", "182153.990000", "182155.480000", "182156.970000", "182158.460000", "182159.950000", "182201.440000", "182202.930000", "182204.420000", "182205.910000", "182207.400000", "182208.890000", "182210.380000", "182211.870000", "182213.360000", "182214.850000", "182216.340000", "182217.830000", "182219.320000", "182220.810000", "182222.300000", "182223.790000", "182225.280000", "182226.770000", "182228.260000", "182229.750000", "182231.240000", "182232.730000", "182234.220000", "182235.710000", "182237.200000", "182238.690000", "182240.180000", "182241.670000", "182243.160000", "182244.650000", "182246.140000", "182247.630000", "182249.120000", "182250.610000", "182252.100000", "182253.590000", "182255.080000", "182256.570000", "182258.060000", "182259.550000", "182301.040000", "182302.530000", "182304.020000", "182305.510000", "182307.000000", "182308.490000", "182309.980000", "182311.470000", "182312.960000", "182314.450000", "182315.940000", "182317.430000", "182318.920000", "182320.410000", "182321.900000", "182323.390000", "182324.880000", "182326.370000", "182327.860000", "182329.350000", "182330.840000", "182332.330000", "182333.820000", "182335.310000", "182336.800000", "182338.290000", "182339.780000", "182341.270000", "182342.760000", "182344.250000", "182345.740000", "182347.230000", "182348.720000", "182350.210000", "182351.700000", "182353.190000", "182354.680000", "182356.170000", "182357.660000", "182359.150000", "182400.640000", "182402.130000", "182403.620000", "182405.110000", "182406.600000", "182408.090000", "182409.580000", "182411.070000", "182412.560000", "182414.050000", "182415.540000", "182417.030000", "182418.520000", "182420.010000", "182421.500000", "182422.990000", "182424.480000", "182425.970000", "182427.460000", "182428.950000", "182430.440000", "182431.930000", "182433.420000", "182434.910000", "182436.400000", "182437.890000", "182439.380000", "182440.870000", "182442.360000", "182443.850000", "182445.340000", "182446.830000", "182448.320000", "182449.810000", "182451.300000"],
      "ContentTime": ["181413.873000", "181413.876000", "181413.879000", "181413.882000", "181413.885000", "181413.888000", "181413.891000", "181413.893000", "181413.896000", "181413.902000", "181413.905000", "181413.908000", "181413.911000", "181413.914000", "181413.917000", "181413.920000", "181413.922000", "181413.925000", "181413.928000", "181413.931000", "181413.934000", "181413.937000", "181433.843000", "181433.846000", "181433.849000", "181433.852000", "181433.855000", "181433.858000", "181433.861000", "181433.863000", "181433.866000", "181433.869000", "181433.872000", "181433.875000", "181433.878000", "181433.881000", "181433.883000", "181433.886000", "181433.889000", "181433.892000", "181433.895000", "181433.898000", "181453.843000", "181453.846000", "181453.856000", "181453.859000", "181453.861000", "181453.864000", "181453.867000", "181453.870000", "181453.873000", "181453.876000", "181453.879000", "181453.882000", "181453.884000", "181453.887000", "181453.895000", "181453.898000", "181453.901000", "181453.903000", "181453.906000", "181453.909000", "181513.843000", "181513.846000", "181513.849000", "181513.852000", "181513.855000", "181513.858000", "181513.860000", "181513.863000", "181513.866000", "181513.869000", "181513.872000", "181513.875000", "181513.878000", "181513.881000", "181513.885000", "181513.888000", "181513.891000", "181513.894000", "181513.897000", "181513.900000", "181533.843000", "181533.846000", "181533.849000", "181533.852000", "181533.855000", "181533.858000", "181533.861000", "181533.863000", "181533.866000", "181533.869000", "181533.872000", "181533.875000", "181533.878000", "181533.881000", "181533.884000", "181533.887000", "181533.890000", "181533.892000", "181533.895000", "181533.898000", "181533.901000", "181613.844000", "181613.847000", "181613.850000", "181613.853000", "181613.856000", "181613.859000", "181613.862000", "181613.864000", "181613.867000", "181613.875000", "181613.877000", "181613.880000", "181613.883000", "181613.886000", "181613.889000", "181613.892000", "181613.895000", "181613.898000", "181613.901000", "181613.904000", "181613.907000", "181613.909000", "181613.912000", "181613.915000", "181613.918000", "181613.921000", "181613.924000", "181613.927000", "181613.930000", "181613.933000", "181653.843000", "181653.846000", "181653.849000", "181653.852000", "181653.855000", "181653.858000", "181653.861000", "181653.863000", "181653.866000", "181653.869000", "181653.872000", "181653.875000", "181653.878000", "181653.881000", "181653.884000", "181653.887000", "181653.890000", "181653.893000", "181653.895000", "181653.898000", "181653.901000", "181653.904000", "181653.907000", "181653.910000", "181653.913000", "181653.916000", "181653.919000", "181733.843000", "181733.847000", "181733.850000", "181733.853000", "181733.856000", "181733.859000", "181733.861000", "181733.864000", "181733.867000", "181733.870000", "181733.873000", "181733.876000", "181733.879000", "181733.901000", "181733.904000", "181733.907000", "181733.909000", "181733.912000", "181733.915000", "181733.918000", "181733.921000", "181733.924000", "181733.928000", "181733.931000", "181733.934000", "181733.937000", "181813.844000", "181813.847000", "181813.850000", "181813.853000", "181813.856000", "181813.859000", "181813.862000", "181813.864000", "181813.867000", "181813.870000", "181813.873000", "181813.876000", "181813.879000", "181813.882000", "181813.885000", "181813.888000", "181813.890000", "181813.893000", "181813.896000", "181813.899000", "181813.902000", "181813.905000", "181813.908000", "181813.911000", "181813.914000", "181813.916000", "181813.919000", "181833.844000", "181833.847000", "181833.850000", "181833.853000", "181833.856000", "181833.859000", "181833.862000", "181833.865000", "181833.867000", "181833.870000", "181833.873000", "181833.876000", "181833.879000", "181833.882000", "181913.843000", "181913.846000", "181913.849000", "181913.852000", "181913.855000", "181913.858000", "181913.861000", "181913.863000", "181913.866000", "181913.869000", "181913.872000", "181913.875000", "181913.878000", "181913.881000", "181913.884000", "181913.887000", "181913.890000", "181913.893000", "181913.895000", "181913.898000", "181913.901000", "181913.904000", "181913.907000", "181913.910000", "181913.913000", "181913.916000", "181913.918000", "181953.843000", "181953.846000", "181953.849000", "181953.852000", "181953.855000", "181953.858000", "181953.861000", "181953.864000", "181953.867000", "181953.870000", "181953.873000", "181953.876000", "181953.879000", "181953.882000", "181953.885000", "181953.888000", "181953.891000", "181953.893000", "181953.896000", "181953.899000", "181953.902000", "181953.905000", "181953.908000", "181953.911000", "181953.914000", "181953.917000", "182033.844000", "182033.847000", "182033.850000", "182033.853000", "182033.856000", "182033.859000", "182033.862000", "182033.865000", "182033.868000", "182033.871000", "182033.874000", "182033.877000", "182033.880000", "182033.882000", "182033.886000", "182033.888000", "182033.891000", "182033.894000", "182033.897000", "182033.900000", "182033.903000", "182033.906000", "182033.909000", "182033.912000", "182033.915000", "182033.917000", "182033.920000", "182113.844000", "182113.847000", "182113.850000", "182113.853000", "182113.856000", "182113.859000", "182113.862000", "182113.865000", "182113.868000", "182113.871000", "182113.874000", "182113.877000", "182113.880000", "182113.882000", "182113.886000", "182113.888000", "182113.891000", "182113.894000", "182113.897000", "182113.900000", "182113.903000", "182113.906000", "182113.909000", "182113.912000", "182113.915000", "182113.918000", "182113.920000", "182153.843000", "182153.846000", "182153.849000", "182153.852000", "182153.855000", "182153.858000", "182153.861000", "182153.863000", "182153.866000", "182153.869000", "182153.872000", "182153.875000", "182153.878000", "182153.881000", "182153.884000", "182153.887000", "182153.890000", "182153.893000", "182153.896000", "182153.898000", "182153.901000", "182153.904000", "182153.907000", "182153.910000", "182153.913000", "182153.916000", "182153.919000", "182233.852000", "182233.855000", "182233.858000", "182233.861000", "182233.864000", "182233.866000", "182233.869000", "182233.872000", "182233.875000", "182233.878000", "182233.881000", "182233.884000", "182233.887000", "182233.890000", "182233.893000", "182233.896000", "182233.899000", "182233.902000", "182233.904000", "182233.907000", "182233.910000", "182233.913000", "182233.916000", "182233.919000", "182233.922000", "182233.925000", "182233.928000", "182313.844000", "182313.847000", "182313.850000", "182313.853000", "182313.856000", "182313.859000", "182313.862000", "182313.865000", "182313.875000", "182313.878000", "182313.881000", "182313.884000", "182313.887000", "182313.890000", "182313.893000", "182313.896000", "182313.899000", "182313.902000", "182313.905000", "182313.908000", "182313.910000", "182313.913000", "182313.916000", "182313.919000", "182313.922000", "182313.925000", "182313.928000", "182353.843000", "182353.846000", "182353.849000", "182353.852000", "182353.855000", "182353.858000", "182353.861000", "182353.865000", "182353.868000", "182353.871000", "182353.874000", "182353.877000", "182353.880000", "182353.883000", "182353.886000", "182353.889000", "182353.892000", "182353.895000", "182353.898000", "182353.901000", "182353.903000", "182353.906000", "182353.909000", "182353.912000", "182353.915000", "182353.918000", "182433.843000", "182433.846000", "182433.849000", "182433.852000", "182433.855000", "182433.858000", "182433.861000", "182433.864000", "182433.867000", "182433.869000", "182433.872000", "182433.875000", "182433.878000", "182433.881000", "182433.884000", "182433.887000", "182433.890000", "182433.893000", "182433.896000", "182433.899000", "182433.901000", "182433.904000", "182433.907000", "182433.910000", "182433.913000", "182433.916000", "182433.919000", "182453.517000", "182453.520000", "182453.523000", "182453.526000", "182453.529000", "182453.532000", "182453.535000", "182453.538000", "182453.541000", "182453.544000", "182453.547000", "182453.550000", "182453.553000", "182453.556000"],
