{
  "AcquisitionMatrixPE": 104,
  "AcquisitionNumber": 1,
  "AcquisitionTime": "19:02:25.727500",
  "BandwidthPerPixelPhaseEncode": 17.17,
  "BaseResolution": 104,
  "BodyPartExamined": "BRAIN",
  "CoilString": "HC1-7;NC1_2",
  "ConsistencyInfo": "N4_VE11C_LATEST_20160120",
  "ConversionSoftware": "dcm2niix",
  "ConversionSoftwareVersion": "v1.0.20190720  (JP2:OpenJPEG) GCC7.3.0",
  "DerivedVendorReportedEchoSpacing": 0.000560011,
  "DeviceSerialNumber": "167006",
  "DwellTime": 2.1e-06,
  "EchoTime": 0.037,
  "EchoTrainLength": 104,
  "EffectiveEchoSpacing": 0.000560011,
  "FlipAngle": 52,
  "ImageComments": "Unaliased_MB4_PE3_LB",
  "ImageOrientationPatientDICOM": [0.999629, -0.0259236, -0.00830309, 0.0212883, 0.934608, -0.355043],
  "ImageType": [
    "ORIGINAL",
    "PRIMARY",
    "M",
    "MB",
    "ND",
    "MOSAIC"
],
  "ImagingFrequency": 123.259,
  "InPlanePhaseEncodingDirectionDICOM": "COL",
  "InstitutionAddress": "Chemin_Queen-Mary_4565_Montreal_District_CA_H3W_1W5",
  "InstitutionName": "IUGM",
  "InstitutionalDepartmentName": "Department",
  "MRAcquisitionType": "2D",
  "MagneticFieldStrength": 3,
  "Manufacturer": "Siemens",
  "ManufacturersModelName": "Prisma_fit",
  "Modality": "MR",
  "MultibandAccelerationFactor": 4,
  "PartialFourier": 1,
  "PatientPosition": "HFS",
  "PercentPhaseFOV": 100,
  "PhaseEncodingDirection": "j",
  "PhaseEncodingSteps": 104,
  "PhaseResolution": 1,
  "PixelBandwidth": 2290,
  "ProcedureStepDescription": "video_friends",
  "ProtocolName": "func_task-s01e03a",
  "PulseSequenceDetails": "%CustomerSeq%_cmrr_mbep2d_bold",
  "ReceiveCoilActiveElements": "HC1-7;NC1,2",
  "ReceiveCoilName": "HeadNeck_64",
  "ReconMatrixPE": 104,
  "RepetitionTime": 1.49,
  "SAR": 0.0371026,
  "ScanOptions": "FS",
  "ScanningSequence": "EP",
  "SequenceName": "epfid2d1_104",
  "SequenceVariant": "SK_SS",
  "SeriesDescription": "func_task-s01e03a",
  "SeriesNumber": 26,
  "ShimSetting": [603, -7258, -8854, 340, -15, -497, -30, 14],
  "SliceThickness": 2,
  "SliceTiming": [0, 0.7825, 0.0975, 0.88, 0.195, 0.98, 0.2925, 1.0775, 0.39, 1.175, 0.49, 1.2725, 0.5875, 1.37, 0.685, 0, 0.7825, 0.0975, 0.88, 0.195, 0.98, 0.2925, 1.0775, 0.39, 1.175, 0.49, 1.2725, 0.5875, 1.37, 0.685, 0, 0.7825, 0.0975, 0.88, 0.195, 0.98, 0.2925, 1.0775, 0.39, 1.175, 0.49, 1.2725, 0.5875, 1.37, 0.685, 0, 0.7825, 0.0975, 0.88, 0.195, 0.98, 0.2925, 1.0775, 0.39, 1.175, 0.49, 1.2725, 0.5875, 1.37, 0.685],
  "SoftwareVersions": "syngo_MR_E11",
  "SpacingBetweenSlices": 2,
  "StationName": "MRC35049",
  "TaskName": "friends",
  "TotalReadoutTime": 0.0576811,
  "TxRefAmp": 239.471,
  "WipMemBlock": "20bc6a85-0c05-41e2-af1b-4c538aa4bb88||Sequence: R016 ve11c/master r/e634e98; Dec 19 2017 11:00:25 by eja",
  "dcmmeta_affine": [
    [-1.9992588758468628, 0.04257667437195778, -0.03392823785543442, 100.54151153564453],
    [0.05184720829129219, 1.8692153692245483, -0.7094687223434448, -87.0346450805664],
    [-0.016606183722615242, 0.7100853323936462, 1.8696264028549194, -83.03783416748047],
    [0.0, 0.0, 0.0, 1.0]
],
  "dcmmeta_reorient_transform": [
    [0.0, -1.0, 0.0, 103.0],
    [1.0, 0.0, 0.0, 0.0],
    [0.0, 0.0, 1.0, 0.0],
    [0.0, 0.0, 0.0, 1.0]
],
  "dcmmeta_shape": [104, 104, 60, 503],
  "dcmmeta_slice_dim": 2,
  "dcmmeta_version": 0.6,
  "global": {
    "const": {
      "AcquisitionMatrix": [104, 0, 0, 104],
      "AngioFlag": "N",
      "BitsAllocated": 16,
      "BitsStored": 16,
      "BodyPartExamined": "BRAIN",
      "Columns": 832,
      "EchoNumbers": 1,
      "EchoTime": 37.0,
      "EchoTrainLength": 104,
      "FlipAngle": 52.0,
      "HighBit": 15,
      "ImageOrientationPatient": [0.99962944402691, -0.0259236050714, -0.0083030918676, 0.02128833679956, 0.93460767410311, -0.3550426766234],
      "ImagePositionPatient": [-848.15505551114, -767.01654138473, 254.61667529512],
      "ImageType": [
        "ORIGINAL",
        "PRIMARY",
        "M",
        "MB",
        "ND",
        "MOSAIC"
],
      "ImagedNucleus": "1H",
      "ImagingFrequency": 123.259355,
      "InPlanePhaseEncodingDirection": "COL",
      "MRAcquisitionType": "2D",
      "MagneticFieldStrength": 3.0,
      "Manufacturer": "SIEMENS",
      "ManufacturerModelName": "Prisma_fit",
      "Modality": "MR",
      "NumberOfAverages": 1.0,
      "NumberOfPhaseEncodingSteps": 104,
      "PercentPhaseFieldOfView": 100.0,
      "PercentSampling": 100.0,
      "PerformedProcedureStepStartTime": "174355.880000",
      "PhotometricInterpretation": "MONOCHROME2",
      "PixelBandwidth": 2290.0,
      "PixelRepresentation": 0,
      "PixelSpacing": [2.0, 2.0],
      "ProtocolName": "func_task-s01e03a",
      "RepetitionTime": 1490.0,
      "Rows": 832,
      "SAR": 0.0371026085344,
      "SamplesPerPixel": 1,
      "ScanOptions": "FS",
      "ScanningSequence": "EP",
      "SequenceName": "epfid2d1_104",
      "SequenceVariant": [
        "SK",
        "SS"
],
      "SeriesDescription": "func_task-s01e03a",
      "SeriesNumber": 26,
      "SeriesTime": "190343.280000",
      "SliceLocation": -48.456287245351,
      "SliceThickness": 2.0,
      "SmallestImagePixelValue": 0,
      "SoftwareVersions": "syngo MR E11",
      "SpacingBetweenSlices": 2.0000000096948,
      "SpecificCharacterSet": "ISO_IR 100",
      "StudyID": "1",
      "StudyTime": "174355.812000",
      "TransmitCoilName": "Body",
      "VariableFlipAngleFlag": "N",
      "WindowCenterWidthExplanation": "Algo1",
      "dBdt": 0.0},
    "slices": {}
  },
  "time": {
    "samples": {
      "AcquisitionNumber": [1, 2, 3, 4, 5, 6, 7, 8, 9, 10, 11, 12, 13, 14, 15, 16, 17, 18, 19, 20, 21, 22, 23, 24, 25, 26, 27, 28, 29, 30, 31, 32, 33, 34, 35, 36, 37, 38, 39, 40, 41, 42, 43, 44, 45, 46, 47, 48, 49, 50, 51, 52, 53, 54, 55, 56, 57, 58, 59, 60, 61, 62, 63, 64, 65, 66, 67, 68, 69, 70, 71, 72, 73, 74, 75, 76, 77, 78, 79, 80, 81, 82, 83, 84, 85, 86, 87, 88, 89, 90, 91, 92, 93, 94, 95, 96, 97, 98, 99, 100, 101, 102, 103, 104, 105, 106, 107, 108, 109, 110, 111, 112, 113, 114, 115, 116, 117, 118, 119, 120, 121, 122, 123, 124, 125, 126, 127, 128, 129, 130, 131, 132, 133, 134, 135, 136, 137, 138, 139, 140, 141, 142, 143, 144, 145, 146, 147, 148, 149, 150, 151, 152, 153, 154, 155, 156, 157, 158, 159, 160, 161, 162, 163, 164, 165, 166, 167, 168, 169, 170, 171, 172, 173, 174, 175, 176, 177, 178, 179, 180, 181, 182, 183, 184, 185, 186, 187, 188, 189, 190, 191, 192, 193, 194, 195, 196, 197, 198, 199, 200, 201, 202, 203, 204, 205, 206, 207, 208, 209, 210, 211, 212, 213, 214, 215, 216, 217, 218, 219, 220, 221, 222, 223, 224, 225, 226, 227, 228, 229, 230, 231, 232, 233, 234, 235, 236, 237, 238, 239, 240, 241, 242, 243, 244, 245, 246, 247, 248, 249, 250, 251, 252, 253, 254, 255, 256, 257, 258, 259, 260, 261, 262, 263, 264, 265, 266, 267, 268, 269, 270, 271, 272, 273, 274, 275, 276, 277, 278, 279, 280, 281, 282, 283, 284, 285, 286, 287, 288, 289, 290, 291, 292, 293, 294, 295, 296, 297, 298, 299, 300, 301, 302, 303, 304, 305, 306, 307, 308, 309, 310, 311, 312, 313, 314, 315, 316, 317, 318, 319, 320, 321, 322, 323, 324, 325, 326, 327, 328, 329, 330, 331, 332, 333, 334, 335, 336, 337, 338, 339, 340, 341, 342, 343, 344, 345, 346, 347, 348, 349, 350, 351, 352, 353, 354, 355, 356, 357, 358, 359, 360, 361, 362, 363, 364, 365, 366, 367, 368, 369, 370, 371, 372, 373, 374, 375, 376, 377, 378, 379, 380, 381, 382, 383, 384, 385, 386, 387, 388, 389, 390, 391, 392, 393, 394, 395, 396, 397, 398, 399, 400, 401, 402, 403, 404, 405, 406, 407, 408, 409, 410, 411, 412, 413, 414, 415, 416, 417, 418, 419, 420, 421, 422, 423, 424, 425, 426, 427, 428, 429, 430, 431, 432, 433, 434, 435, 436, 437, 438, 439, 440, 441, 442, 443, 444, 445, 446, 447, 448, 449, 450, 451, 452, 453, 454, 455, 456, 457, 458, 459, 460, 461, 462, 463, 464, 465, 466, 467, 468, 469, 470, 471, 472, 473, 474, 475, 476, 477, 478, 479, 480, 481, 482, 483, 484, 485, 486, 487, 488, 489, 490, 491, 492, 493, 494, 495, 496, 497, 498, 499, 500, 501, 502, 503],
      "AcquisitionTime": ["190225.727500", "190227.217500", "190228.707500", "190230.197500", "190231.687500", "190233.177500", "190234.667500", "190236.157500", "190237.647500", "190239.137500", "190240.627500", "190242.117500", "190243.607500", "190245.097500", "190246.587500", "190248.077500", "190249.567500", "190251.057500", "190252.547500", "190254.037500", "190255.527500", "190257.017500", "190258.507500", "190259.997500", "190301.487500", "190302.977500", "190304.467500", "190305.957500", "190307.447500", "190308.937500", "190310.427500", "190311.917500", "190313.407500", "190314.897500", "190316.387500", "190317.877500", "190319.367500", "190320.857500", "190322.347500", "190323.837500", "190325.327500", "190326.817500", "190328.307500", "190329.797500", "190331.287500", "190332.777500", "190334.267500", "190335.757500", "190337.247500", "190338.737500", "190340.227500", "190341.717500", "190343.207500", "190344.697500", "190346.187500", "190347.677500", "190349.167500", "190350.657500", "190352.147500", "190353.637500", "190355.127500", "190356.617500", "190358.107500", "190359.597500", "190401.087500", "190402.577500", "190404.067500", "190405.557500", "190407.047500", "190408.537500", "190410.027500", "190411.517500", "190413.007500", "190414.497500", "190415.987500", "190417.477500", "190418.967500", "190420.457500", "190421.947500", "190423.437500", "190424.927500", "190426.417500", "190427.907500", "190429.397500", "190430.887500", "190432.377500", "190433.867500", "190435.357500", "190436.847500", "190438.337500", "190439.827500", "190441.317500", "190442.807500", "190444.297500", "190445.787500", "190447.277500", "190448.767500", "190450.257500", "190451.747500", "190453.237500", "190454.727500", "190456.217500", "190457.707500", "190459.197500", "190500.687500", "190502.177500", "190503.667500", "190505.157500", "190506.647500", "190508.137500", "190509.627500", "190511.117500", "190512.607500", "190514.097500", "190515.587500", "190517.077500", "190518.567500", "190520.057500", "190521.547500", "190523.037500", "190524.527500", "190526.017500", "190527.507500", "190528.997500", "190530.487500", "190531.977500", "190533.467500", "190534.957500", "190536.447500", "190537.937500", "190539.427500", "190540.917500", "190542.407500", "190543.897500", "190545.387500", "190546.877500", "190548.367500", "190549.857500", "190551.347500", "190552.837500", "190554.327500", "190555.817500", "190557.307500", "190558.797500", "190600.287500", "190601.777500", "190603.267500", "190604.757500", "190606.247500", "190607.737500", "190609.227500", "190610.717500", "190612.207500", "190613.697500", "190615.187500", "190616.677500", "190618.167500", "190619.657500", "190621.147500", "190622.637500", "190624.127500", "190625.617500", "190627.107500", "190628.597500", "190630.087500", "190631.577500", "190633.067500", "190634.557500", "190636.047500", "190637.537500", "190639.027500", "190640.517500", "190642.007500", "190643.497500", "190644.987500", "190646.477500", "190647.967500", "190649.457500", "190650.947500", "190652.437500", "190653.927500", "190655.417500", "190656.907500", "190658.397500", "190659.887500", "190701.377500", "190702.867500", "190704.357500", "190705.847500", "190707.337500", "190708.827500", "190710.317500", "190711.807500", "190713.297500", "190714.787500", "190716.277500", "190717.767500", "190719.257500", "190720.747500", "190722.237500", "190723.727500", "190725.217500", "190726.707500", "190728.197500", "190729.687500", "190731.177500", "190732.667500", "190734.157500", "190735.647500", "190737.137500", "190738.627500", "190740.117500", "190741.607500", "190743.097500", "190744.587500", "190746.077500", "190747.567500", "190749.057500", "190750.547500", "190752.037500", "190753.527500", "190755.017500", "190756.507500", "190757.997500", "190759.487500", "190800.977500", "190802.467500", "190803.957500", "190805.447500", "190806.937500", "190808.427500", "190809.917500", "190811.407500", "190812.897500", "190814.387500", "190815.877500", "190817.367500", "190818.857500", "190820.347500", "190821.837500", "190823.327500", "190824.817500", "190826.307500", "190827.797500", "190829.287500", "190830.777500", "190832.267500", "190833.757500", "190835.247500", "190836.737500", "190838.227500", "190839.717500", "190841.207500", "190842.697500", "190844.187500", "190845.677500", "190847.167500", "190848.657500", "190850.147500", "190851.637500", "190853.127500", "190854.617500", "190856.107500", "190857.597500", "190859.087500", "190900.577500", "190902.067500", "190903.557500", "190905.047500", "190906.537500", "190908.027500", "190909.517500", "190911.007500", "190912.497500", "190913.987500", "190915.477500", "190916.967500", "190918.457500", "190919.947500", "190921.437500", "190922.927500", "190924.417500", "190925.907500", "190927.397500", "190928.887500", "190930.377500", "190931.867500", "190933.357500", "190934.847500", "190936.337500", "190937.827500", "190939.317500", "190940.807500", "190942.297500", "190943.787500", "190945.277500", "190946.767500", "190948.257500", "190949.747500", "190951.237500", "190952.727500", "190954.217500", "190955.707500", "190957.197500", "190958.687500", "191000.177500", "191001.667500", "191003.157500", "191004.647500", "191006.137500", "191007.627500", "191009.117500", "191010.607500", "191012.097500", "191013.587500", "191015.077500", "191016.567500", "191018.057500", "191019.547500", "191021.037500", "191022.527500", "191024.017500", "191025.507500", "191026.997500", "191028.487500", "191029.977500", "191031.467500", "191032.957500", "191034.447500", "191035.937500", "191037.427500", "191038.917500", "191040.407500", "191041.897500", "191043.387500", "191044.877500", "191046.367500", "191047.857500", "191049.347500", "191050.837500", "191052.327500", "191053.817500", "191055.307500", "191056.797500", "191058.287500", "191059.777500", "191101.267500", "191102.757500", "191104.247500", "191105.737500", "191107.227500", "191108.717500", "191110.207500", "191111.697500", "191113.187500", "191114.677500", "191116.167500", "191117.657500", "191119.147500", "191120.637500", "191122.127500", "191123.617500", "191125.107500", "191126.597500", "191128.087500", "191129.577500", "191131.067500", "191132.557500", "191134.047500", "191135.537500", "191137.027500", "191138.517500", "191140.007500", "191141.497500", "191142.987500", "191144.477500", "191145.967500", "191147.457500", "191148.947500", "191150.437500", "191151.927500", "191153.417500", "191154.907500", "191156.397500", "191157.887500", "191159.377500", "191200.867500", "191202.357500", "191203.847500", "191205.337500", "191206.827500", "191208.317500", "191209.807500", "191211.297500", "191212.787500", "191214.277500", "191215.767500", "191217.257500", "191218.747500", "191220.237500", "191221.727500", "191223.217500", "191224.707500", "191226.197500", "191227.687500", "191229.177500", "191230.667500", "191232.157500", "191233.647500", "191235.137500", "191236.627500", "191238.117500", "191239.607500", "191241.097500", "191242.587500", "191244.077500", "191245.567500", "191247.057500", "191248.547500", "191250.037500", "191251.527500", "191253.017500", "191254.507500", "191255.997500", "191257.487500", "191258.977500", "191300.467500", "191301.957500", "191303.447500", "191304.937500", "191306.427500", "191307.917500", "191309.407500", "191310.897500", "191312.387500", "191313.877500", "191315.367500", "191316.857500", "191318.347500", "191319.837500", "191321.327500", "191322.817500", "191324.307500", "191325.797500", "191327.287500", "191328.777500", "191330.267500", "191331.757500", "191333.247500", "191334.737500", "191336.227500", "191337.717500", "191339.207500", "191340.697500", "191342.187500", "191343.677500", "191345.167500", "191346.657500", "191348.147500", "191349.637500", "191351.127500", "191352.617500", "191354.107500", "191355.597500", "191357.087500", "191358.577500", "191400.067500", "191401.557500", "191403.047500", "191404.537500", "191406.027500", "191407.517500", "191409.007500", "191410.497500", "191411.987500", "191413.477500", "191414.967500", "191416.457500", "191417.947500", "191419.437500", "191420.927500", "191422.417500", "191423.907500", "191425.397500", "191426.887500", "191428.377500", "191429.867500", "191431.357500", "191432.847500", "191434.337500", "191435.827500", "191437.317500", "191438.807500", "191440.297500", "191441.787500", "191443.277500", "191444.767500", "191446.257500", "191447.747500", "191449.237500", "191450.727500", "191452.217500", "191453.707500"],
      "ContentTime": ["190343.282000", "190343.286000", "190343.289000", "190343.291000", "190343.300000", "190343.303000", "190343.306000", "190343.309000", "190343.312000", "190343.315000", "190343.318000", "190343.321000", "190343.323000", "190343.326000", "190343.329000", "190343.332000", "190343.335000", "190343.338000", "190343.341000", "190343.344000", "190343.347000", "190343.350000", "190343.352000", "190423.244000", "190423.247000", "190423.250000", "190423.253000", "190423.256000", "190423.258000", "190423.261000", "190423.264000", "190423.267000", "190423.270000", "190423.273000", "190423.276000", "190423.278000", "190423.281000", "190423.284000", "190423.287000", "190423.290000", "190423.293000", "190423.296000", "190423.299000", "190423.302000", "190423.304000", "190423.307000", "190423.310000", "190423.313000", "190423.316000", "190423.319000", "190423.322000", "190423.325000", "190423.328000", "190423.330000", "190423.333000", "190423.342000", "190423.345000", "190423.348000", "190423.351000", "190423.354000", "190423.357000", "190423.360000", "190423.363000", "190443.244000", "190443.247000", "190443.250000", "190443.253000", "190443.256000", "190443.259000", "190443.261000", "190443.264000", "190443.267000", "190443.270000", "190443.273000", "190443.276000", "190443.279000", "190443.281000", "190443.284000", "190443.287000", "190443.290000", "190443.293000", "190443.296000", "190443.299000", "190503.244000", "190503.247000", "190503.250000", "190503.253000", "190503.255000", "190503.258000", "190503.261000", "190503.264000", "190503.267000", "190503.270000", "190503.273000", "190503.276000", "190503.278000", "190503.281000", "190503.284000", "190503.287000", "190503.290000", "190503.293000", "190503.296000", "190503.299000", "190543.245000", "190543.248000", "190543.251000", "190543.254000", "190543.256000", "190543.259000", "190543.262000", "190543.265000", "190543.272000", "190543.275000", "190543.278000", "190543.281000", "190543.284000", "190543.287000", "190543.290000", "190543.293000", "190543.315000", "190543.318000", "190543.321000", "190543.324000", "190543.327000", "190543.329000", "190543.332000", "190543.335000", "190543.338000", "190543.341000", "190543.344000", "190543.347000", "190543.350000", "190623.245000", "190623.248000", "190623.251000", "190623.254000", "190623.257000", "190623.260000", "190623.262000", "190623.265000", "190623.268000", "190623.271000", "190623.274000", "190623.277000", "190623.280000", "190623.283000", "190623.286000", "190623.288000", "190623.291000", "190623.294000", "190623.297000", "190623.300000", "190623.303000", "190623.306000", "190623.309000", "190623.311000", "190623.314000", "190623.317000", "190623.320000", "190703.244000", "190703.247000", "190703.250000", "190703.253000", "190703.256000", "190703.259000", "190703.261000", "190703.264000", "190703.267000", "190703.270000", "190703.273000", "190703.276000", "190703.279000", "190703.282000", "190703.285000", "190703.287000", "190703.290000", "190703.293000", "190703.296000", "190703.299000", "190703.302000", "190703.305000", "190703.307000", "190703.310000", "190703.313000", "190703.316000", "190703.319000", "190743.244000", "190743.247000", "190743.250000", "190743.253000", "190743.256000", "190743.259000", "190743.262000", "190743.264000", "190743.267000", "190743.270000", "190743.273000", "190743.276000", "190743.279000", "190743.282000", "190743.285000", "190743.288000", "190743.290000", "190743.293000", "190743.296000", "190743.299000", "190743.303000", "190743.306000", "190743.309000", "190743.312000", "190743.315000", "190743.317000", "190823.245000", "190823.248000", "190823.251000", "190823.254000", "190823.257000", "190823.260000", "190823.263000", "190823.266000", "190823.268000", "190823.271000", "190823.274000", "190823.277000", "190823.280000", "190823.283000", "190823.286000", "190823.289000", "190823.292000", "190823.295000", "190823.297000", "190823.300000", "190823.303000", "190823.306000", "190823.309000", "190823.312000", "190823.315000", "190823.318000", "190823.321000", "190843.245000", "190843.248000", "190843.251000", "190843.254000", "190843.257000", "190843.260000", "190843.263000", "190843.265000", "190843.268000", "190843.271000", "190843.274000", "190843.279000", "190843.282000", "190843.285000", "190923.244000", "190923.247000", "190923.250000", "190923.253000", "190923.256000", "190923.259000", "190923.262000", "190923.265000", "190923.268000", "190923.271000", "190923.274000", "190923.277000", "190923.280000", "190923.283000", "190923.286000", "190923.289000", "190923.292000", "190923.295000", "190923.298000", "190923.301000", "190923.304000", "190923.307000", "190923.310000", "190923.312000", "190923.315000", "190923.318000", "191003.244000", "191003.247000", "191003.250000", "191003.253000", "191003.256000", "191003.259000", "191003.262000", "191003.265000", "191003.268000", "191003.270000", "191003.273000", "191003.276000", "191003.279000", "191003.282000", "191003.285000", "191003.288000", "191003.291000", "191003.294000", "191003.297000", "191003.300000", "191003.302000", "191003.305000", "191003.308000", "191003.311000", "191003.314000", "191003.317000", "191003.320000", "191043.245000", "191043.248000", "191043.261000", "191043.264000", "191043.267000", "191043.270000", "191043.273000", "191043.276000", "191043.279000", "191043.282000", "191043.284000", "191043.287000", "191043.290000", "191043.293000", "191043.296000", "191043.299000", "191043.302000", "191043.305000", "191043.308000", "191043.311000", "191043.313000", "191043.316000", "191043.319000", "191043.322000", "191043.325000", "191043.328000", "191043.331000", "191123.244000", "191123.247000", "191123.250000", "191123.253000", "191123.256000", "191123.259000", "191123.262000", "191123.265000", "191123.267000", "191123.270000", "191123.273000", "191123.276000", "191123.279000", "191123.282000", "191123.285000", "191123.288000", "191123.291000", "191123.294000", "191123.296000", "191123.299000", "191123.302000", "191123.305000", "191123.308000", "191123.311000", "191123.314000", "191123.317000", "191123.320000", "191203.244000", "191203.247000", "191203.250000", "191203.253000", "191203.256000", "191203.259000", "191203.263000", "191203.266000", "191203.269000", "191203.272000", "191203.274000", "191203.277000", "191203.280000", "191203.283000", "191203.286000", "191203.289000", "191203.292000", "191203.295000", "191203.298000", "191203.300000", "191203.303000", "191203.306000", "191203.309000", "191203.312000", "191203.315000", "191203.318000", "191203.321000", "191243.245000", "191243.248000", "191243.251000", "191243.254000", "191243.257000", "191243.260000", "191243.263000", "191243.266000", "191243.268000", "191243.271000", "191243.274000", "191243.277000", "191243.280000", "191243.283000", "191243.286000", "191243.289000", "191243.292000", "191243.295000", "191243.298000", "191243.301000", "191243.303000", "191243.306000", "191243.309000", "191243.317000", "191243.320000", "191243.323000", "191243.326000", "191323.245000", "191323.248000", "191323.251000", "191323.254000", "191323.257000", "191323.260000", "191323.263000", "191323.266000", "191323.268000", "191323.271000", "191323.274000", "191323.277000", "191323.280000", "191323.283000", "191323.286000", "191323.289000", "191323.292000", "191323.295000", "191323.298000", "191323.300000", "191323.303000", "191323.306000", "191323.309000", "191323.312000", "191323.315000", "191323.318000", "191323.321000", "191403.244000", "191403.248000", "191403.251000", "191403.254000", "191403.257000", "191403.260000", "191403.263000", "191403.266000", "191403.268000", "191403.271000", "191403.274000", "191403.277000", "191403.280000", "191403.283000", "191403.286000", "191403.289000", "191403.292000", "191403.295000", "191403.297000", "191403.300000", "191403.303000", "191403.306000", "191403.309000", "191403.312000", "191403.315000", "191403.318000", "191443.244000", "191443.247000", "191443.250000", "191443.253000", "191443.256000", "191443.259000", "191443.262000", "191443.265000", "191443.268000", "191443.270000", "191443.273000", "191443.276000", "191443.279000", "191443.282000", "191443.285000", "191443.288000", "191443.291000", "191443.294000", "191443.297000", "191443.300000", "191443.302000", "191443.305000", "191443.308000", "191443.311000", "191443.314000", "191443.317000", "191443.320000", "191455.591000", "191455.594000", "191455.605000", "191455.608000", "191455.611000", "191455.614000", "191455.617000", "191455.620000", "191455.623000"],
