{
  "AcquisitionMatrixPE": 104,
  "AcquisitionNumber": 1,
  "AcquisitionTime": "09:27:17.307500",
  "BandwidthPerPixelPhaseEncode": 17.17,
  "BaseResolution": 104,
  "BodyPartExamined": "BRAIN",
  "CoilString": "HC1-7;NC1_2",
  "ConsistencyInfo": "N4_VE11C_LATEST_20160120",
  "ConversionSoftware": "dcm2niix",
  "ConversionSoftwareVersion": "v1.0.20190902",
  "DerivedVendorReportedEchoSpacing": 0.000560011,
  "DeviceSerialNumber": "167006",
  "DwellTime": 2.1e-06,
  "EchoTime": 0.037,
  "EchoTrainLength": 104,
  "EffectiveEchoSpacing": 0.000560011,
  "FlipAngle": 52,
  "ImageComments": "Unaliased_MB4_PE3_LB",
  "ImageOrientationPatientDICOM": [0.996734, 0.073049, 0.0344209, -0.0628838, 0.969553, -0.23667],
  "ImageType": [
    "ORIGINAL",
    "PRIMARY",
    "M",
    "MB",
    "ND",
    "MOSAIC"
],
  "ImagingFrequency": 123.259,
  "InPlanePhaseEncodingDirectionDICOM": "COL",
  "InstitutionAddress": "Chemin_Queen-Mary_4565_Montreal_District_CA_H3W_1W5",
  "InstitutionName": "IUGM",
  "InstitutionalDepartmentName": "Department",
  "MRAcquisitionType": "2D",
  "MagneticFieldStrength": 3,
  "Manufacturer": "Siemens",
  "ManufacturersModelName": "Prisma_fit",
  "Modality": "MR",
  "MultibandAccelerationFactor": 4,
  "PartialFourier": 1,
  "PatientPosition": "HFS",
  "PercentPhaseFOV": 100,
  "PhaseEncodingDirection": "j",
  "PhaseEncodingSteps": 104,
  "PhaseResolution": 1,
  "PixelBandwidth": 2290,
  "ProcedureStepDescription": "video_friends",
  "ProtocolName": "func_task-friends-s03e10a",
  "PulseSequenceDetails": "%CustomerSeq%_cmrr_mbep2d_bold",
  "ReceiveCoilActiveElements": "HC1-7;NC1,2",
  "ReceiveCoilName": "HeadNeck_64",
  "ReconMatrixPE": 104,
  "RepetitionTime": 1.49,
  "SAR": 0.0393179,
  "ScanOptions": "FS",
  "ScanningSequence": "EP",
  "SequenceName": "epfid2d1_104",
  "SequenceVariant": "SK_SS",
  "SeriesDescription": "func_task-friends-s03e10a",
  "SeriesNumber": 9,
  "ShimSetting": [644, -7221, -8803, 682, 105, -83, 123, -29],
  "SliceThickness": 2,
  "SliceTiming": [0, 0.785, 0.0975, 0.8825, 0.1975, 0.98, 0.295, 1.0775, 0.3925, 1.1775, 0.49, 1.275, 0.5875, 1.3725, 0.6875, 0, 0.785, 0.0975, 0.8825, 0.1975, 0.98, 0.295, 1.0775, 0.3925, 1.1775, 0.49, 1.275, 0.5875, 1.3725, 0.6875, 0, 0.785, 0.0975, 0.8825, 0.1975, 0.98, 0.295, 1.0775, 0.3925, 1.1775, 0.49, 1.275, 0.5875, 1.3725, 0.6875, 0, 0.785, 0.0975, 0.8825, 0.1975, 0.98, 0.295, 1.0775, 0.3925, 1.1775, 0.49, 1.275, 0.5875, 1.3725, 0.6875],
  "SoftwareVersions": "syngo_MR_E11",
  "SpacingBetweenSlices": 2,
  "StationName": "MRC35049",
  "TaskName": "s03e10a",
  "TotalReadoutTime": 0.0576811,
  "TxRefAmp": 247.552,
  "WipMemBlock": "ab23c586-a484-42d8-8c9a-ac23ad8aa5b9||Sequence: R016 ve11c/master r/e634e98; Dec 19 2017 11:00:25 by eja",
  "dcmmeta_affine": [
    [-1.9934684038162231, -0.12576764822006226, 0.10132291167974472, 106.5753173828125],
    [-0.1460980325937271, 1.9391056299209595, -0.4674660861492157, -68.46170806884766],
    [0.0688418596982956, 0.4733409583568573, 1.9419602155685425, -46.62137222290039],
    [0.0, 0.0, 0.0, 1.0]
],
  "dcmmeta_reorient_transform": [
    [0.0, -1.0, 0.0, 103.0],
    [1.0, 0.0, 0.0, 0.0],
    [0.0, 0.0, 1.0, 0.0],
    [0.0, 0.0, 0.0, 1.0]
],
  "dcmmeta_shape": [104, 104, 60, 451],
  "dcmmeta_slice_dim": 2,
  "dcmmeta_version": 0.6,
  "global": {
    "const": {
      "AcquisitionMatrix": [104, 0, 0, 104],
      "AngioFlag": "N",
      "BitsAllocated": 16,
      "BitsStored": 16,
      "BodyPartExamined": "BRAIN",
      "Columns": 832,
      "EchoNumbers": 1,
      "EchoTime": 37.0,
      "EchoTrainLength": 104,
      "FlipAngle": 52.0,
      "HighBit": 15,
      "ImageOrientationPatient": [0.99673418784539, 0.07304901385732, 0.03442092902097, -0.0628838276079, 0.96955283852504, -0.236670483021],
      "ImagePositionPatient": [-773.46431391702, -890.28032391528, 149.37042386519],
      "ImageType": [
        "ORIGINAL",
        "PRIMARY",
        "M",
        "MB",
        "ND",
        "MOSAIC"
],
      "ImagedNucleus": "1H",
      "ImagingFrequency": 123.259326,
      "InPlanePhaseEncodingDirection": "COL",
      "MRAcquisitionType": "2D",
      "MagneticFieldStrength": 3.0,
      "Manufacturer": "SIEMENS",
      "ManufacturerModelName": "Prisma_fit",
      "Modality": "MR",
      "NumberOfAverages": 1.0,
      "NumberOfPhaseEncodingSteps": 104,
      "PercentPhaseFieldOfView": 100.0,
      "PercentSampling": 100.0,
      "PerformedProcedureStepStartTime": "090022.524000",
      "PhotometricInterpretation": "MONOCHROME2",
      "PixelBandwidth": 2290.0,
      "PixelRepresentation": 0,
      "PixelSpacing": [2.0, 2.0],
      "ProtocolName": "func_task-friends-s03e10a",
      "RepetitionTime": 1490.0,
      "Rows": 832,
      "SAR": 0.0393178845704,
      "SamplesPerPixel": 1,
      "ScanOptions": "FS",
      "ScanningSequence": "EP",
      "SequenceName": "epfid2d1_104",
      "SequenceVariant": [
        "SK",
        "SS"
],
      "SeriesDescription": "func_task-friends-s03e10a",
      "SeriesNumber": 9,
      "SeriesTime": "092843.869000",
      "SliceLocation": -23.867397336056,
      "SliceThickness": 2.0,
      "SmallestImagePixelValue": 0,
      "SoftwareVersions": "syngo MR E11",
      "SpacingBetweenSlices": 2.0000000675837,
      "SpecificCharacterSet": "ISO_IR 100",
      "StudyID": "1",
      "StudyTime": "090022.412000",
      "TransmitCoilName": "Body",
      "VariableFlipAngleFlag": "N",
      "WindowCenterWidthExplanation": "Algo1",
      "dBdt": 0.0},
    "slices": {}
  },
  "time": {
    "samples": {
      "AcquisitionNumber": [1, 2, 3, 4, 5, 6, 7, 8, 9, 10, 11, 12, 13, 14, 15, 16, 17, 18, 19, 20, 21, 22, 23, 24, 25, 26, 27, 28, 29, 30, 31, 32, 33, 34, 35, 36, 37, 38, 39, 40, 41, 42, 43, 44, 45, 46, 47, 48, 49, 50, 51, 52, 53, 54, 55, 56, 57, 58, 59, 60, 61, 62, 63, 64, 65, 66, 67, 68, 69, 70, 71, 72, 73, 74, 75, 76, 77, 78, 79, 80, 81, 82, 83, 84, 85, 86, 87, 88, 89, 90, 91, 92, 93, 94, 95, 96, 97, 98, 99, 100, 101, 102, 103, 104, 105, 106, 107, 108, 109, 110, 111, 112, 113, 114, 115, 116, 117, 118, 119, 120, 121, 122, 123, 124, 125, 126, 127, 128, 129, 130, 131, 132, 133, 134, 135, 136, 137, 138, 139, 140, 141, 142, 143, 144, 145, 146, 147, 148, 149, 150, 151, 152, 153, 154, 155, 156, 157, 158, 159, 160, 161, 162, 163, 164, 165, 166, 167, 168, 169, 170, 171, 172, 173, 174, 175, 176, 177, 178, 179, 180, 181, 182, 183, 184, 185, 186, 187, 188, 189, 190, 191, 192, 193, 194, 195, 196, 197, 198, 199, 200, 201, 202, 203, 204, 205, 206, 207, 208, 209, 210, 211, 212, 213, 214, 215, 216, 217, 218, 219, 220, 221, 222, 223, 224, 225, 226, 227, 228, 229, 230, 231, 232, 233, 234, 235, 236, 237, 238, 239, 240, 241, 242, 243, 244, 245, 246, 247, 248, 249, 250, 251, 252, 253, 254, 255, 256, 257, 258, 259, 260, 261, 262, 263, 264, 265, 266, 267, 268, 269, 270, 271, 272, 273, 274, 275, 276, 277, 278, 279, 280, 281, 282, 283, 284, 285, 286, 287, 288, 289, 290, 291, 292, 293, 294, 295, 296, 297, 298, 299, 300, 301, 302, 303, 304, 305, 306, 307, 308, 309, 310, 311, 312, 313, 314, 315, 316, 317, 318, 319, 320, 321, 322, 323, 324, 325, 326, 327, 328, 329, 330, 331, 332, 333, 334, 335, 336, 337, 338, 339, 340, 341, 342, 343, 344, 345, 346, 347, 348, 349, 350, 351, 352, 353, 354, 355, 356, 357, 358, 359, 360, 361, 362, 363, 364, 365, 366, 367, 368, 369, 370, 371, 372, 373, 374, 375, 376, 377, 378, 379, 380, 381, 382, 383, 384, 385, 386, 387, 388, 389, 390, 391, 392, 393, 394, 395, 396, 397, 398, 399, 400, 401, 402, 403, 404, 405, 406, 407, 408, 409, 410, 411, 412, 413, 414, 415, 416, 417, 418, 419, 420, 421, 422, 423, 424, 425, 426, 427, 428, 429, 430, 431, 432, 433, 434, 435, 436, 437, 438, 439, 440, 441, 442, 443, 444, 445, 446, 447, 448, 449, 450, 451],
      "AcquisitionTime": ["092717.307500", "092718.797500", "092720.287500", "092721.777500", "092723.267500", "092724.757500", "092726.247500", "092727.737500", "092729.227500", "092730.717500", "092732.207500", "092733.697500", "092735.187500", "092736.677500", "092738.167500", "092739.657500", "092741.147500", "092742.637500", "092744.127500", "092745.617500", "092747.107500", "092748.597500", "092750.087500", "092751.577500", "092753.067500", "092754.557500", "092756.047500", "092757.537500", "092759.027500", "092800.517500", "092802.007500", "092803.497500", "092804.987500", "092806.477500", "092807.967500", "092809.457500", "092810.947500", "092812.437500", "092813.927500", "092815.417500", "092816.907500", "092818.397500", "092819.887500", "092821.377500", "092822.867500", "092824.357500", "092825.847500", "092827.337500", "092828.827500", "092830.317500", "092831.807500", "092833.297500", "092834.787500", "092836.277500", "092837.767500", "092839.257500", "092840.747500", "092842.237500", "092843.727500", "092845.217500", "092846.707500", "092848.197500", "092849.687500", "092851.177500", "092852.667500", "092854.157500", "092855.647500", "092857.137500", "092858.627500", "092900.117500", "092901.607500", "092903.097500", "092904.587500", "092906.077500", "092907.567500", "092909.057500", "092910.547500", "092912.037500", "092913.527500", "092915.017500", "092916.507500", "092917.997500", "092919.487500", "092920.977500", "092922.467500", "092923.957500", "092925.447500", "092926.937500", "092928.427500", "092929.917500", "092931.407500", "092932.897500", "092934.387500", "092935.877500", "092937.367500", "092938.857500", "092940.347500", "092941.837500", "092943.327500", "092944.817500", "092946.307500", "092947.797500", "092949.287500", "092950.777500", "092952.267500", "092953.757500", "092955.247500", "092956.737500", "092958.227500", "092959.717500", "093001.207500", "093002.697500", "093004.187500", "093005.677500", "093007.167500", "093008.657500", "093010.147500", "093011.637500", "093013.127500", "093014.617500", "093016.107500", "093017.597500", "093019.087500", "093020.577500", "093022.067500", "093023.557500", "093025.047500", "093026.537500", "093028.027500", "093029.517500", "093031.007500", "093032.497500", "093033.987500", "093035.477500", "093036.967500", "093038.457500", "093039.947500", "093041.437500", "093042.927500", "093044.417500", "093045.907500", "093047.397500", "093048.887500", "093050.377500", "093051.867500", "093053.357500", "093054.847500", "093056.337500", "093057.827500", "093059.317500", "093100.807500", "093102.297500", "093103.787500", "093105.277500", "093106.767500", "093108.257500", "093109.747500", "093111.237500", "093112.727500", "093114.217500", "093115.707500", "093117.197500", "093118.687500", "093120.177500", "093121.667500", "093123.157500", "093124.647500", "093126.137500", "093127.627500", "093129.117500", "093130.607500", "093132.097500", "093133.587500", "093135.077500", "093136.567500", "093138.057500", "093139.547500", "093141.037500", "093142.527500", "093144.017500", "093145.507500", "093146.997500", "093148.487500", "093149.977500", "093151.467500", "093152.957500", "093154.447500", "093155.937500", "093157.427500", "093158.917500", "093200.407500", "093201.897500", "093203.387500", "093204.877500", "093206.367500", "093207.857500", "093209.347500", "093210.837500", "093212.327500", "093213.817500", "093215.307500", "093216.797500", "093218.287500", "093219.777500", "093221.267500", "093222.757500", "093224.247500", "093225.737500", "093227.227500", "093228.717500", "093230.207500", "093231.697500", "093233.187500", "093234.677500", "093236.167500", "093237.657500", "093239.147500", "093240.637500", "093242.127500", "093243.617500", "093245.107500", "093246.597500", "093248.087500", "093249.577500", "093251.067500", "093252.557500", "093254.047500", "093255.537500", "093257.027500", "093258.517500", "093300.007500", "093301.497500", "093302.987500", "093304.477500", "093305.967500", "093307.457500", "093308.947500", "093310.437500", "093311.927500", "093313.417500", "093314.907500", "093316.397500", "093317.887500", "093319.377500", "093320.867500", "093322.357500", "093323.847500", "093325.337500", "093326.827500", "093328.317500", "093329.807500", "093331.297500", "093332.787500", "093334.277500", "093335.767500", "093337.257500", "093338.747500", "093340.237500", "093341.727500", "093343.217500", "093344.707500", "093346.197500", "093347.687500", "093349.177500", "093350.667500", "093352.157500", "093353.647500", "093355.137500", "093356.627500", "093358.117500", "093359.607500", "093401.097500", "093402.587500", "093404.077500", "093405.567500", "093407.057500", "093408.547500", "093410.037500", "093411.527500", "093413.017500", "093414.507500", "093415.997500", "093417.487500", "093418.977500", "093420.467500", "093421.957500", "093423.447500", "093424.937500", "093426.427500", "093427.917500", "093429.407500", "093430.897500", "093432.387500", "093433.877500", "093435.367500", "093436.857500", "093438.347500", "093439.837500", "093441.327500", "093442.817500", "093444.307500", "093445.797500", "093447.287500", "093448.777500", "093450.267500", "093451.757500", "093453.247500", "093454.737500", "093456.227500", "093457.717500", "093459.207500", "093500.697500", "093502.187500", "093503.677500", "093505.167500", "093506.657500", "093508.147500", "093509.637500", "093511.127500", "093512.617500", "093514.107500", "093515.597500", "093517.087500", "093518.577500", "093520.067500", "093521.557500", "093523.047500", "093524.537500", "093526.027500", "093527.517500", "093529.007500", "093530.497500", "093531.987500", "093533.477500", "093534.967500", "093536.457500", "093537.947500", "093539.437500", "093540.927500", "093542.417500", "093543.907500", "093545.397500", "093546.887500", "093548.377500", "093549.867500", "093551.357500", "093552.847500", "093554.337500", "093555.827500", "093557.317500", "093558.807500", "093600.297500", "093601.787500", "093603.277500", "093604.767500", "093606.257500", "093607.747500", "093609.237500", "093610.727500", "093612.217500", "093613.707500", "093615.197500", "093616.687500", "093618.177500", "093619.667500", "093621.157500", "093622.647500", "093624.137500", "093625.627500", "093627.117500", "093628.607500", "093630.097500", "093631.587500", "093633.077500", "093634.567500", "093636.057500", "093637.547500", "093639.037500", "093640.527500", "093642.017500", "093643.507500", "093644.997500", "093646.487500", "093647.977500", "093649.467500", "093650.957500", "093652.447500", "093653.937500", "093655.427500", "093656.917500", "093658.407500", "093659.897500", "093701.387500", "093702.877500", "093704.367500", "093705.857500", "093707.347500", "093708.837500", "093710.327500", "093711.817500", "093713.307500", "093714.797500", "093716.287500", "093717.777500", "093719.267500", "093720.757500", "093722.247500", "093723.737500", "093725.227500", "093726.717500", "093728.207500", "093729.697500", "093731.187500", "093732.677500", "093734.167500", "093735.657500", "093737.147500", "093738.637500", "093740.127500", "093741.617500", "093743.107500", "093744.597500", "093746.087500", "093747.577500", "093749.067500", "093750.557500", "093752.047500", "093753.537500", "093755.027500", "093756.517500", "093758.007500", "093759.497500", "093800.987500", "093802.477500", "093803.967500", "093805.457500", "093806.947500", "093808.437500", "093809.927500", "093811.417500", "093812.907500", "093814.397500", "093815.887500", "093817.377500", "093818.867500", "093820.357500", "093821.847500", "093823.337500", "093824.827500", "093826.317500", "093827.807500"],
      "ContentTime": ["092843.872000", "092843.875000", "092843.878000", "092843.881000", "092843.884000", "092843.887000", "092843.890000", "092843.893000", "092843.896000", "092843.899000", "092843.907000", "092843.910000", "092843.913000", "092843.916000", "092843.918000", "092843.921000", "092843.924000", "092843.927000", "092843.930000", "092843.933000", "092843.936000", "092843.939000", "092843.941000", "092843.944000", "092843.947000", "092843.954000", "092843.957000", "092843.960000", "092843.962000", "092843.965000", "092843.968000", "092843.971000", "092843.974000", "092843.977000", "092903.835000", "092903.838000", "092903.841000", "092903.844000", "092903.847000", "092903.849000", "092903.852000", "092903.855000", "092903.858000", "092903.861000", "092903.864000", "092903.867000", "092903.870000", "092903.873000", "092903.875000", "092903.878000", "092903.881000", "092903.884000", "092903.898000", "092903.901000", "092923.835000", "092923.838000", "092923.841000", "092923.844000", "092923.847000", "092923.849000", "092923.852000", "092923.855000", "092923.858000", "092923.861000", "092923.864000", "092923.867000", "092923.870000", "092923.873000", "092923.876000", "092923.879000", "092923.882000", "092923.885000", "092923.887000", "092923.890000", "092943.834000", "092943.837000", "092943.840000", "092943.843000", "092943.846000", "092943.848000", "092943.851000", "092943.854000", "092943.857000", "092943.860000", "092943.863000", "092943.866000", "092943.869000", "092943.871000", "092943.874000", "092943.877000", "092943.880000", "092943.883000", "092943.886000", "092943.889000", "093023.835000", "093023.838000", "093023.841000", "093023.844000", "093023.847000", "093023.850000", "093023.853000", "093023.855000", "093023.858000", "093023.861000", "093023.864000", "093023.867000", "093023.870000", "093023.873000", "093023.876000", "093023.879000", "093023.881000", "093023.884000", "093023.887000", "093023.890000", "093023.893000", "093023.897000", "093023.900000", "093023.903000", "093023.906000", "093023.908000", "093023.911000", "093023.914000", "093023.917000", "093023.920000", "093103.835000", "093103.838000", "093103.841000", "093103.844000", "093103.847000", "093103.850000", "093103.853000", "093103.855000", "093103.858000", "093103.861000", "093103.864000", "093103.867000", "093103.870000", "093103.873000", "093103.875000", "093103.878000", "093103.881000", "093103.884000", "093103.887000", "093103.890000", "093103.893000", "093103.896000", "093103.899000", "093103.901000", "093103.904000", "093103.907000", "093103.910000", "093143.835000", "093143.838000", "093143.841000", "093143.844000", "093143.847000", "093143.850000", "093143.852000", "093143.855000", "093143.858000", "093143.861000", "093143.864000", "093143.867000", "093143.870000", "093143.873000", "093143.875000", "093143.878000", "093143.881000", "093143.884000", "093143.887000", "093143.890000", "093143.893000", "093143.896000", "093143.898000", "093143.901000", "093143.904000", "093143.907000", "093143.910000", "093223.835000", "093223.838000", "093223.841000", "093223.844000", "093223.847000", "093223.850000", "093223.852000", "093223.855000", "093223.858000", "093223.861000", "093223.864000", "093223.867000", "093223.870000", "093223.873000", "093223.876000", "093223.879000", "093223.881000", "093223.884000", "093223.887000", "093223.890000", "093223.893000", "093223.896000", "093223.899000", "093223.902000", "093223.905000", "093223.908000", "093223.910000", "093303.835000", "093303.838000", "093303.841000", "093303.844000", "093303.847000", "093303.850000", "093303.853000", "093303.856000", "093303.858000", "093303.861000", "093303.864000", "093303.867000", "093303.870000", "093303.873000", "093303.876000", "093303.879000", "093303.882000", "093303.885000", "093303.887000", "093303.890000", "093303.893000", "093303.896000", "093303.899000", "093303.902000", "093303.905000", "093303.908000", "093303.911000", "093343.835000", "093343.838000", "093343.841000", "093343.844000", "093343.847000", "093343.850000", "093343.853000", "093343.856000", "093343.858000", "093343.861000", "093343.864000", "093343.867000", "093343.870000", "093343.873000", "093343.876000", "093343.879000", "093343.882000", "093343.885000", "093343.888000", "093343.890000", "093343.893000", "093343.896000", "093343.899000", "093343.902000", "093343.905000", "093343.915000", "093343.918000", "093423.834000", "093423.837000", "093423.840000", "093423.843000", "093423.846000", "093423.849000", "093423.852000", "093423.855000", "093423.858000", "093423.861000", "093423.863000", "093423.866000", "093423.869000", "093423.872000", "093423.875000", "093423.878000", "093423.881000", "093423.884000", "093423.887000", "093423.890000", "093423.894000", "093423.897000", "093423.899000", "093423.903000", "093423.906000", "093423.909000", "093503.835000", "093503.838000", "093503.841000", "093503.844000", "093503.847000", "093503.850000", "093503.853000", "093503.856000", "093503.858000", "093503.861000", "093503.864000", "093503.867000", "093503.870000", "093503.873000", "093503.876000", "093503.879000", "093503.882000", "093503.885000", "093503.888000", "093503.890000", "093503.893000", "093503.896000", "093503.899000", "093503.902000", "093503.905000", "093503.908000", "093503.910000", "093543.835000", "093543.838000", "093543.841000", "093543.844000", "093543.847000", "093543.850000", "093543.853000", "093543.856000", "093543.858000", "093543.861000", "093543.864000", "093543.867000", "093543.870000", "093543.873000", "093543.876000", "093543.879000", "093543.882000", "093543.885000", "093543.888000", "093543.891000", "093543.893000", "093543.896000", "093543.899000", "093543.902000", "093543.905000", "093543.908000", "093543.911000", "093623.835000", "093623.838000", "093623.841000", "093623.844000", "093623.847000", "093623.850000", "093623.853000", "093623.856000", "093623.858000", "093623.861000", "093623.864000", "093623.867000", "093623.870000", "093623.873000", "093623.876000", "093623.879000", "093623.882000", "093623.885000", "093623.888000", "093623.891000", "093623.894000", "093623.896000", "093623.899000", "093623.902000", "093623.905000", "093623.908000", "093623.911000", "093703.835000", "093703.838000", "093703.841000", "093703.844000", "093703.847000", "093703.850000", "093703.853000", "093703.856000", "093703.859000", "093703.861000", "093703.864000", "093703.867000", "093703.870000", "093703.873000", "093703.876000", "093703.879000", "093703.882000", "093703.885000", "093703.888000", "093703.891000", "093703.893000", "093703.896000", "093703.899000", "093703.902000", "093703.905000", "093703.908000", "093703.911000", "093743.835000", "093743.838000", "093743.841000", "093743.844000", "093743.847000", "093743.850000", "093743.853000", "093743.855000", "093743.858000", "093743.861000", "093743.864000", "093743.867000", "093743.884000", "093743.886000", "093743.889000", "093743.892000", "093743.895000", "093743.898000", "093743.901000", "093743.904000", "093743.907000", "093743.910000", "093743.912000", "093743.915000", "093743.918000", "093743.921000", "093743.924000", "093823.835000", "093823.838000", "093823.841000", "093823.844000", "093823.847000", "093823.850000", "093823.853000", "093823.856000", "093823.858000", "093823.861000", "093823.864000", "093823.867000", "093823.870000", "093823.873000", "093823.876000", "093823.879000", "093823.882000", "093823.885000", "093823.888000", "093823.891000", "093823.893000", "093823.896000", "093823.899000", "093823.902000", "093823.905000", "093823.908000", "093823.911000", "093829.812000", "093829.815000", "093829.818000", "093829.821000"],
