{
  "AcquisitionMatrixPE": 104,
  "AcquisitionNumber": 1,
  "AcquisitionTime": "10:15:2.680000",
  "BandwidthPerPixelPhaseEncode": 17.17,
  "BaseResolution": 104,
  "BodyPartExamined": "BRAIN",
  "CoilString": "HC1-7;NC1_2",
  "ConsistencyInfo": "N4_VE11C_LATEST_20160120",
  "ConversionSoftware": "dcm2niix",
  "ConversionSoftwareVersion": "v1.0.20190902",
  "DerivedVendorReportedEchoSpacing": 0.000560011,
  "DeviceSerialNumber": "167006",
  "DwellTime": 2.1e-06,
  "EchoTime": 0.037,
  "EchoTrainLength": 104,
  "EffectiveEchoSpacing": 0.000560011,
  "FlipAngle": 52,
  "ImageComments": "Unaliased_MB4_PE3_LB",
  "ImageOrientationPatientDICOM": [0.996734, 0.073049, 0.0344209, -0.0628838, 0.969553, -0.23667],
  "ImageType": [
    "ORIGINAL",
    "PRIMARY",
    "M",
    "MB",
    "ND",
    "MOSAIC"
],
  "ImagingFrequency": 123.259,
  "InPlanePhaseEncodingDirectionDICOM": "COL",
  "InstitutionAddress": "Chemin_Queen-Mary_4565_Montreal_District_CA_H3W_1W5",
  "InstitutionName": "IUGM",
  "InstitutionalDepartmentName": "Department",
  "MRAcquisitionType": "2D",
  "MagneticFieldStrength": 3,
  "Manufacturer": "Siemens",
  "ManufacturersModelName": "Prisma_fit",
  "Modality": "MR",
  "MultibandAccelerationFactor": 4,
  "PartialFourier": 1,
  "PatientPosition": "HFS",
  "PercentPhaseFOV": 100,
  "PhaseEncodingDirection": "j",
  "PhaseEncodingSteps": 104,
  "PhaseResolution": 1,
  "PixelBandwidth": 2290,
  "ProcedureStepDescription": "video_friends",
  "ProtocolName": "func_task-friends-s03e12a",
  "PulseSequenceDetails": "%CustomerSeq%_cmrr_mbep2d_bold",
  "ReceiveCoilActiveElements": "HC1-7;NC1,2",
  "ReceiveCoilName": "HeadNeck_64",
  "ReconMatrixPE": 104,
  "RepetitionTime": 1.49,
  "SAR": 0.0393227,
  "ScanOptions": "FS",
  "ScanningSequence": "EP",
  "SequenceName": "epfid2d1_104",
  "SequenceVariant": "SK_SS",
  "SeriesDescription": "func_task-friends-s03e12a",
  "SeriesNumber": 17,
  "ShimSetting": [644, -7221, -8803, 682, 105, -83, 123, -29],
  "SliceThickness": 2,
  "SliceTiming": [0, 0.7825, 0.0975, 0.8825, 0.195, 0.98, 0.295, 1.0775, 0.3925, 1.175, 0.49, 1.2725, 0.5875, 1.3725, 0.685, 0, 0.7825, 0.0975, 0.8825, 0.195, 0.98, 0.295, 1.0775, 0.3925, 1.175, 0.49, 1.2725, 0.5875, 1.3725, 0.685, 0, 0.7825, 0.0975, 0.8825, 0.195, 0.98, 0.295, 1.0775, 0.3925, 1.175, 0.49, 1.2725, 0.5875, 1.3725, 0.685, 0, 0.7825, 0.0975, 0.8825, 0.195, 0.98, 0.295, 1.0775, 0.3925, 1.175, 0.49, 1.2725, 0.5875, 1.3725, 0.685],
  "SoftwareVersions": "syngo_MR_E11",
  "SpacingBetweenSlices": 2,
  "StationName": "MRC35049",
  "TaskName": "s03e12a",
  "TotalReadoutTime": 0.0576811,
  "TxRefAmp": 247.552,
  "WipMemBlock": "f70efa57-2ab6-45f0-9e97-a9c2bcc10142||Sequence: R016 ve11c/master r/e634e98; Dec 19 2017 11:00:25 by eja",
  "dcmmeta_affine": [
    [-1.9934684038162231, -0.12576764822006226, 0.10132291167974472, 106.5753173828125],
    [-0.1460980325937271, 1.9391056299209595, -0.4674660861492157, -68.46170806884766],
    [0.0688418596982956, 0.4733409583568573, 1.9419602155685425, -46.62137222290039],
    [0.0, 0.0, 0.0, 1.0]
],
  "dcmmeta_reorient_transform": [
    [0.0, -1.0, 0.0, 103.0],
    [1.0, 0.0, 0.0, 0.0],
    [0.0, 0.0, 1.0, 0.0],
    [0.0, 0.0, 0.0, 1.0]
],
  "dcmmeta_shape": [104, 104, 60, 464],
  "dcmmeta_slice_dim": 2,
  "dcmmeta_version": 0.6,
  "global": {
    "const": {
      "AcquisitionMatrix": [104, 0, 0, 104],
      "AngioFlag": "N",
      "BitsAllocated": 16,
      "BitsStored": 16,
      "BodyPartExamined": "BRAIN",
      "Columns": 832,
      "EchoNumbers": 1,
      "EchoTime": 37.0,
      "EchoTrainLength": 104,
      "FlipAngle": 52.0,
      "HighBit": 15,
      "ImageOrientationPatient": [0.99673418784539, 0.07304901385732, 0.03442092902097, -0.0628838276079, 0.96955283852504, -0.236670483021],
      "ImagePositionPatient": [-773.46431391702, -890.28032391528, 149.37042386519],
      "ImageType": [
        "ORIGINAL",
        "PRIMARY",
        "M",
        "MB",
        "ND",
        "MOSAIC"
],
      "ImagedNucleus": "1H",
      "ImagingFrequency": 123.259351,
      "InPlanePhaseEncodingDirection": "COL",
      "MRAcquisitionType": "2D",
      "MagneticFieldStrength": 3.0,
      "Manufacturer": "SIEMENS",
      "ManufacturerModelName": "Prisma_fit",
      "Modality": "MR",
      "NumberOfAverages": 1.0,
      "NumberOfPhaseEncodingSteps": 104,
      "PercentPhaseFieldOfView": 100.0,
      "PercentSampling": 100.0,
      "PerformedProcedureStepStartTime": "090022.524000",
      "PhotometricInterpretation": "MONOCHROME2",
      "PixelBandwidth": 2290.0,
      "PixelRepresentation": 0,
      "PixelSpacing": [2.0, 2.0],
      "ProtocolName": "func_task-friends-s03e12a",
      "RepetitionTime": 1490.0,
      "Rows": 832,
      "SAR": 0.0393227024191,
      "SamplesPerPixel": 1,
      "ScanOptions": "FS",
      "ScanningSequence": "EP",
      "SequenceName": "epfid2d1_104",
      "SequenceVariant": [
        "SK",
        "SS"
],
      "SeriesDescription": "func_task-friends-s03e12a",
      "SeriesNumber": 17,
      "SeriesTime": "101616.392000",
      "SliceLocation": -23.867397336056,
      "SliceThickness": 2.0,
      "SmallestImagePixelValue": 0,
      "SoftwareVersions": "syngo MR E11",
      "SpacingBetweenSlices": 2.0000000675837,
      "SpecificCharacterSet": "ISO_IR 100",
      "StudyID": "1",
      "StudyTime": "090022.412000",
      "TransmitCoilName": "Body",
      "VariableFlipAngleFlag": "N",
      "WindowCenterWidthExplanation": "Algo1",
      "dBdt": 0.0},
    "slices": {}
  },
  "time": {
    "samples": {
      "AcquisitionNumber": [1, 2, 3, 4, 5, 6, 7, 8, 9, 10, 11, 12, 13, 14, 15, 16, 17, 18, 19, 20, 21, 22, 23, 24, 25, 26, 27, 28, 29, 30, 31, 32, 33, 34, 35, 36, 37, 38, 39, 40, 41, 42, 43, 44, 45, 46, 47, 48, 49, 50, 51, 52, 53, 54, 55, 56, 57, 58, 59, 60, 61, 62, 63, 64, 65, 66, 67, 68, 69, 70, 71, 72, 73, 74, 75, 76, 77, 78, 79, 80, 81, 82, 83, 84, 85, 86, 87, 88, 89, 90, 91, 92, 93, 94, 95, 96, 97, 98, 99, 100, 101, 102, 103, 104, 105, 106, 107, 108, 109, 110, 111, 112, 113, 114, 115, 116, 117, 118, 119, 120, 121, 122, 123, 124, 125, 126, 127, 128, 129, 130, 131, 132, 133, 134, 135, 136, 137, 138, 139, 140, 141, 142, 143, 144, 145, 146, 147, 148, 149, 150, 151, 152, 153, 154, 155, 156, 157, 158, 159, 160, 161, 162, 163, 164, 165, 166, 167, 168, 169, 170, 171, 172, 173, 174, 175, 176, 177, 178, 179, 180, 181, 182, 183, 184, 185, 186, 187, 188, 189, 190, 191, 192, 193, 194, 195, 196, 197, 198, 199, 200, 201, 202, 203, 204, 205, 206, 207, 208, 209, 210, 211, 212, 213, 214, 215, 216, 217, 218, 219, 220, 221, 222, 223, 224, 225, 226, 227, 228, 229, 230, 231, 232, 233, 234, 235, 236, 237, 238, 239, 240, 241, 242, 243, 244, 245, 246, 247, 248, 249, 250, 251, 252, 253, 254, 255, 256, 257, 258, 259, 260, 261, 262, 263, 264, 265, 266, 267, 268, 269, 270, 271, 272, 273, 274, 275, 276, 277, 278, 279, 280, 281, 282, 283, 284, 285, 286, 287, 288, 289, 290, 291, 292, 293, 294, 295, 296, 297, 298, 299, 300, 301, 302, 303, 304, 305, 306, 307, 308, 309, 310, 311, 312, 313, 314, 315, 316, 317, 318, 319, 320, 321, 322, 323, 324, 325, 326, 327, 328, 329, 330, 331, 332, 333, 334, 335, 336, 337, 338, 339, 340, 341, 342, 343, 344, 345, 346, 347, 348, 349, 350, 351, 352, 353, 354, 355, 356, 357, 358, 359, 360, 361, 362, 363, 364, 365, 366, 367, 368, 369, 370, 371, 372, 373, 374, 375, 376, 377, 378, 379, 380, 381, 382, 383, 384, 385, 386, 387, 388, 389, 390, 391, 392, 393, 394, 395, 396, 397, 398, 399, 400, 401, 402, 403, 404, 405, 406, 407, 408, 409, 410, 411, 412, 413, 414, 415, 416, 417, 418, 419, 420, 421, 422, 423, 424, 425, 426, 427, 428, 429, 430, 431, 432, 433, 434, 435, 436, 437, 438, 439, 440, 441, 442, 443, 444, 445, 446, 447, 448, 449, 450, 451, 452, 453, 454, 455, 456, 457, 458, 459, 460, 461, 462, 463, 464],
      "AcquisitionTime": ["101502.680000", "101504.170000", "101505.660000", "101507.150000", "101508.640000", "101510.130000", "101511.620000", "101513.110000", "101514.600000", "101516.090000", "101517.580000", "101519.070000", "101520.560000", "101522.050000", "101523.540000", "101525.030000", "101526.520000", "101528.010000", "101529.500000", "101530.990000", "101532.480000", "101533.970000", "101535.460000", "101536.950000", "101538.440000", "101539.930000", "101541.420000", "101542.910000", "101544.400000", "101545.890000", "101547.380000", "101548.870000", "101550.360000", "101551.850000", "101553.340000", "101554.830000", "101556.320000", "101557.810000", "101559.300000", "101600.790000", "101602.280000", "101603.770000", "101605.260000", "101606.750000", "101608.240000", "101609.730000", "101611.220000", "101612.710000", "101614.200000", "101615.690000", "101617.180000", "101618.670000", "101620.160000", "101621.650000", "101623.140000", "101624.630000", "101626.120000", "101627.610000", "101629.100000", "101630.590000", "101632.080000", "101633.570000", "101635.060000", "101636.550000", "101638.040000", "101639.530000", "101641.020000", "101642.510000", "101644.000000", "101645.490000", "101646.980000", "101648.470000", "101649.960000", "101651.450000", "101652.940000", "101654.430000", "101655.920000", "101657.410000", "101658.900000", "101700.390000", "101701.880000", "101703.370000", "101704.860000", "101706.350000", "101707.840000", "101709.330000", "101710.820000", "101712.310000", "101713.800000", "101715.290000", "101716.780000", "101718.270000", "101719.760000", "101721.250000", "101722.740000", "101724.230000", "101725.720000", "101727.210000", "101728.700000", "101730.190000", "101731.680000", "101733.170000", "101734.660000", "101736.150000", "101737.640000", "101739.130000", "101740.620000", "101742.110000", "101743.600000", "101745.090000", "101746.580000", "101748.070000", "101749.560000", "101751.050000", "101752.540000", "101754.030000", "101755.520000", "101757.010000", "101758.500000", "101759.990000", "101801.480000", "101802.970000", "101804.460000", "101805.950000", "101807.440000", "101808.930000", "101810.420000", "101811.910000", "101813.400000", "101814.890000", "101816.380000", "101817.870000", "101819.360000", "101820.850000", "101822.340000", "101823.830000", "101825.320000", "101826.810000", "101828.300000", "101829.790000", "101831.280000", "101832.770000", "101834.260000", "101835.750000", "101837.240000", "101838.730000", "101840.220000", "101841.710000", "101843.200000", "101844.690000", "101846.180000", "101847.670000", "101849.160000", "101850.650000", "101852.140000", "101853.630000", "101855.120000", "101856.610000", "101858.100000", "101859.590000", "101901.080000", "101902.570000", "101904.060000", "101905.550000", "101907.040000", "101908.530000", "101910.020000", "101911.510000", "101913.000000", "101914.490000", "101915.980000", "101917.470000", "101918.960000", "101920.450000", "101921.940000", "101923.430000", "101924.920000", "101926.410000", "101927.900000", "101929.390000", "101930.880000", "101932.370000", "101933.860000", "101935.350000", "101936.840000", "101938.330000", "101939.820000", "101941.310000", "101942.800000", "101944.290000", "101945.780000", "101947.270000", "101948.760000", "101950.250000", "101951.740000", "101953.230000", "101954.720000", "101956.210000", "101957.700000", "101959.190000", "102000.680000", "102002.170000", "102003.660000", "102005.150000", "102006.640000", "102008.130000", "102009.620000", "102011.110000", "102012.600000", "102014.090000", "102015.580000", "102017.070000", "102018.560000", "102020.050000", "102021.540000", "102023.030000", "102024.520000", "102026.010000", "102027.500000", "102028.990000", "102030.480000", "102031.970000", "102033.460000", "102034.950000", "102036.440000", "102037.930000", "102039.420000", "102040.910000", "102042.400000", "102043.890000", "102045.380000", "102046.870000", "102048.360000", "102049.850000", "102051.340000", "102052.830000", "102054.320000", "102055.810000", "102057.300000", "102058.790000", "102100.280000", "102101.770000", "102103.260000", "102104.750000", "102106.240000", "102107.730000", "102109.220000", "102110.710000", "102112.200000", "102113.690000", "102115.180000", "102116.670000", "102118.160000", "102119.650000", "102121.140000", "102122.630000", "102124.120000", "102125.610000", "102127.100000", "102128.590000", "102130.080000", "102131.570000", "102133.060000", "102134.550000", "102136.040000", "102137.530000", "102139.020000", "102140.510000", "102142.000000", "102143.490000", "102144.980000", "102146.470000", "102147.960000", "102149.450000", "102150.940000", "102152.430000", "102153.920000", "102155.410000", "102156.900000", "102158.390000", "102159.880000", "102201.370000", "102202.860000", "102204.350000", "102205.840000", "102207.330000", "102208.820000", "102210.310000", "102211.800000", "102213.290000", "102214.780000", "102216.270000", "102217.760000", "102219.250000", "102220.740000", "102222.230000", "102223.720000", "102225.210000", "102226.700000", "102228.190000", "102229.680000", "102231.170000", "102232.660000", "102234.150000", "102235.640000", "102237.130000", "102238.620000", "102240.110000", "102241.600000", "102243.090000", "102244.580000", "102246.070000", "102247.560000", "102249.050000", "102250.540000", "102252.030000", "102253.520000", "102255.010000", "102256.500000", "102257.990000", "102259.480000", "102300.970000", "102302.460000", "102303.950000", "102305.440000", "102306.930000", "102308.420000", "102309.910000", "102311.400000", "102312.890000", "102314.380000", "102315.870000", "102317.360000", "102318.850000", "102320.340000", "102321.830000", "102323.320000", "102324.810000", "102326.300000", "102327.790000", "102329.280000", "102330.770000", "102332.260000", "102333.750000", "102335.240000", "102336.730000", "102338.220000", "102339.710000", "102341.200000", "102342.690000", "102344.180000", "102345.670000", "102347.160000", "102348.650000", "102350.140000", "102351.630000", "102353.120000", "102354.610000", "102356.100000", "102357.590000", "102359.080000", "102400.570000", "102402.060000", "102403.550000", "102405.040000", "102406.530000", "102408.020000", "102409.510000", "102411.000000", "102412.490000", "102413.980000", "102415.470000", "102416.960000", "102418.450000", "102419.940000", "102421.430000", "102422.920000", "102424.410000", "102425.900000", "102427.390000", "102428.880000", "102430.370000", "102431.860000", "102433.350000", "102434.840000", "102436.330000", "102437.820000", "102439.310000", "102440.800000", "102442.290000", "102443.780000", "102445.270000", "102446.760000", "102448.250000", "102449.740000", "102451.230000", "102452.720000", "102454.210000", "102455.700000", "102457.190000", "102458.680000", "102500.170000", "102501.660000", "102503.150000", "102504.640000", "102506.130000", "102507.620000", "102509.110000", "102510.600000", "102512.090000", "102513.580000", "102515.070000", "102516.560000", "102518.050000", "102519.540000", "102521.030000", "102522.520000", "102524.010000", "102525.500000", "102526.990000", "102528.480000", "102529.970000", "102531.460000", "102532.950000", "102534.440000", "102535.930000", "102537.420000", "102538.910000", "102540.400000", "102541.890000", "102543.380000", "102544.870000", "102546.360000", "102547.850000", "102549.340000", "102550.830000", "102552.320000", "102553.810000", "102555.300000", "102556.790000", "102558.280000", "102559.770000", "102601.260000", "102602.750000", "102604.240000", "102605.730000", "102607.220000", "102608.710000", "102610.200000", "102611.690000", "102613.180000", "102614.670000", "102616.160000", "102617.650000", "102619.140000", "102620.630000", "102622.120000", "102623.610000", "102625.100000", "102626.590000", "102628.080000", "102629.570000", "102631.060000", "102632.550000"],
      "ContentTime": ["101616.395000", "101616.398000", "101616.401000", "101616.404000", "101616.407000", "101616.410000", "101616.413000", "101616.416000", "101616.419000", "101616.422000", "101616.425000", "101616.427000", "101616.430000", "101616.433000", "101616.436000", "101616.439000", "101616.442000", "101616.445000", "101636.362000", "101636.365000", "101636.368000", "101636.371000", "101636.374000", "101636.377000", "101636.379000", "101636.382000", "101636.385000", "101636.388000", "101636.391000", "101636.394000", "101636.397000", "101636.400000", "101636.403000", "101636.406000", "101636.408000", "101636.411000", "101636.414000", "101636.417000", "101656.362000", "101656.365000", "101656.368000", "101656.371000", "101656.374000", "101656.376000", "101656.379000", "101656.382000", "101656.385000", "101656.388000", "101656.391000", "101656.394000", "101656.397000", "101656.413000", "101656.416000", "101656.419000", "101656.422000", "101656.425000", "101656.428000", "101656.431000", "101716.363000", "101716.366000", "101716.369000", "101716.372000", "101716.375000", "101716.378000", "101716.381000", "101716.383000", "101716.386000", "101716.389000", "101716.392000", "101716.395000", "101716.398000", "101716.401000", "101716.404000", "101716.407000", "101716.409000", "101716.412000", "101716.415000", "101716.418000", "101716.421000", "101736.363000", "101736.366000", "101736.369000", "101736.372000", "101736.375000", "101736.378000", "101736.380000", "101736.383000", "101736.387000", "101736.389000", "101736.392000", "101736.395000", "101736.398000", "101736.401000", "101736.404000", "101736.407000", "101736.410000", "101736.413000", "101736.415000", "101736.418000", "101816.362000", "101816.365000", "101816.368000", "101816.371000", "101816.374000", "101816.377000", "101816.380000", "101816.383000", "101816.385000", "101816.388000", "101816.391000", "101816.394000", "101816.397000", "101816.400000", "101816.403000", "101816.406000", "101816.408000", "101816.411000", "101816.414000", "101816.417000", "101816.420000", "101816.423000", "101816.426000", "101816.429000", "101816.432000", "101816.435000", "101816.438000", "101816.440000", "101816.443000", "101816.446000", "101856.362000", "101856.365000", "101856.368000", "101856.371000", "101856.374000", "101856.377000", "101856.380000", "101856.383000", "101856.386000", "101856.388000", "101856.391000", "101856.394000", "101856.397000", "101856.400000", "101856.403000", "101856.406000", "101856.409000", "101856.412000", "101856.415000", "101856.418000", "101856.421000", "101856.423000", "101856.426000", "101856.429000", "101856.432000", "101856.435000", "101856.438000", "101936.363000", "101936.366000", "101936.369000", "101936.372000", "101936.375000", "101936.378000", "101936.381000", "101936.384000", "101936.386000", "101936.389000", "101936.392000", "101936.395000", "101936.398000", "101936.401000", "101936.404000", "101936.407000", "101936.410000", "101936.413000", "101936.416000", "101936.418000", "101936.421000", "101936.424000", "101936.427000", "101936.430000", "101936.433000", "101936.436000", "101936.439000", "102016.362000", "102016.365000", "102016.368000", "102016.371000", "102016.374000", "102016.377000", "102016.380000", "102016.383000", "102016.386000", "102016.388000", "102016.391000", "102016.394000", "102016.397000", "102016.400000", "102016.403000", "102016.406000", "102016.409000", "102016.412000", "102016.415000", "102016.418000", "102016.421000", "102016.423000", "102016.426000", "102016.429000", "102016.432000", "102016.435000", "102016.438000", "102056.362000", "102056.365000", "102056.368000", "102056.371000", "102056.374000", "102056.377000", "102056.380000", "102056.382000", "102056.385000", "102056.388000", "102056.391000", "102056.394000", "102056.397000", "102056.400000", "102056.403000", "102056.406000", "102056.409000", "102056.412000", "102056.414000", "102056.417000", "102056.420000", "102056.423000", "102056.426000", "102056.429000", "102056.432000", "102056.435000", "102056.438000", "102136.363000", "102136.366000", "102136.369000", "102136.372000", "102136.375000", "102136.378000", "102136.381000", "102136.384000", "102136.386000", "102136.389000", "102136.401000", "102136.404000", "102136.407000", "102136.410000", "102136.413000", "102136.416000", "102136.419000", "102136.422000", "102136.424000", "102136.427000", "102136.430000", "102136.433000", "102136.436000", "102136.439000", "102136.442000", "102136.445000", "102136.448000", "102216.362000", "102216.365000", "102216.368000", "102216.371000", "102216.374000", "102216.377000", "102216.380000", "102216.383000", "102216.385000", "102216.388000", "102216.391000", "102216.394000", "102216.397000", "102216.400000", "102216.403000", "102216.406000", "102216.409000", "102216.412000", "102216.414000", "102216.417000", "102216.420000", "102216.423000", "102216.426000", "102216.429000", "102216.432000", "102216.435000", "102256.362000", "102256.365000", "102256.368000", "102256.371000", "102256.374000", "102256.377000", "102256.380000", "102256.383000", "102256.386000", "102256.388000", "102256.391000", "102256.394000", "102256.397000", "102256.400000", "102256.403000", "102256.406000", "102256.409000", "102256.412000", "102256.415000", "102256.418000", "102256.421000", "102256.424000", "102256.426000", "102256.429000", "102256.432000", "102256.435000", "102256.438000", "102336.362000", "102336.365000", "102336.368000", "102336.371000", "102336.374000", "102336.377000", "102336.380000", "102336.383000", "102336.386000", "102336.389000", "102336.392000", "102336.395000", "102336.398000", "102336.400000", "102336.403000", "102336.406000", "102336.409000", "102336.412000", "102336.415000", "102336.418000", "102336.421000", "102336.424000", "102336.427000", "102336.430000", "102336.433000", "102336.435000", "102336.438000", "102416.363000", "102416.366000", "102416.369000", "102416.372000", "102416.375000", "102416.378000", "102416.381000", "102416.384000", "102416.387000", "102416.389000", "102416.392000", "102416.395000", "102416.398000", "102416.401000", "102416.404000", "102416.407000", "102416.410000", "102416.413000", "102416.416000", "102416.419000", "102416.421000", "102416.424000", "102416.427000", "102416.430000", "102416.433000", "102416.436000", "102416.439000", "102456.362000", "102456.365000", "102456.368000", "102456.371000", "102456.374000", "102456.377000", "102456.380000", "102456.383000", "102456.386000", "102456.389000", "102456.392000", "102456.394000", "102456.397000", "102456.400000", "102456.403000", "102456.406000", "102456.409000", "102456.412000", "102456.415000", "102456.418000", "102456.421000", "102456.424000", "102456.426000", "102456.429000", "102456.432000", "102456.435000", "102456.438000", "102536.362000", "102536.365000", "102536.368000", "102536.371000", "102536.374000", "102536.377000", "102536.380000", "102536.383000", "102536.386000", "102536.389000", "102536.392000", "102536.394000", "102536.398000", "102536.401000", "102536.404000", "102536.407000", "102536.410000", "102536.413000", "102536.415000", "102536.418000", "102536.421000", "102536.424000", "102536.427000", "102536.430000", "102536.433000", "102536.436000", "102536.439000", "102616.363000", "102616.366000", "102616.369000", "102616.372000", "102616.375000", "102616.378000", "102616.391000", "102616.394000", "102616.397000", "102616.400000", "102616.403000", "102616.406000", "102616.409000", "102616.412000", "102616.415000", "102616.418000", "102616.421000", "102616.424000", "102616.426000", "102616.429000", "102616.432000", "102616.435000", "102616.438000", "102616.441000", "102616.444000", "102616.447000", "102634.413000", "102634.416000", "102634.419000", "102634.423000", "102634.425000", "102634.428000", "102634.432000", "102634.435000", "102634.438000", "102634.441000", "102634.444000", "102634.447000", "102634.450000"],
