{
  "AcquisitionMatrixPE": 104,
  "AcquisitionNumber": 1,
  "AcquisitionTime": "13:23:13.050000",
  "BandwidthPerPixelPhaseEncode": 17.17,
  "BaseResolution": 104,
  "BodyPartExamined": "BRAIN",
  "CoilString": "HC1-7;NC1_2",
  "ConsistencyInfo": "N4_VE11C_LATEST_20160120",
  "ConversionSoftware": "dcm2niix",
  "ConversionSoftwareVersion": "v1.0.20190902",
  "DerivedVendorReportedEchoSpacing": 0.000560011,
  "DeviceSerialNumber": "167006",
  "DwellTime": 2.1e-06,
  "EchoTime": 0.037,
  "EchoTrainLength": 104,
  "EffectiveEchoSpacing": 0.000560011,
  "FlipAngle": 52,
  "ImageComments": "Unaliased_MB4_PE3_LB",
  "ImageOrientationPatientDICOM": [0.998467, -0.00360389, -0.0552394, -0.00853922, 0.975907, -0.218018],
  "ImageType": [
    "ORIGINAL",
    "PRIMARY",
    "M",
    "MB",
    "ND",
    "MOSAIC"
],
  "ImagingFrequency": 123.259,
  "InPlanePhaseEncodingDirectionDICOM": "COL",
  "InstitutionAddress": "Chemin_Queen-Mary_4565_Montreal_District_CA_H3W_1W5",
  "InstitutionName": "IUGM",
  "InstitutionalDepartmentName": "Department",
  "MRAcquisitionType": "2D",
  "MagneticFieldStrength": 3,
  "Manufacturer": "Siemens",
  "ManufacturersModelName": "Prisma_fit",
  "Modality": "MR",
  "MultibandAccelerationFactor": 4,
  "PartialFourier": 1,
  "PatientPosition": "HFS",
  "PercentPhaseFOV": 100,
  "PhaseEncodingDirection": "j",
  "PhaseEncodingSteps": 104,
  "PhaseResolution": 1,
  "PixelBandwidth": 2290,
  "ProcedureStepDescription": "video_friends",
  "ProtocolName": "func_task-friends-s03e08a",
  "PulseSequenceDetails": "%CustomerSeq%_cmrr_mbep2d_bold",
  "ReceiveCoilActiveElements": "HC1-7;NC1,2",
  "ReceiveCoilName": "HeadNeck_64",
  "ReconMatrixPE": 104,
  "RepetitionTime": 1.49,
  "SAR": 0.028527,
  "ScanOptions": "FS",
  "ScanningSequence": "EP",
  "SequenceName": "epfid2d1_104",
  "SequenceVariant": "SK_SS",
  "SeriesDescription": "func_task-friends-s03e08a",
  "SeriesNumber": 9,
  "ShimSetting": [604, -7244, -8827, 612, -34, -238, 0, 43],
  "SliceThickness": 2,
  "SliceTiming": [0, 0.785, 0.0975, 0.8825, 0.1975, 0.98, 0.295, 1.0775, 0.3925, 1.1775, 0.49, 1.275, 0.5875, 1.3725, 0.6875, 0, 0.785, 0.0975, 0.8825, 0.1975, 0.98, 0.295, 1.0775, 0.3925, 1.1775, 0.49, 1.275, 0.5875, 1.3725, 0.6875, 0, 0.785, 0.0975, 0.8825, 0.1975, 0.98, 0.295, 1.0775, 0.3925, 1.1775, 0.49, 1.275, 0.5875, 1.3725, 0.6875, 0, 0.785, 0.0975, 0.8825, 0.1975, 0.98, 0.295, 1.0775, 0.3925, 1.1775, 0.49, 1.275, 0.5875, 1.3725, 0.6875],
  "SoftwareVersions": "syngo_MR_E11",
  "SpacingBetweenSlices": 2,
  "StationName": "MRC35049",
  "TaskName": "s03e08a",
  "TotalReadoutTime": 0.0576811,
  "TxRefAmp": 216.412,
  "WipMemBlock": "a4eeb1ea-7915-44d0-8ce7-33dd8359e25c||Sequence: R016 ve11c/master r/e634e98; Dec 19 2017 11:00:25 by eja",
  "dcmmeta_affine": [
    [-1.9969332218170166, -0.017078448086977005, -0.10938852280378342, 103.15850830078125],
    [0.007207772694528103, 1.9518147706985474, -0.43631088733673096, -84.36622619628906],
    [-0.11047882586717606, 0.4360361099243164, 1.9487602710723877, -50.20126724243164],
    [0.0, 0.0, 0.0, 1.0]
],
  "dcmmeta_reorient_transform": [
    [0.0, -1.0, 0.0, 103.0],
    [1.0, 0.0, 0.0, 0.0],
    [0.0, 0.0, 1.0, 0.0],
    [0.0, 0.0, 0.0, 1.0]
],
  "dcmmeta_shape": [104, 104, 60, 460],
  "dcmmeta_slice_dim": 2,
  "dcmmeta_version": 0.6,
  "global": {
    "const": {
      "AcquisitionMatrix": [104, 0, 0, 104],
      "AngioFlag": "N",
      "BitsAllocated": 16,
      "BitsStored": 16,
      "BodyPartExamined": "BRAIN",
      "Columns": 832,
      "EchoNumbers": 1,
      "EchoTime": 37.0,
      "EchoTrainLength": 104,
      "FlipAngle": 52.0,
      "HighBit": 15,
      "ImageOrientationPatient": [0.99846663401283, -0.0036038864145, -0.0552394131559, -0.0085392240434, 0.97590737659969, -0.2180180587728],
      "ImagePositionPatient": [-822.06658127943, -824.50763317521, 193.64189221228],
      "ImageType": [
        "ORIGINAL",
        "PRIMARY",
        "M",
        "MB",
        "ND",
        "MOSAIC"
],
      "ImagedNucleus": "1H",
      "ImagingFrequency": 123.259029,
      "InPlanePhaseEncodingDirection": "COL",
      "MRAcquisitionType": "2D",
      "MagneticFieldStrength": 3.0,
      "Manufacturer": "SIEMENS",
      "ManufacturerModelName": "Prisma_fit",
      "Modality": "MR",
      "NumberOfAverages": 1.0,
      "NumberOfPhaseEncodingSteps": 104,
      "PercentPhaseFieldOfView": 100.0,
      "PercentSampling": 100.0,
      "PerformedProcedureStepStartTime": "125326.350000",
      "PhotometricInterpretation": "MONOCHROME2",
      "PixelBandwidth": 2290.0,
      "PixelRepresentation": 0,
      "PixelSpacing": [2.0, 2.0],
      "ProtocolName": "func_task-friends-s03e08a",
      "RepetitionTime": 1490.0,
      "Rows": 832,
      "SAR": 0.02852697816219,
      "SamplesPerPixel": 1,
      "ScanOptions": "FS",
      "ScanningSequence": "EP",
      "SequenceName": "epfid2d1_104",
      "SequenceVariant": [
        "SK",
        "SS"
],
      "SeriesDescription": "func_task-friends-s03e08a",
      "SeriesNumber": 9,
      "SeriesTime": "132439.795000",
      "SliceLocation": -36.152345461736,
      "SliceThickness": 2.0,
      "SmallestImagePixelValue": 0,
      "SoftwareVersions": "syngo MR E11",
      "SpacingBetweenSlices": 1.9999999144116,
      "SpecificCharacterSet": "ISO_IR 100",
      "StudyID": "2",
      "StudyTime": "125326.300000",
      "TransmitCoilName": "Body",
      "VariableFlipAngleFlag": "N",
      "WindowCenterWidthExplanation": "Algo1",
      "dBdt": 0.0},
    "slices": {}
  },
  "time": {
    "samples": {
      "AcquisitionNumber": [1, 2, 3, 4, 5, 6, 7, 8, 9, 10, 11, 12, 13, 14, 15, 16, 17, 18, 19, 20, 21, 22, 23, 24, 25, 26, 27, 28, 29, 30, 31, 32, 33, 34, 35, 36, 37, 38, 39, 40, 41, 42, 43, 44, 45, 46, 47, 48, 49, 50, 51, 52, 53, 54, 55, 56, 57, 58, 59, 60, 61, 62, 63, 64, 65, 66, 67, 68, 69, 70, 71, 72, 73, 74, 75, 76, 77, 78, 79, 80, 81, 82, 83, 84, 85, 86, 87, 88, 89, 90, 91, 92, 93, 94, 95, 96, 97, 98, 99, 100, 101, 102, 103, 104, 105, 106, 107, 108, 109, 110, 111, 112, 113, 114, 115, 116, 117, 118, 119, 120, 121, 122, 123, 124, 125, 126, 127, 128, 129, 130, 131, 132, 133, 134, 135, 136, 137, 138, 139, 140, 141, 142, 143, 144, 145, 146, 147, 148, 149, 150, 151, 152, 153, 154, 155, 156, 157, 158, 159, 160, 161, 162, 163, 164, 165, 166, 167, 168, 169, 170, 171, 172, 173, 174, 175, 176, 177, 178, 179, 180, 181, 182, 183, 184, 185, 186, 187, 188, 189, 190, 191, 192, 193, 194, 195, 196, 197, 198, 199, 200, 201, 202, 203, 204, 205, 206, 207, 208, 209, 210, 211, 212, 213, 214, 215, 216, 217, 218, 219, 220, 221, 222, 223, 224, 225, 226, 227, 228, 229, 230, 231, 232, 233, 234, 235, 236, 237, 238, 239, 240, 241, 242, 243, 244, 245, 246, 247, 248, 249, 250, 251, 252, 253, 254, 255, 256, 257, 258, 259, 260, 261, 262, 263, 264, 265, 266, 267, 268, 269, 270, 271, 272, 273, 274, 275, 276, 277, 278, 279, 280, 281, 282, 283, 284, 285, 286, 287, 288, 289, 290, 291, 292, 293, 294, 295, 296, 297, 298, 299, 300, 301, 302, 303, 304, 305, 306, 307, 308, 309, 310, 311, 312, 313, 314, 315, 316, 317, 318, 319, 320, 321, 322, 323, 324, 325, 326, 327, 328, 329, 330, 331, 332, 333, 334, 335, 336, 337, 338, 339, 340, 341, 342, 343, 344, 345, 346, 347, 348, 349, 350, 351, 352, 353, 354, 355, 356, 357, 358, 359, 360, 361, 362, 363, 364, 365, 366, 367, 368, 369, 370, 371, 372, 373, 374, 375, 376, 377, 378, 379, 380, 381, 382, 383, 384, 385, 386, 387, 388, 389, 390, 391, 392, 393, 394, 395, 396, 397, 398, 399, 400, 401, 402, 403, 404, 405, 406, 407, 408, 409, 410, 411, 412, 413, 414, 415, 416, 417, 418, 419, 420, 421, 422, 423, 424, 425, 426, 427, 428, 429, 430, 431, 432, 433, 434, 435, 436, 437, 438, 439, 440, 441, 442, 443, 444, 445, 446, 447, 448, 449, 450, 451, 452, 453, 454, 455, 456, 457, 458, 459, 460],
      "AcquisitionTime": ["132313.050000", "132314.540000", "132316.030000", "132317.520000", "132319.010000", "132320.500000", "132321.990000", "132323.480000", "132324.970000", "132326.460000", "132327.950000", "132329.440000", "132330.930000", "132332.420000", "132333.910000", "132335.400000", "132336.890000", "132338.380000", "132339.870000", "132341.360000", "132342.850000", "132344.340000", "132345.830000", "132347.320000", "132348.810000", "132350.300000", "132351.790000", "132353.280000", "132354.770000", "132356.260000", "132357.750000", "132359.240000", "132400.730000", "132402.220000", "132403.710000", "132405.200000", "132406.690000", "132408.180000", "132409.670000", "132411.160000", "132412.650000", "132414.140000", "132415.630000", "132417.120000", "132418.610000", "132420.100000", "132421.590000", "132423.080000", "132424.570000", "132426.060000", "132427.550000", "132429.040000", "132430.530000", "132432.020000", "132433.510000", "132435.000000", "132436.490000", "132437.980000", "132439.470000", "132440.960000", "132442.450000", "132443.940000", "132445.430000", "132446.920000", "132448.410000", "132449.900000", "132451.390000", "132452.880000", "132454.370000", "132455.860000", "132457.350000", "132458.840000", "132500.330000", "132501.820000", "132503.310000", "132504.800000", "132506.290000", "132507.780000", "132509.270000", "132510.760000", "132512.250000", "132513.740000", "132515.230000", "132516.720000", "132518.210000", "132519.700000", "132521.190000", "132522.680000", "132524.170000", "132525.660000", "132527.150000", "132528.640000", "132530.130000", "132531.620000", "132533.110000", "132534.600000", "132536.090000", "132537.580000", "132539.070000", "132540.560000", "132542.050000", "132543.540000", "132545.030000", "132546.520000", "132548.010000", "132549.500000", "132550.990000", "132552.480000", "132553.970000", "132555.460000", "132556.950000", "132558.440000", "132559.930000", "132601.420000", "132602.910000", "132604.400000", "132605.890000", "132607.380000", "132608.870000", "132610.360000", "132611.850000", "132613.340000", "132614.830000", "132616.320000", "132617.810000", "132619.300000", "132620.790000", "132622.280000", "132623.770000", "132625.260000", "132626.750000", "132628.240000", "132629.730000", "132631.220000", "132632.710000", "132634.200000", "132635.690000", "132637.180000", "132638.670000", "132640.160000", "132641.650000", "132643.140000", "132644.630000", "132646.120000", "132647.610000", "132649.100000", "132650.590000", "132652.080000", "132653.570000", "132655.060000", "132656.550000", "132658.040000", "132659.530000", "132701.020000", "132702.510000", "132704.000000", "132705.490000", "132706.980000", "132708.470000", "132709.960000", "132711.450000", "132712.940000", "132714.430000", "132715.920000", "132717.410000", "132718.900000", "132720.390000", "132721.880000", "132723.370000", "132724.860000", "132726.350000", "132727.840000", "132729.330000", "132730.820000", "132732.310000", "132733.800000", "132735.290000", "132736.780000", "132738.270000", "132739.760000", "132741.250000", "132742.740000", "132744.230000", "132745.720000", "132747.210000", "132748.700000", "132750.190000", "132751.680000", "132753.170000", "132754.660000", "132756.150000", "132757.640000", "132759.130000", "132800.620000", "132802.110000", "132803.600000", "132805.090000", "132806.580000", "132808.070000", "132809.560000", "132811.050000", "132812.540000", "132814.030000", "132815.520000", "132817.010000", "132818.500000", "132819.990000", "132821.480000", "132822.970000", "132824.460000", "132825.950000", "132827.440000", "132828.930000", "132830.420000", "132831.910000", "132833.400000", "132834.890000", "132836.380000", "132837.870000", "132839.360000", "132840.850000", "132842.340000", "132843.830000", "132845.320000", "132846.810000", "132848.300000", "132849.790000", "132851.280000", "132852.770000", "132854.260000", "132855.750000", "132857.240000", "132858.730000", "132900.220000", "132901.710000", "132903.200000", "132904.690000", "132906.180000", "132907.670000", "132909.160000", "132910.650000", "132912.140000", "132913.630000", "132915.120000", "132916.610000", "132918.100000", "132919.590000", "132921.080000", "132922.570000", "132924.060000", "132925.550000", "132927.040000", "132928.530000", "132930.020000", "132931.510000", "132933.000000", "132934.490000", "132935.980000", "132937.470000", "132938.960000", "132940.450000", "132941.940000", "132943.430000", "132944.920000", "132946.410000", "132947.900000", "132949.390000", "132950.880000", "132952.370000", "132953.860000", "132955.350000", "132956.840000", "132958.330000", "132959.820000", "133001.310000", "133002.800000", "133004.290000", "133005.780000", "133007.270000", "133008.760000", "133010.250000", "133011.740000", "133013.230000", "133014.720000", "133016.210000", "133017.700000", "133019.190000", "133020.680000", "133022.170000", "133023.660000", "133025.150000", "133026.640000", "133028.130000", "133029.620000", "133031.110000", "133032.600000", "133034.090000", "133035.580000", "133037.070000", "133038.560000", "133040.050000", "133041.540000", "133043.030000", "133044.520000", "133046.010000", "133047.500000", "133048.990000", "133050.480000", "133051.970000", "133053.460000", "133054.950000", "133056.440000", "133057.930000", "133059.420000", "133100.910000", "133102.400000", "133103.890000", "133105.380000", "133106.870000", "133108.360000", "133109.850000", "133111.340000", "133112.830000", "133114.320000", "133115.810000", "133117.300000", "133118.790000", "133120.280000", "133121.770000", "133123.260000", "133124.750000", "133126.240000", "133127.730000", "133129.220000", "133130.710000", "133132.200000", "133133.690000", "133135.180000", "133136.670000", "133138.160000", "133139.650000", "133141.140000", "133142.630000", "133144.120000", "133145.610000", "133147.100000", "133148.590000", "133150.080000", "133151.570000", "133153.060000", "133154.550000", "133156.040000", "133157.530000", "133159.020000", "133200.510000", "133202.000000", "133203.490000", "133204.980000", "133206.470000", "133207.960000", "133209.450000", "133210.940000", "133212.430000", "133213.920000", "133215.410000", "133216.900000", "133218.390000", "133219.880000", "133221.370000", "133222.860000", "133224.350000", "133225.840000", "133227.330000", "133228.820000", "133230.310000", "133231.800000", "133233.290000", "133234.780000", "133236.270000", "133237.760000", "133239.250000", "133240.740000", "133242.230000", "133243.720000", "133245.210000", "133246.700000", "133248.190000", "133249.680000", "133251.170000", "133252.660000", "133254.150000", "133255.640000", "133257.130000", "133258.620000", "133300.110000", "133301.600000", "133303.090000", "133304.580000", "133306.070000", "133307.560000", "133309.050000", "133310.540000", "133312.030000", "133313.520000", "133315.010000", "133316.500000", "133317.990000", "133319.480000", "133320.970000", "133322.460000", "133323.950000", "133325.440000", "133326.930000", "133328.420000", "133329.910000", "133331.400000", "133332.890000", "133334.380000", "133335.870000", "133337.360000", "133338.850000", "133340.340000", "133341.830000", "133343.320000", "133344.810000", "133346.300000", "133347.790000", "133349.280000", "133350.770000", "133352.260000", "133353.750000", "133355.240000", "133356.730000", "133358.220000", "133359.710000", "133401.200000", "133402.690000", "133404.180000", "133405.670000", "133407.160000", "133408.650000", "133410.140000", "133411.630000", "133413.120000", "133414.610000", "133416.100000", "133417.590000", "133419.080000", "133420.570000", "133422.060000", "133423.550000", "133425.040000", "133426.530000", "133428.020000", "133429.510000", "133431.000000", "133432.490000", "133433.980000", "133435.470000", "133436.960000"],
      "ContentTime": ["132439.798000", "132439.801000", "132439.804000", "132439.811000", "132439.813000", "132439.816000", "132439.819000", "132439.822000", "132439.825000", "132439.828000", "132439.831000", "132439.834000", "132439.836000", "132439.839000", "132439.842000", "132439.845000", "132439.848000", "132439.851000", "132439.854000", "132439.857000", "132459.771000", "132459.774000", "132459.777000", "132459.780000", "132459.782000", "132459.786000", "132459.788000", "132459.791000", "132459.794000", "132459.797000", "132459.800000", "132459.803000", "132459.806000", "132459.809000", "132459.811000", "132459.814000", "132459.817000", "132459.820000", "132459.823000", "132459.826000", "132519.771000", "132519.774000", "132519.777000", "132519.780000", "132519.782000", "132519.785000", "132519.788000", "132519.791000", "132519.794000", "132519.797000", "132519.800000", "132519.803000", "132519.806000", "132519.809000", "132519.811000", "132519.814000", "132519.817000", "132519.820000", "132519.825000", "132519.828000", "132539.771000", "132539.774000", "132539.777000", "132539.780000", "132539.782000", "132539.785000", "132539.788000", "132539.791000", "132539.794000", "132539.797000", "132539.800000", "132539.803000", "132539.805000", "132539.808000", "132539.811000", "132539.814000", "132539.817000", "132539.820000", "132539.823000", "132539.826000", "132559.772000", "132559.775000", "132559.778000", "132559.780000", "132559.783000", "132559.786000", "132559.789000", "132559.792000", "132559.795000", "132559.798000", "132559.815000", "132559.818000", "132559.821000", "132559.824000", "132559.827000", "132559.830000", "132559.832000", "132559.835000", "132559.838000", "132559.841000", "132619.771000", "132619.774000", "132619.777000", "132619.780000", "132619.782000", "132619.785000", "132619.788000", "132619.791000", "132619.794000", "132619.797000", "132619.800000", "132619.802000", "132619.805000", "132619.808000", "132619.811000", "132619.814000", "132619.817000", "132619.820000", "132619.823000", "132619.825000", "132659.771000", "132659.774000", "132659.777000", "132659.779000", "132659.782000", "132659.785000", "132659.788000", "132659.791000", "132659.794000", "132659.797000", "132659.800000", "132659.802000", "132659.805000", "132659.808000", "132659.811000", "132659.814000", "132659.817000", "132659.820000", "132659.822000", "132659.825000", "132659.828000", "132659.831000", "132659.834000", "132659.836000", "132659.839000", "132659.842000", "132659.845000", "132659.848000", "132659.851000", "132659.853000", "132659.856000", "132659.859000", "132739.771000", "132739.774000", "132739.777000", "132739.780000", "132739.783000", "132739.786000", "132739.788000", "132739.791000", "132739.794000", "132739.797000", "132739.800000", "132739.804000", "132739.806000", "132739.810000", "132739.818000", "132739.821000", "132739.824000", "132739.827000", "132739.830000", "132739.833000", "132739.835000", "132739.838000", "132739.841000", "132739.844000", "132739.847000", "132739.850000", "132819.772000", "132819.775000", "132819.778000", "132819.781000", "132819.784000", "132819.787000", "132819.789000", "132819.792000", "132819.795000", "132819.798000", "132819.801000", "132819.804000", "132819.807000", "132819.810000", "132819.812000", "132819.815000", "132819.818000", "132819.821000", "132819.824000", "132819.827000", "132819.830000", "132819.833000", "132819.835000", "132819.838000", "132819.841000", "132819.844000", "132819.847000", "132859.771000", "132859.774000", "132859.777000", "132859.779000", "132859.782000", "132859.785000", "132859.788000", "132859.791000", "132859.794000", "132859.797000", "132859.800000", "132859.802000", "132859.805000", "132859.808000", "132859.811000", "132859.814000", "132859.825000", "132859.828000", "132859.831000", "132859.834000", "132859.837000", "132859.840000", "132859.843000", "132859.845000", "132859.848000", "132859.851000", "132859.854000", "132939.771000", "132939.774000", "132939.777000", "132939.780000", "132939.783000", "132939.785000", "132939.788000", "132939.791000", "132939.794000", "132939.797000", "132939.800000", "132939.803000", "132939.806000", "132939.809000", "132939.811000", "132939.814000", "132939.817000", "132939.820000", "132939.823000", "132939.826000", "132939.829000", "132939.832000", "132939.835000", "132939.838000", "132939.840000", "132939.843000", "132939.846000", "133019.771000", "133019.774000", "133019.777000", "133019.780000", "133019.783000", "133019.786000", "133019.789000", "133019.791000", "133019.794000", "133019.797000", "133019.800000", "133019.803000", "133019.806000", "133019.809000", "133019.812000", "133019.815000", "133019.817000", "133019.820000", "133019.823000", "133019.826000", "133019.829000", "133019.832000", "133019.835000", "133019.837000", "133019.840000", "133019.843000", "133019.846000", "133059.771000", "133059.791000", "133059.794000", "133059.797000", "133059.799000", "133059.802000", "133059.805000", "133059.808000", "133059.811000", "133059.814000", "133059.817000", "133059.820000", "133059.822000", "133059.826000", "133059.828000", "133059.831000", "133059.834000", "133059.837000", "133059.840000", "133059.843000", "133059.846000", "133059.849000", "133059.851000", "133059.854000", "133059.857000", "133059.860000", "133059.863000", "133139.771000", "133139.774000", "133139.777000", "133139.780000", "133139.783000", "133139.786000", "133139.789000", "133139.791000", "133139.794000", "133139.797000", "133139.800000", "133139.803000", "133139.806000", "133139.809000", "133139.812000", "133139.815000", "133139.818000", "133139.820000", "133139.823000", "133139.826000", "133139.829000", "133139.832000", "133139.835000", "133139.838000", "133139.841000", "133139.843000", "133219.771000", "133219.774000", "133219.777000", "133219.780000", "133219.783000", "133219.786000", "133219.789000", "133219.792000", "133219.794000", "133219.797000", "133219.800000", "133219.803000", "133219.806000", "133219.809000", "133219.812000", "133219.815000", "133219.818000", "133219.820000", "133219.823000", "133219.826000", "133219.829000", "133219.832000", "133219.835000", "133219.838000", "133219.840000", "133219.843000", "133219.846000", "133259.772000", "133259.775000", "133259.778000", "133259.781000", "133259.784000", "133259.787000", "133259.789000", "133259.792000", "133259.795000", "133259.798000", "133259.801000", "133259.804000", "133259.807000", "133259.809000", "133259.812000", "133259.815000", "133259.818000", "133259.821000", "133259.824000", "133259.827000", "133259.829000", "133259.832000", "133259.835000", "133259.838000", "133259.841000", "133259.844000", "133259.847000", "133339.771000", "133339.774000", "133339.777000", "133339.779000", "133339.782000", "133339.785000", "133339.788000", "133339.791000", "133339.794000", "133339.797000", "133339.800000", "133339.803000", "133339.806000", "133339.809000", "133339.812000", "133339.814000", "133339.817000", "133339.820000", "133339.823000", "133339.826000", "133339.829000", "133339.831000", "133339.834000", "133339.837000", "133339.840000", "133339.843000", "133339.846000", "133419.771000", "133419.774000", "133419.777000", "133419.780000", "133419.783000", "133419.785000", "133419.788000", "133419.791000", "133419.794000", "133419.797000", "133419.800000", "133419.803000", "133419.806000", "133419.809000", "133419.811000", "133419.814000", "133419.817000", "133419.820000", "133419.823000", "133419.826000", "133419.829000", "133419.831000", "133419.834000", "133419.837000", "133419.840000", "133419.843000", "133419.846000", "133438.667000", "133438.670000", "133438.673000", "133438.676000", "133438.679000", "133438.682000", "133438.691000", "133438.694000", "133438.697000", "133438.700000", "133438.703000", "133438.706000", "133438.709000"],
