{
  "AcquisitionMatrixPE": 104,
  "AcquisitionNumber": 1,
  "AcquisitionTime": "13:59:56.877500",
  "BandwidthPerPixelPhaseEncode": 17.17,
  "BaseResolution": 104,
  "BodyPartExamined": "BRAIN",
  "CoilString": "HC1-7;NC1_2",
  "ConsistencyInfo": "N4_VE11C_LATEST_20160120",
  "ConversionSoftware": "dcm2niix",
  "ConversionSoftwareVersion": "v1.0.20190902",
  "DerivedVendorReportedEchoSpacing": 0.000560011,
  "DeviceSerialNumber": "167006",
  "DwellTime": 2.1e-06,
  "EchoTime": 0.037,
  "EchoTrainLength": 104,
  "EffectiveEchoSpacing": 0.000560011,
  "FlipAngle": 52,
  "ImageComments": "Unaliased_MB4_PE3_LB",
  "ImageOrientationPatientDICOM": [0.998467, -0.00360389, -0.0552394, -0.00853922, 0.975907, -0.218018],
  "ImageType": [
    "ORIGINAL",
    "PRIMARY",
    "M",
    "MB",
    "ND",
    "MOSAIC"
],
  "ImagingFrequency": 123.259,
  "InPlanePhaseEncodingDirectionDICOM": "COL",
  "InstitutionAddress": "Chemin_Queen-Mary_4565_Montreal_District_CA_H3W_1W5",
  "InstitutionName": "IUGM",
  "InstitutionalDepartmentName": "Department",
  "MRAcquisitionType": "2D",
  "MagneticFieldStrength": 3,
  "Manufacturer": "Siemens",
  "ManufacturersModelName": "Prisma_fit",
  "Modality": "MR",
  "MultibandAccelerationFactor": 4,
  "PartialFourier": 1,
  "PatientPosition": "HFS",
  "PercentPhaseFOV": 100,
  "PhaseEncodingDirection": "j",
  "PhaseEncodingSteps": 104,
  "PhaseResolution": 1,
  "PixelBandwidth": 2290,
  "ProcedureStepDescription": "video_friends",
  "ProtocolName": "func_task-friends-s03e09b",
  "PulseSequenceDetails": "%CustomerSeq%_cmrr_mbep2d_bold",
  "ReceiveCoilActiveElements": "HC1-7;NC1,2",
  "ReceiveCoilName": "HeadNeck_64",
  "ReconMatrixPE": 104,
  "RepetitionTime": 1.49,
  "SAR": 0.0285352,
  "ScanOptions": "FS",
  "ScanningSequence": "EP",
  "SequenceName": "epfid2d1_104",
  "SequenceVariant": "SK_SS",
  "SeriesDescription": "func_task-friends-s03e09b",
  "SeriesNumber": 15,
  "ShimSetting": [604, -7244, -8827, 612, -34, -238, 0, 43],
  "SliceThickness": 2,
  "SliceTiming": [0, 0.7825, 0.0975, 0.8825, 0.195, 0.98, 0.2925, 1.0775, 0.3925, 1.175, 0.49, 1.2725, 0.5875, 1.3725, 0.685, 0, 0.7825, 0.0975, 0.8825, 0.195, 0.98, 0.2925, 1.0775, 0.3925, 1.175, 0.49, 1.2725, 0.5875, 1.3725, 0.685, 0, 0.7825, 0.0975, 0.8825, 0.195, 0.98, 0.2925, 1.0775, 0.3925, 1.175, 0.49, 1.2725, 0.5875, 1.3725, 0.685, 0, 0.7825, 0.0975, 0.8825, 0.195, 0.98, 0.2925, 1.0775, 0.3925, 1.175, 0.49, 1.2725, 0.5875, 1.3725, 0.685],
  "SoftwareVersions": "syngo_MR_E11",
  "SpacingBetweenSlices": 2,
  "StationName": "MRC35049",
  "TaskName": "s03e09b",
  "TotalReadoutTime": 0.0576811,
  "TxRefAmp": 216.412,
  "WipMemBlock": "be50e2d8-2263-4769-85b3-a8a2ac9af871||Sequence: R016 ve11c/master r/e634e98; Dec 19 2017 11:00:25 by eja",
  "dcmmeta_affine": [
    [-1.9969332218170166, -0.017078448086977005, -0.10938852280378342, 103.15850830078125],
    [0.007207772694528103, 1.9518147706985474, -0.43631088733673096, -84.36622619628906],
    [-0.11047882586717606, 0.4360361099243164, 1.9487602710723877, -50.20126724243164],
    [0.0, 0.0, 0.0, 1.0]
],
  "dcmmeta_reorient_transform": [
    [0.0, -1.0, 0.0, 103.0],
    [1.0, 0.0, 0.0, 0.0],
    [0.0, 0.0, 1.0, 0.0],
    [0.0, 0.0, 0.0, 1.0]
],
  "dcmmeta_shape": [104, 104, 60, 493],
  "dcmmeta_slice_dim": 2,
  "dcmmeta_version": 0.6,
  "global": {
    "const": {
      "AcquisitionMatrix": [104, 0, 0, 104],
      "AngioFlag": "N",
      "BitsAllocated": 16,
      "BitsStored": 16,
      "BodyPartExamined": "BRAIN",
      "Columns": 832,
      "EchoNumbers": 1,
      "EchoTime": 37.0,
      "EchoTrainLength": 104,
      "FlipAngle": 52.0,
      "HighBit": 15,
      "ImageOrientationPatient": [0.99846663401283, -0.0036038864145, -0.0552394131559, -0.0085392240434, 0.97590737659969, -0.2180180587728],
      "ImagePositionPatient": [-822.06658127943, -824.50763317521, 193.64189221228],
      "ImageType": [
        "ORIGINAL",
        "PRIMARY",
        "M",
        "MB",
        "ND",
        "MOSAIC"
],
      "ImagedNucleus": "1H",
      "ImagingFrequency": 123.25905,
      "InPlanePhaseEncodingDirection": "COL",
      "MRAcquisitionType": "2D",
      "MagneticFieldStrength": 3.0,
      "Manufacturer": "SIEMENS",
      "ManufacturerModelName": "Prisma_fit",
      "Modality": "MR",
      "NumberOfAverages": 1.0,
      "NumberOfPhaseEncodingSteps": 104,
      "PercentPhaseFieldOfView": 100.0,
      "PercentSampling": 100.0,
      "PerformedProcedureStepStartTime": "125326.350000",
      "PhotometricInterpretation": "MONOCHROME2",
      "PixelBandwidth": 2290.0,
      "PixelRepresentation": 0,
      "PixelSpacing": [2.0, 2.0],
      "ProtocolName": "func_task-friends-s03e09b",
      "RepetitionTime": 1490.0,
      "Rows": 832,
      "SAR": 0.02853518543715,
      "SamplesPerPixel": 1,
      "ScanOptions": "FS",
      "ScanningSequence": "EP",
      "SequenceName": "epfid2d1_104",
      "SequenceVariant": [
        "SK",
        "SS"
],
      "SeriesDescription": "func_task-friends-s03e09b",
      "SeriesNumber": 15,
      "SeriesTime": "140119.811000",
      "SliceLocation": -36.152345461736,
      "SliceThickness": 2.0,
      "SmallestImagePixelValue": 0,
      "SoftwareVersions": "syngo MR E11",
      "SpacingBetweenSlices": 1.9999999144116,
      "SpecificCharacterSet": "ISO_IR 100",
      "StudyID": "2",
      "StudyTime": "125326.300000",
      "TransmitCoilName": "Body",
      "VariableFlipAngleFlag": "N",
      "WindowCenterWidthExplanation": "Algo1",
      "dBdt": 0.0},
    "slices": {}
  },
  "time": {
    "samples": {
      "AcquisitionNumber": [1, 2, 3, 4, 5, 6, 7, 8, 9, 10, 11, 12, 13, 14, 15, 16, 17, 18, 19, 20, 21, 22, 23, 24, 25, 26, 27, 28, 29, 30, 31, 32, 33, 34, 35, 36, 37, 38, 39, 40, 41, 42, 43, 44, 45, 46, 47, 48, 49, 50, 51, 52, 53, 54, 55, 56, 57, 58, 59, 60, 61, 62, 63, 64, 65, 66, 67, 68, 69, 70, 71, 72, 73, 74, 75, 76, 77, 78, 79, 80, 81, 82, 83, 84, 85, 86, 87, 88, 89, 90, 91, 92, 93, 94, 95, 96, 97, 98, 99, 100, 101, 102, 103, 104, 105, 106, 107, 108, 109, 110, 111, 112, 113, 114, 115, 116, 117, 118, 119, 120, 121, 122, 123, 124, 125, 126, 127, 128, 129, 130, 131, 132, 133, 134, 135, 136, 137, 138, 139, 140, 141, 142, 143, 144, 145, 146, 147, 148, 149, 150, 151, 152, 153, 154, 155, 156, 157, 158, 159, 160, 161, 162, 163, 164, 165, 166, 167, 168, 169, 170, 171, 172, 173, 174, 175, 176, 177, 178, 179, 180, 181, 182, 183, 184, 185, 186, 187, 188, 189, 190, 191, 192, 193, 194, 195, 196, 197, 198, 199, 200, 201, 202, 203, 204, 205, 206, 207, 208, 209, 210, 211, 212, 213, 214, 215, 216, 217, 218, 219, 220, 221, 222, 223, 224, 225, 226, 227, 228, 229, 230, 231, 232, 233, 234, 235, 236, 237, 238, 239, 240, 241, 242, 243, 244, 245, 246, 247, 248, 249, 250, 251, 252, 253, 254, 255, 256, 257, 258, 259, 260, 261, 262, 263, 264, 265, 266, 267, 268, 269, 270, 271, 272, 273, 274, 275, 276, 277, 278, 279, 280, 281, 282, 283, 284, 285, 286, 287, 288, 289, 290, 291, 292, 293, 294, 295, 296, 297, 298, 299, 300, 301, 302, 303, 304, 305, 306, 307, 308, 309, 310, 311, 312, 313, 314, 315, 316, 317, 318, 319, 320, 321, 322, 323, 324, 325, 326, 327, 328, 329, 330, 331, 332, 333, 334, 335, 336, 337, 338, 339, 340, 341, 342, 343, 344, 345, 346, 347, 348, 349, 350, 351, 352, 353, 354, 355, 356, 357, 358, 359, 360, 361, 362, 363, 364, 365, 366, 367, 368, 369, 370, 371, 372, 373, 374, 375, 376, 377, 378, 379, 380, 381, 382, 383, 384, 385, 386, 387, 388, 389, 390, 391, 392, 393, 394, 395, 396, 397, 398, 399, 400, 401, 402, 403, 404, 405, 406, 407, 408, 409, 410, 411, 412, 413, 414, 415, 416, 417, 418, 419, 420, 421, 422, 423, 424, 425, 426, 427, 428, 429, 430, 431, 432, 433, 434, 435, 436, 437, 438, 439, 440, 441, 442, 443, 444, 445, 446, 447, 448, 449, 450, 451, 452, 453, 454, 455, 456, 457, 458, 459, 460, 461, 462, 463, 464, 465, 466, 467, 468, 469, 470, 471, 472, 473, 474, 475, 476, 477, 478, 479, 480, 481, 482, 483, 484, 485, 486, 487, 488, 489, 490, 491, 492, 493],
      "AcquisitionTime": ["135956.877500", "135958.367500", "135959.857500", "140001.347500", "140002.837500", "140004.327500", "140005.817500", "140007.307500", "140008.797500", "140010.287500", "140011.777500", "140013.267500", "140014.757500", "140016.247500", "140017.737500", "140019.227500", "140020.717500", "140022.207500", "140023.697500", "140025.187500", "140026.677500", "140028.167500", "140029.657500", "140031.147500", "140032.637500", "140034.127500", "140035.617500", "140037.107500", "140038.597500", "140040.087500", "140041.577500", "140043.067500", "140044.557500", "140046.047500", "140047.537500", "140049.027500", "140050.517500", "140052.007500", "140053.497500", "140054.987500", "140056.477500", "140057.967500", "140059.457500", "140100.947500", "140102.437500", "140103.927500", "140105.417500", "140106.907500", "140108.397500", "140109.887500", "140111.377500", "140112.867500", "140114.357500", "140115.847500", "140117.337500", "140118.827500", "140120.317500", "140121.807500", "140123.297500", "140124.787500", "140126.277500", "140127.767500", "140129.257500", "140130.747500", "140132.237500", "140133.727500", "140135.217500", "140136.707500", "140138.197500", "140139.687500", "140141.177500", "140142.667500", "140144.157500", "140145.647500", "140147.137500", "140148.627500", "140150.117500", "140151.607500", "140153.097500", "140154.587500", "140156.077500", "140157.567500", "140159.057500", "140200.547500", "140202.037500", "140203.527500", "140205.017500", "140206.507500", "140207.997500", "140209.487500", "140210.977500", "140212.467500", "140213.957500", "140215.447500", "140216.937500", "140218.427500", "140219.917500", "140221.407500", "140222.897500", "140224.387500", "140225.877500", "140227.367500", "140228.857500", "140230.347500", "140231.837500", "140233.327500", "140234.817500", "140236.307500", "140237.797500", "140239.287500", "140240.777500", "140242.267500", "140243.757500", "140245.247500", "140246.737500", "140248.227500", "140249.717500", "140251.207500", "140252.697500", "140254.187500", "140255.677500", "140257.167500", "140258.657500", "140300.147500", "140301.637500", "140303.127500", "140304.617500", "140306.107500", "140307.597500", "140309.087500", "140310.577500", "140312.067500", "140313.557500", "140315.047500", "140316.537500", "140318.027500", "140319.517500", "140321.007500", "140322.497500", "140323.987500", "140325.477500", "140326.967500", "140328.457500", "140329.947500", "140331.437500", "140332.927500", "140334.417500", "140335.907500", "140337.397500", "140338.887500", "140340.377500", "140341.867500", "140343.357500", "140344.847500", "140346.337500", "140347.827500", "140349.317500", "140350.807500", "140352.297500", "140353.787500", "140355.277500", "140356.767500", "140358.257500", "140359.747500", "140401.237500", "140402.727500", "140404.217500", "140405.707500", "140407.197500", "140408.687500", "140410.177500", "140411.667500", "140413.157500", "140414.647500", "140416.137500", "140417.627500", "140419.117500", "140420.607500", "140422.097500", "140423.587500", "140425.077500", "140426.567500", "140428.057500", "140429.547500", "140431.037500", "140432.527500", "140434.017500", "140435.507500", "140436.997500", "140438.487500", "140439.977500", "140441.467500", "140442.957500", "140444.447500", "140445.937500", "140447.427500", "140448.917500", "140450.407500", "140451.897500", "140453.387500", "140454.877500", "140456.367500", "140457.857500", "140459.347500", "140500.837500", "140502.327500", "140503.817500", "140505.307500", "140506.797500", "140508.287500", "140509.777500", "140511.267500", "140512.757500", "140514.247500", "140515.737500", "140517.227500", "140518.717500", "140520.207500", "140521.697500", "140523.187500", "140524.677500", "140526.167500", "140527.657500", "140529.147500", "140530.637500", "140532.127500", "140533.617500", "140535.107500", "140536.597500", "140538.087500", "140539.577500", "140541.067500", "140542.557500", "140544.047500", "140545.537500", "140547.027500", "140548.517500", "140550.007500", "140551.497500", "140552.987500", "140554.477500", "140555.967500", "140557.457500", "140558.947500", "140600.437500", "140601.927500", "140603.417500", "140604.907500", "140606.397500", "140607.887500", "140609.377500", "140610.867500", "140612.357500", "140613.847500", "140615.337500", "140616.827500", "140618.317500", "140619.807500", "140621.297500", "140622.787500", "140624.277500", "140625.767500", "140627.257500", "140628.747500", "140630.237500", "140631.727500", "140633.217500", "140634.707500", "140636.197500", "140637.687500", "140639.177500", "140640.667500", "140642.157500", "140643.647500", "140645.137500", "140646.627500", "140648.117500", "140649.607500", "140651.097500", "140652.587500", "140654.077500", "140655.567500", "140657.057500", "140658.547500", "140700.037500", "140701.527500", "140703.017500", "140704.507500", "140705.997500", "140707.487500", "140708.977500", "140710.467500", "140711.957500", "140713.447500", "140714.937500", "140716.427500", "140717.917500", "140719.407500", "140720.897500", "140722.387500", "140723.877500", "140725.367500", "140726.857500", "140728.347500", "140729.837500", "140731.327500", "140732.817500", "140734.307500", "140735.797500", "140737.287500", "140738.777500", "140740.267500", "140741.757500", "140743.247500", "140744.737500", "140746.227500", "140747.717500", "140749.207500", "140750.697500", "140752.187500", "140753.677500", "140755.167500", "140756.657500", "140758.147500", "140759.637500", "140801.127500", "140802.617500", "140804.107500", "140805.597500", "140807.087500", "140808.577500", "140810.067500", "140811.557500", "140813.047500", "140814.537500", "140816.027500", "140817.517500", "140819.007500", "140820.497500", "140821.987500", "140823.477500", "140824.967500", "140826.457500", "140827.947500", "140829.437500", "140830.927500", "140832.417500", "140833.907500", "140835.397500", "140836.887500", "140838.377500", "140839.867500", "140841.357500", "140842.847500", "140844.337500", "140845.827500", "140847.317500", "140848.807500", "140850.297500", "140851.787500", "140853.277500", "140854.767500", "140856.257500", "140857.747500", "140859.237500", "140900.727500", "140902.217500", "140903.707500", "140905.197500", "140906.687500", "140908.177500", "140909.667500", "140911.157500", "140912.647500", "140914.137500", "140915.627500", "140917.117500", "140918.607500", "140920.097500", "140921.587500", "140923.077500", "140924.567500", "140926.057500", "140927.547500", "140929.037500", "140930.527500", "140932.017500", "140933.507500", "140934.997500", "140936.487500", "140937.977500", "140939.467500", "140940.957500", "140942.447500", "140943.937500", "140945.427500", "140946.917500", "140948.407500", "140949.897500", "140951.387500", "140952.877500", "140954.367500", "140955.857500", "140957.347500", "140958.837500", "141000.327500", "141001.817500", "141003.307500", "141004.797500", "141006.287500", "141007.777500", "141009.267500", "141010.757500", "141012.247500", "141013.737500", "141015.227500", "141016.717500", "141018.207500", "141019.697500", "141021.187500", "141022.677500", "141024.167500", "141025.657500", "141027.147500", "141028.637500", "141030.127500", "141031.617500", "141033.107500", "141034.597500", "141036.087500", "141037.577500", "141039.067500", "141040.557500", "141042.047500", "141043.537500", "141045.027500", "141046.517500", "141048.007500", "141049.497500", "141050.987500", "141052.477500", "141053.967500", "141055.457500", "141056.947500", "141058.437500", "141059.927500", "141101.417500", "141102.907500", "141104.397500", "141105.887500", "141107.377500", "141108.867500", "141110.357500", "141111.847500", "141113.337500", "141114.827500", "141116.317500", "141117.807500", "141119.297500", "141120.787500", "141122.277500", "141123.767500", "141125.257500", "141126.747500", "141128.237500", "141129.727500", "141131.217500", "141132.707500", "141134.197500", "141135.687500", "141137.177500", "141138.667500", "141140.157500", "141141.647500", "141143.137500", "141144.627500", "141146.117500", "141147.607500", "141149.097500", "141150.587500", "141152.077500", "141153.567500", "141155.057500", "141156.547500", "141158.037500", "141159.527500", "141201.017500", "141202.507500", "141203.997500", "141205.487500", "141206.977500", "141208.467500", "141209.957500"],
      "ContentTime": ["140119.813000", "140119.817000", "140119.823000", "140119.826000", "140119.829000", "140119.832000", "140119.835000", "140119.838000", "140119.840000", "140119.843000", "140119.846000", "140119.849000", "140119.852000", "140119.855000", "140119.858000", "140119.861000", "140119.863000", "140119.866000", "140119.869000", "140119.872000", "140119.876000", "140119.879000", "140119.882000", "140119.885000", "140119.888000", "140119.891000", "140119.894000", "140119.897000", "140119.899000", "140139.771000", "140139.774000", "140139.777000", "140139.784000", "140139.786000", "140139.789000", "140139.792000", "140139.795000", "140139.798000", "140139.801000", "140139.804000", "140139.807000", "140139.809000", "140139.813000", "140139.815000", "140139.818000", "140139.821000", "140139.824000", "140139.827000", "140139.830000", "140159.771000", "140159.774000", "140159.777000", "140159.780000", "140159.782000", "140159.785000", "140159.788000", "140159.791000", "140159.794000", "140159.797000", "140159.800000", "140159.802000", "140159.805000", "140159.808000", "140159.811000", "140159.814000", "140159.817000", "140159.820000", "140159.823000", "140159.825000", "140219.771000", "140219.774000", "140219.777000", "140219.780000", "140219.782000", "140219.785000", "140219.788000", "140219.791000", "140219.794000", "140219.797000", "140219.800000", "140219.810000", "140219.813000", "140219.816000", "140219.818000", "140219.821000", "140219.824000", "140219.827000", "140219.830000", "140219.833000", "140239.771000", "140239.774000", "140239.777000", "140239.780000", "140239.782000", "140239.785000", "140239.788000", "140239.791000", "140239.794000", "140239.797000", "140239.800000", "140239.803000", "140239.806000", "140239.809000", "140239.811000", "140239.814000", "140239.817000", "140239.820000", "140239.823000", "140239.832000", "140319.772000", "140319.775000", "140319.778000", "140319.781000", "140319.784000", "140319.786000", "140319.789000", "140319.792000", "140319.799000", "140319.802000", "140319.805000", "140319.808000", "140319.811000", "140319.813000", "140319.816000", "140319.819000", "140319.822000", "140319.825000", "140319.828000", "140319.831000", "140319.843000", "140319.846000", "140319.849000", "140319.852000", "140319.855000", "140319.858000", "140319.860000", "140359.771000", "140359.774000", "140359.777000", "140359.780000", "140359.783000", "140359.785000", "140359.788000", "140359.791000", "140359.794000", "140359.797000", "140359.800000", "140359.803000", "140359.806000", "140359.809000", "140359.812000", "140359.814000", "140359.818000", "140359.821000", "140359.824000", "140359.827000", "140359.830000", "140359.833000", "140359.835000", "140359.838000", "140359.841000", "140359.844000", "140439.771000", "140439.774000", "140439.777000", "140439.780000", "140439.783000", "140439.786000", "140439.788000", "140439.791000", "140439.794000", "140439.797000", "140439.800000", "140439.803000", "140439.806000", "140439.809000", "140439.812000", "140439.814000", "140439.817000", "140439.820000", "140439.823000", "140439.826000", "140439.829000", "140439.832000", "140439.834000", "140439.837000", "140439.840000", "140439.843000", "140439.846000", "140459.771000", "140459.774000", "140459.777000", "140459.780000", "140459.783000", "140459.786000", "140459.789000", "140459.791000", "140459.794000", "140459.803000", "140459.806000", "140459.809000", "140459.812000", "140459.815000", "140539.772000", "140539.775000", "140539.778000", "140539.781000", "140539.785000", "140539.788000", "140539.791000", "140539.794000", "140539.797000", "140539.800000", "140539.803000", "140539.806000", "140539.809000", "140539.812000", "140539.815000", "140539.817000", "140539.820000", "140539.823000", "140539.826000", "140539.829000", "140539.832000", "140539.835000", "140539.838000", "140539.841000", "140539.843000", "140539.846000", "140619.771000", "140619.774000", "140619.777000", "140619.780000", "140619.783000", "140619.786000", "140619.788000", "140619.792000", "140619.794000", "140619.797000", "140619.800000", "140619.803000", "140619.806000", "140619.809000", "140619.811000", "140619.814000", "140619.817000", "140619.820000", "140619.823000", "140619.826000", "140619.829000", "140619.832000", "140619.835000", "140619.838000", "140619.841000", "140619.843000", "140619.846000", "140659.771000", "140659.774000", "140659.777000", "140659.780000", "140659.783000", "140659.785000", "140659.789000", "140659.791000", "140659.794000", "140659.797000", "140659.800000", "140659.803000", "140659.806000", "140659.809000", "140659.812000", "140659.815000", "140659.817000", "140659.820000", "140659.823000", "140659.826000", "140659.829000", "140659.832000", "140659.835000", "140659.837000", "140659.840000", "140659.843000", "140659.846000", "140739.772000", "140739.775000", "140739.778000", "140739.781000", "140739.784000", "140739.787000", "140739.789000", "140739.792000", "140739.795000", "140739.798000", "140739.801000", "140739.804000", "140739.807000", "140739.810000", "140739.813000", "140739.815000", "140739.818000", "140739.821000", "140739.824000", "140739.827000", "140739.830000", "140739.833000", "140739.836000", "140739.839000", "140739.841000", "140739.844000", "140739.847000", "140819.771000", "140819.774000", "140819.777000", "140819.780000", "140819.783000", "140819.786000", "140819.788000", "140819.791000", "140819.794000", "140819.797000", "140819.800000", "140819.803000", "140819.806000", "140819.809000", "140819.811000", "140819.814000", "140819.829000", "140819.831000", "140819.834000", "140819.837000", "140819.840000", "140819.843000", "140819.846000", "140819.849000", "140819.852000", "140819.855000", "140819.858000", "140859.771000", "140859.774000", "140859.777000", "140859.780000", "140859.783000", "140859.786000", "140859.788000", "140859.791000", "140859.794000", "140859.797000", "140859.800000", "140859.803000", "140859.806000", "140859.809000", "140859.811000", "140859.815000", "140859.817000", "140859.820000", "140859.823000", "140859.826000", "140859.829000", "140859.832000", "140859.834000", "140859.837000", "140859.840000", "140859.843000", "140859.846000", "140939.771000", "140939.774000", "140939.777000", "140939.780000", "140939.783000", "140939.785000", "140939.789000", "140939.791000", "140939.794000", "140939.797000", "140939.800000", "140939.803000", "140939.806000", "140939.808000", "140939.812000", "140939.814000", "140939.817000", "140939.820000", "140939.823000", "140939.826000", "140939.829000", "140939.832000", "140939.835000", "140939.837000", "140939.840000", "140939.843000", "140939.846000", "141019.771000", "141019.774000", "141019.777000", "141019.780000", "141019.783000", "141019.786000", "141019.788000", "141019.791000", "141019.806000", "141019.809000", "141019.812000", "141019.815000", "141019.818000", "141019.821000", "141019.824000", "141019.827000", "141019.830000", "141019.833000", "141019.835000", "141019.838000", "141019.841000", "141019.844000", "141019.847000", "141019.858000", "141019.860000", "141019.863000", "141059.771000", "141059.774000", "141059.777000", "141059.780000", "141059.783000", "141059.786000", "141059.788000", "141059.791000", "141059.794000", "141059.797000", "141059.800000", "141059.803000", "141059.806000", "141059.809000", "141059.812000", "141059.815000", "141059.817000", "141059.820000", "141059.823000", "141059.826000", "141059.829000", "141059.832000", "141059.835000", "141059.838000", "141059.840000", "141059.843000", "141059.846000", "141139.771000", "141139.774000", "141139.777000", "141139.780000", "141139.783000", "141139.786000", "141139.789000", "141139.792000", "141139.794000", "141139.797000", "141139.800000", "141139.803000", "141139.806000", "141139.809000", "141139.812000", "141139.815000", "141139.818000", "141139.820000", "141139.823000", "141139.826000", "141139.829000", "141139.832000", "141139.835000", "141139.837000", "141139.840000", "141139.843000", "141139.846000", "141211.693000", "141211.696000", "141211.699000", "141211.702000", "141211.704000", "141211.707000", "141211.710000", "141211.713000", "141211.716000", "141211.719000", "141211.722000", "141211.725000", "141211.728000", "141211.731000", "141211.734000", "141211.738000", "141211.740000", "141211.743000", "141211.746000", "141211.749000", "141211.752000", "141211.755000"],
