{
  "AcquisitionMatrixPE": 104,
  "AcquisitionNumber": 1,
  "AcquisitionTime": "18:06:1.942500",
  "BandwidthPerPixelPhaseEncode": 17.17,
  "BaseResolution": 104,
  "BodyPartExamined": "BRAIN",
  "CoilString": "HC1-7;NC1_2",
  "ConsistencyInfo": "N4_VE11C_LATEST_20160120",
  "ConversionSoftware": "dcm2niix",
  "ConversionSoftwareVersion": "v1.0.20190902",
  "DerivedVendorReportedEchoSpacing": 0.000560011,
  "DeviceSerialNumber": "167006",
  "DwellTime": 2.1e-06,
  "EchoTime": 0.037,
  "EchoTrainLength": 104,
  "EffectiveEchoSpacing": 0.000560011,
  "FlipAngle": 52,
  "ImageComments": "Unaliased_MB4_PE3_LB",
  "ImageOrientationPatientDICOM": [0.999528, 0.0276843, -0.0132948, -0.0298399, 0.977837, -0.207229],
  "ImageType": [
    "ORIGINAL",
    "PRIMARY",
    "M",
    "MB",
    "ND",
    "MOSAIC"
],
  "ImagingFrequency": 123.259,
  "InPlanePhaseEncodingDirectionDICOM": "COL",
  "InstitutionAddress": "Chemin_Queen-Mary_4565_Montreal_District_CA_H3W_1W5",
  "InstitutionName": "IUGM",
  "InstitutionalDepartmentName": "Department",
  "MRAcquisitionType": "2D",
  "MagneticFieldStrength": 3,
  "Manufacturer": "Siemens",
  "ManufacturersModelName": "Prisma_fit",
  "Modality": "MR",
  "MultibandAccelerationFactor": 4,
  "PartialFourier": 1,
  "PatientPosition": "HFS",
  "PercentPhaseFOV": 100,
  "PhaseEncodingDirection": "j",
  "PhaseEncodingSteps": 104,
  "PhaseResolution": 1,
  "PixelBandwidth": 2290,
  "ProcedureStepDescription": "video_friends",
  "ProtocolName": "func_task-friends-s05e13b",
  "PulseSequenceDetails": "%CustomerSeq%_cmrr_mbep2d_bold",
  "ReceiveCoilActiveElements": "HC1-7;NC1,2",
  "ReceiveCoilName": "HeadNeck_64",
  "ReconMatrixPE": 104,
  "RepetitionTime": 1.49,
  "SAR": 0.0295769,
  "ScanOptions": "FS",
  "ScanningSequence": "EP",
  "SequenceName": "epfid2d1_104",
  "SequenceVariant": "SK_SS",
  "SeriesDescription": "func_task-friends-s05e13b",
  "SeriesNumber": 11,
  "ShimSetting": [631, -7238, -8765, 731, 16, -85, 161, -14],
  "SliceThickness": 2,
  "SliceTiming": [0, 0.7825, 0.0975, 0.88, 0.195, 0.98, 0.2925, 1.0775, 0.39, 1.175, 0.49, 1.2725, 0.5875, 1.37, 0.685, 0, 0.7825, 0.0975, 0.88, 0.195, 0.98, 0.2925, 1.0775, 0.39, 1.175, 0.49, 1.2725, 0.5875, 1.37, 0.685, 0, 0.7825, 0.0975, 0.88, 0.195, 0.98, 0.2925, 1.0775, 0.39, 1.175, 0.49, 1.2725, 0.5875, 1.37, 0.685, 0, 0.7825, 0.0975, 0.88, 0.195, 0.98, 0.2925, 1.0775, 0.39, 1.175, 0.49, 1.2725, 0.5875, 1.37, 0.685],
  "SoftwareVersions": "syngo_MR_E11",
  "SpacingBetweenSlices": 2,
  "StationName": "MRC35049",
  "TaskName": "s05e13b",
  "TotalReadoutTime": 0.0576811,
  "TxRefAmp": 207.693,
  "WipMemBlock": "61de80c8-bef4-4c4f-b9af-5c17530bf613||Sequence: R016 ve11c/master r/e634e98; Dec 19 2017 11:00:25 by eja",
  "dcmmeta_affine": [
    [-1.9990565776824951, -0.0596797876060009, -0.014526312239468098, 108.40567016601562],
    [-0.05536862090229988, 1.9556745290756226, -0.41505590081214905, -84.09317016601562],
    [-0.026589592918753624, 0.4144579768180847, 1.956404209136963, -45.3172492980957],
    [0.0, 0.0, 0.0, 1.0]
],
  "dcmmeta_reorient_transform": [
    [0.0, -1.0, 0.0, 103.0],
    [1.0, 0.0, 0.0, 0.0],
    [0.0, 0.0, 1.0, 0.0],
    [0.0, 0.0, 0.0, 1.0]
],
  "dcmmeta_shape": [104, 104, 60, 494],
  "dcmmeta_slice_dim": 2,
  "dcmmeta_version": 0.6,
  "global": {
    "const": {
      "AcquisitionMatrix": [104, 0, 0, 104],
      "AngioFlag": "N",
      "BitsAllocated": 16,
      "BitsStored": 16,
      "BodyPartExamined": "BRAIN",
      "Columns": 832,
      "EchoNumbers": 1,
      "EchoTime": 37.0,
      "EchoTrainLength": 104,
      "FlipAngle": 52.0,
      "HighBit": 15,
      "ImageOrientationPatient": [0.99952830242554, 0.02768431022196, -0.013294796646, -0.029839892984, 0.97783727080066, -0.2072289859547],
      "ImagePositionPatient": [-808.19181591572, -849.36102045904, 157.91323371806],
      "ImageType": [
        "ORIGINAL",
        "PRIMARY",
        "M",
        "MB",
        "ND",
        "MOSAIC"
],
      "ImagedNucleus": "1H",
      "ImagingFrequency": 123.25898,
      "InPlanePhaseEncodingDirection": "COL",
      "MRAcquisitionType": "2D",
      "MagneticFieldStrength": 3.0,
      "Manufacturer": "SIEMENS",
      "ManufacturerModelName": "Prisma_fit",
      "Modality": "MR",
      "NumberOfAverages": 1.0,
      "NumberOfPhaseEncodingSteps": 104,
      "PercentPhaseFieldOfView": 100.0,
      "PercentSampling": 100.0,
      "PerformedProcedureStepStartTime": "173434.172000",
      "PhotometricInterpretation": "MONOCHROME2",
      "PixelBandwidth": 2290.0,
      "PixelRepresentation": 0,
      "PixelSpacing": [2.0, 2.0],
      "ProtocolName": "func_task-friends-s05e13b",
      "RepetitionTime": 1490.0,
      "Rows": 832,
      "SAR": 0.02957691352754,
      "SamplesPerPixel": 1,
      "ScanOptions": "FS",
      "ScanningSequence": "EP",
      "SequenceName": "epfid2d1_104",
      "SequenceVariant": [
        "SK",
        "SS"
],
      "SeriesDescription": "func_task-friends-s05e13b",
      "SeriesNumber": 11,
      "SeriesTime": "180728.798000",
      "SliceLocation": -27.665115645502,
      "SliceThickness": 2.0,
      "SmallestImagePixelValue": 0,
      "SoftwareVersions": "syngo MR E11",
      "SpacingBetweenSlices": 1.9999999698929,
      "SpecificCharacterSet": "ISO_IR 100",
      "StudyID": "1",
      "StudyTime": "173434.102000",
      "TransmitCoilName": "Body",
      "VariableFlipAngleFlag": "N",
      "WindowCenterWidthExplanation": "Algo1",
      "dBdt": 0.0},
    "slices": {}
  },
  "time": {
    "samples": {
      "AcquisitionNumber": [1, 2, 3, 4, 5, 6, 7, 8, 9, 10, 11, 12, 13, 14, 15, 16, 17, 18, 19, 20, 21, 22, 23, 24, 25, 26, 27, 28, 29, 30, 31, 32, 33, 34, 35, 36, 37, 38, 39, 40, 41, 42, 43, 44, 45, 46, 47, 48, 49, 50, 51, 52, 53, 54, 55, 56, 57, 58, 59, 60, 61, 62, 63, 64, 65, 66, 67, 68, 69, 70, 71, 72, 73, 74, 75, 76, 77, 78, 79, 80, 81, 82, 83, 84, 85, 86, 87, 88, 89, 90, 91, 92, 93, 94, 95, 96, 97, 98, 99, 100, 101, 102, 103, 104, 105, 106, 107, 108, 109, 110, 111, 112, 113, 114, 115, 116, 117, 118, 119, 120, 121, 122, 123, 124, 125, 126, 127, 128, 129, 130, 131, 132, 133, 134, 135, 136, 137, 138, 139, 140, 141, 142, 143, 144, 145, 146, 147, 148, 149, 150, 151, 152, 153, 154, 155, 156, 157, 158, 159, 160, 161, 162, 163, 164, 165, 166, 167, 168, 169, 170, 171, 172, 173, 174, 175, 176, 177, 178, 179, 180, 181, 182, 183, 184, 185, 186, 187, 188, 189, 190, 191, 192, 193, 194, 195, 196, 197, 198, 199, 200, 201, 202, 203, 204, 205, 206, 207, 208, 209, 210, 211, 212, 213, 214, 215, 216, 217, 218, 219, 220, 221, 222, 223, 224, 225, 226, 227, 228, 229, 230, 231, 232, 233, 234, 235, 236, 237, 238, 239, 240, 241, 242, 243, 244, 245, 246, 247, 248, 249, 250, 251, 252, 253, 254, 255, 256, 257, 258, 259, 260, 261, 262, 263, 264, 265, 266, 267, 268, 269, 270, 271, 272, 273, 274, 275, 276, 277, 278, 279, 280, 281, 282, 283, 284, 285, 286, 287, 288, 289, 290, 291, 292, 293, 294, 295, 296, 297, 298, 299, 300, 301, 302, 303, 304, 305, 306, 307, 308, 309, 310, 311, 312, 313, 314, 315, 316, 317, 318, 319, 320, 321, 322, 323, 324, 325, 326, 327, 328, 329, 330, 331, 332, 333, 334, 335, 336, 337, 338, 339, 340, 341, 342, 343, 344, 345, 346, 347, 348, 349, 350, 351, 352, 353, 354, 355, 356, 357, 358, 359, 360, 361, 362, 363, 364, 365, 366, 367, 368, 369, 370, 371, 372, 373, 374, 375, 376, 377, 378, 379, 380, 381, 382, 383, 384, 385, 386, 387, 388, 389, 390, 391, 392, 393, 394, 395, 396, 397, 398, 399, 400, 401, 402, 403, 404, 405, 406, 407, 408, 409, 410, 411, 412, 413, 414, 415, 416, 417, 418, 419, 420, 421, 422, 423, 424, 425, 426, 427, 428, 429, 430, 431, 432, 433, 434, 435, 436, 437, 438, 439, 440, 441, 442, 443, 444, 445, 446, 447, 448, 449, 450, 451, 452, 453, 454, 455, 456, 457, 458, 459, 460, 461, 462, 463, 464, 465, 466, 467, 468, 469, 470, 471, 472, 473, 474, 475, 476, 477, 478, 479, 480, 481, 482, 483, 484, 485, 486, 487, 488, 489, 490, 491, 492, 493, 494],
      "AcquisitionTime": ["180601.942500", "180603.432500", "180604.922500", "180606.412500", "180607.902500", "180609.392500", "180610.882500", "180612.372500", "180613.862500", "180615.352500", "180616.842500", "180618.332500", "180619.822500", "180621.312500", "180622.802500", "180624.292500", "180625.782500", "180627.272500", "180628.762500", "180630.252500", "180631.742500", "180633.232500", "180634.722500", "180636.212500", "180637.702500", "180639.192500", "180640.682500", "180642.172500", "180643.662500", "180645.152500", "180646.642500", "180648.132500", "180649.622500", "180651.112500", "180652.602500", "180654.092500", "180655.582500", "180657.072500", "180658.562500", "180700.052500", "180701.542500", "180703.032500", "180704.522500", "180706.012500", "180707.502500", "180708.992500", "180710.482500", "180711.972500", "180713.462500", "180714.952500", "180716.442500", "180717.932500", "180719.422500", "180720.912500", "180722.402500", "180723.892500", "180725.382500", "180726.872500", "180728.362500", "180729.852500", "180731.342500", "180732.832500", "180734.322500", "180735.812500", "180737.302500", "180738.792500", "180740.282500", "180741.772500", "180743.262500", "180744.752500", "180746.242500", "180747.732500", "180749.222500", "180750.712500", "180752.202500", "180753.692500", "180755.182500", "180756.672500", "180758.162500", "180759.652500", "180801.142500", "180802.632500", "180804.122500", "180805.612500", "180807.102500", "180808.592500", "180810.082500", "180811.572500", "180813.062500", "180814.552500", "180816.042500", "180817.532500", "180819.022500", "180820.512500", "180822.002500", "180823.492500", "180824.982500", "180826.472500", "180827.962500", "180829.452500", "180830.942500", "180832.432500", "180833.922500", "180835.412500", "180836.902500", "180838.392500", "180839.882500", "180841.372500", "180842.862500", "180844.352500", "180845.842500", "180847.332500", "180848.822500", "180850.312500", "180851.802500", "180853.292500", "180854.782500", "180856.272500", "180857.762500", "180859.252500", "180900.742500", "180902.232500", "180903.722500", "180905.212500", "180906.702500", "180908.192500", "180909.682500", "180911.172500", "180912.662500", "180914.152500", "180915.642500", "180917.132500", "180918.622500", "180920.112500", "180921.602500", "180923.092500", "180924.582500", "180926.072500", "180927.562500", "180929.052500", "180930.542500", "180932.032500", "180933.522500", "180935.012500", "180936.502500", "180937.992500", "180939.482500", "180940.972500", "180942.462500", "180943.952500", "180945.442500", "180946.932500", "180948.422500", "180949.912500", "180951.402500", "180952.892500", "180954.382500", "180955.872500", "180957.362500", "180958.852500", "181000.342500", "181001.832500", "181003.322500", "181004.812500", "181006.302500", "181007.792500", "181009.282500", "181010.772500", "181012.262500", "181013.752500", "181015.242500", "181016.732500", "181018.222500", "181019.712500", "181021.202500", "181022.692500", "181024.182500", "181025.672500", "181027.162500", "181028.652500", "181030.142500", "181031.632500", "181033.122500", "181034.612500", "181036.102500", "181037.592500", "181039.082500", "181040.572500", "181042.062500", "181043.552500", "181045.042500", "181046.532500", "181048.022500", "181049.512500", "181051.002500", "181052.492500", "181053.982500", "181055.472500", "181056.962500", "181058.452500", "181059.942500", "181101.432500", "181102.922500", "181104.412500", "181105.902500", "181107.392500", "181108.882500", "181110.372500", "181111.862500", "181113.352500", "181114.842500", "181116.332500", "181117.822500", "181119.312500", "181120.802500", "181122.292500", "181123.782500", "181125.272500", "181126.762500", "181128.252500", "181129.742500", "181131.232500", "181132.722500", "181134.212500", "181135.702500", "181137.192500", "181138.682500", "181140.172500", "181141.662500", "181143.152500", "181144.642500", "181146.132500", "181147.622500", "181149.112500", "181150.602500", "181152.092500", "181153.582500", "181155.072500", "181156.562500", "181158.052500", "181159.542500", "181201.032500", "181202.522500", "181204.012500", "181205.502500", "181206.992500", "181208.482500", "181209.972500", "181211.462500", "181212.952500", "181214.442500", "181215.932500", "181217.422500", "181218.912500", "181220.402500", "181221.892500", "181223.382500", "181224.872500", "181226.362500", "181227.852500", "181229.342500", "181230.832500", "181232.322500", "181233.812500", "181235.302500", "181236.792500", "181238.282500", "181239.772500", "181241.262500", "181242.752500", "181244.242500", "181245.732500", "181247.222500", "181248.712500", "181250.202500", "181251.692500", "181253.182500", "181254.672500", "181256.162500", "181257.652500", "181259.142500", "181300.632500", "181302.122500", "181303.612500", "181305.102500", "181306.592500", "181308.082500", "181309.572500", "181311.062500", "181312.552500", "181314.042500", "181315.532500", "181317.022500", "181318.512500", "181320.002500", "181321.492500", "181322.982500", "181324.472500", "181325.962500", "181327.452500", "181328.942500", "181330.432500", "181331.922500", "181333.412500", "181334.902500", "181336.392500", "181337.882500", "181339.372500", "181340.862500", "181342.352500", "181343.842500", "181345.332500", "181346.822500", "181348.312500", "181349.802500", "181351.292500", "181352.782500", "181354.272500", "181355.762500", "181357.252500", "181358.742500", "181400.232500", "181401.722500", "181403.212500", "181404.702500", "181406.192500", "181407.682500", "181409.172500", "181410.662500", "181412.152500", "181413.642500", "181415.132500", "181416.622500", "181418.112500", "181419.602500", "181421.092500", "181422.582500", "181424.072500", "181425.562500", "181427.052500", "181428.542500", "181430.032500", "181431.522500", "181433.012500", "181434.502500", "181435.992500", "181437.482500", "181438.972500", "181440.462500", "181441.952500", "181443.442500", "181444.932500", "181446.422500", "181447.912500", "181449.402500", "181450.892500", "181452.382500", "181453.872500", "181455.362500", "181456.852500", "181458.342500", "181459.832500", "181501.322500", "181502.812500", "181504.302500", "181505.792500", "181507.282500", "181508.772500", "181510.262500", "181511.752500", "181513.242500", "181514.732500", "181516.222500", "181517.712500", "181519.202500", "181520.692500", "181522.182500", "181523.672500", "181525.162500", "181526.652500", "181528.142500", "181529.632500", "181531.122500", "181532.612500", "181534.102500", "181535.592500", "181537.082500", "181538.572500", "181540.062500", "181541.552500", "181543.042500", "181544.532500", "181546.022500", "181547.512500", "181549.002500", "181550.492500", "181551.982500", "181553.472500", "181554.962500", "181556.452500", "181557.942500", "181559.432500", "181600.922500", "181602.412500", "181603.902500", "181605.392500", "181606.882500", "181608.372500", "181609.862500", "181611.352500", "181612.842500", "181614.332500", "181615.822500", "181617.312500", "181618.802500", "181620.292500", "181621.782500", "181623.272500", "181624.762500", "181626.252500", "181627.742500", "181629.232500", "181630.722500", "181632.212500", "181633.702500", "181635.192500", "181636.682500", "181638.172500", "181639.662500", "181641.152500", "181642.642500", "181644.132500", "181645.622500", "181647.112500", "181648.602500", "181650.092500", "181651.582500", "181653.072500", "181654.562500", "181656.052500", "181657.542500", "181659.032500", "181700.522500", "181702.012500", "181703.502500", "181704.992500", "181706.482500", "181707.972500", "181709.462500", "181710.952500", "181712.442500", "181713.932500", "181715.422500", "181716.912500", "181718.402500", "181719.892500", "181721.382500", "181722.872500", "181724.362500", "181725.852500", "181727.342500", "181728.832500", "181730.322500", "181731.812500", "181733.302500", "181734.792500", "181736.282500", "181737.772500", "181739.262500", "181740.752500", "181742.242500", "181743.732500", "181745.222500", "181746.712500", "181748.202500", "181749.692500", "181751.182500", "181752.672500", "181754.162500", "181755.652500", "181757.142500", "181758.632500", "181800.122500", "181801.612500", "181803.102500", "181804.592500", "181806.082500", "181807.572500", "181809.062500", "181810.552500", "181812.042500", "181813.532500", "181815.022500", "181816.512500"],
      "ContentTime": ["180728.801000", "180728.805000", "180728.807000", "180728.810000", "180728.813000", "180728.816000", "180728.819000", "180728.822000", "180728.833000", "180728.836000", "180728.839000", "180728.842000", "180728.845000", "180728.847000", "180728.850000", "180728.853000", "180728.856000", "180728.859000", "180728.862000", "180728.864000", "180728.867000", "180728.870000", "180728.880000", "180728.883000", "180728.886000", "180728.889000", "180728.891000", "180728.894000", "180728.897000", "180728.900000", "180728.903000", "180728.905000", "180728.908000", "180748.778000", "180748.781000", "180748.784000", "180748.787000", "180748.789000", "180748.792000", "180748.795000", "180748.798000", "180748.801000", "180748.804000", "180748.806000", "180748.809000", "180748.812000", "180748.815000", "180748.818000", "180748.820000", "180748.823000", "180748.826000", "180748.829000", "180748.832000", "180748.837000", "180808.779000", "180808.782000", "180808.785000", "180808.787000", "180808.790000", "180808.793000", "180808.796000", "180808.799000", "180808.802000", "180808.805000", "180808.808000", "180808.811000", "180808.814000", "180808.817000", "180808.819000", "180808.822000", "180808.825000", "180808.828000", "180808.830000", "180808.833000", "180828.778000", "180828.781000", "180828.784000", "180828.786000", "180828.789000", "180828.801000", "180828.804000", "180828.807000", "180828.810000", "180828.812000", "180828.815000", "180828.818000", "180828.821000", "180828.824000", "180828.826000", "180828.829000", "180828.832000", "180828.835000", "180828.838000", "180828.840000", "180908.778000", "180908.781000", "180908.784000", "180908.787000", "180908.789000", "180908.792000", "180908.795000", "180908.798000", "180908.801000", "180908.803000", "180908.806000", "180908.809000", "180908.812000", "180908.815000", "180908.818000", "180908.820000", "180908.823000", "180908.826000", "180908.829000", "180908.832000", "180908.834000", "180908.837000", "180908.840000", "180908.843000", "180908.846000", "180908.849000", "180908.852000", "180908.854000", "180908.859000", "180908.861000", "180908.864000", "180948.778000", "180948.781000", "180948.784000", "180948.787000", "180948.790000", "180948.793000", "180948.796000", "180948.799000", "180948.801000", "180948.804000", "180948.807000", "180948.810000", "180948.813000", "180948.816000", "180948.818000", "180948.821000", "180948.824000", "180948.827000", "180948.830000", "180948.833000", "180948.836000", "180948.838000", "180948.841000", "180948.844000", "180948.847000", "180948.850000", "180948.853000", "181028.779000", "181028.782000", "181028.785000", "181028.788000", "181028.791000", "181028.793000", "181028.796000", "181028.799000", "181028.802000", "181028.805000", "181028.808000", "181028.811000", "181028.814000", "181028.816000", "181028.819000", "181028.822000", "181028.825000", "181028.828000", "181028.831000", "181028.833000", "181028.836000", "181028.839000", "181028.842000", "181028.845000", "181028.848000", "181028.851000", "181108.778000", "181108.781000", "181108.784000", "181108.787000", "181108.790000", "181108.793000", "181108.796000", "181108.798000", "181108.801000", "181108.804000", "181108.807000", "181108.810000", "181108.813000", "181108.816000", "181108.819000", "181108.822000", "181108.825000", "181108.827000", "181108.830000", "181108.833000", "181108.836000", "181108.839000", "181108.842000", "181108.845000", "181108.848000", "181108.850000", "181108.853000", "181148.778000", "181148.781000", "181148.784000", "181148.787000", "181148.790000", "181148.792000", "181148.795000", "181148.798000", "181148.801000", "181148.804000", "181148.807000", "181148.810000", "181148.813000", "181148.816000", "181148.819000", "181148.822000", "181148.824000", "181148.827000", "181148.830000", "181148.833000", "181148.836000", "181148.839000", "181148.842000", "181148.844000", "181148.847000", "181148.850000", "181148.853000", "181228.778000", "181228.781000", "181228.784000", "181228.787000", "181228.790000", "181228.793000", "181228.796000", "181228.798000", "181228.801000", "181228.804000", "181228.807000", "181228.810000", "181228.813000", "181228.816000", "181228.819000", "181228.821000", "181228.824000", "181228.827000", "181228.830000", "181228.833000", "181228.836000", "181228.838000", "181228.842000", "181228.844000", "181228.847000", "181228.850000", "181228.853000", "181308.778000", "181308.781000", "181308.784000", "181308.787000", "181308.790000", "181308.793000", "181308.796000", "181308.799000", "181308.801000", "181308.804000", "181308.807000", "181308.810000", "181308.813000", "181308.816000", "181308.819000", "181308.822000", "181308.825000", "181308.827000", "181308.830000", "181308.833000", "181308.836000", "181308.839000", "181308.857000", "181308.860000", "181308.862000", "181308.865000", "181308.868000", "181348.778000", "181348.783000", "181348.786000", "181348.789000", "181348.792000", "181348.795000", "181348.798000", "181348.800000", "181348.803000", "181348.806000", "181348.809000", "181348.812000", "181348.815000", "181348.818000", "181348.821000", "181348.823000", "181348.826000", "181348.829000", "181348.832000", "181348.835000", "181348.837000", "181348.840000", "181348.843000", "181348.846000", "181348.849000", "181348.852000", "181348.855000", "181428.778000", "181428.781000", "181428.784000", "181428.787000", "181428.790000", "181428.793000", "181428.796000", "181428.799000", "181428.802000", "181428.805000", "181428.808000", "181428.811000", "181428.813000", "181428.816000", "181428.819000", "181428.822000", "181428.825000", "181428.836000", "181428.839000", "181428.842000", "181428.845000", "181428.848000", "181428.851000", "181428.854000", "181428.856000", "181428.859000", "181508.779000", "181508.782000", "181508.785000", "181508.788000", "181508.791000", "181508.794000", "181508.797000", "181508.799000", "181508.802000", "181508.805000", "181508.808000", "181508.811000", "181508.814000", "181508.817000", "181508.820000", "181508.823000", "181508.825000", "181508.829000", "181508.831000", "181508.834000", "181508.837000", "181508.840000", "181508.843000", "181508.846000", "181508.849000", "181508.852000", "181508.854000", "181548.778000", "181548.781000", "181548.784000", "181548.787000", "181548.790000", "181548.793000", "181548.795000", "181548.798000", "181548.801000", "181548.804000", "181548.807000", "181548.810000", "181548.813000", "181548.816000", "181548.819000", "181548.822000", "181548.825000", "181548.827000", "181548.830000", "181548.833000", "181548.836000", "181548.839000", "181548.842000", "181548.845000", "181548.848000", "181548.850000", "181548.853000", "181628.778000", "181628.781000", "181628.784000", "181628.787000", "181628.790000", "181628.793000", "181628.796000", "181628.799000", "181628.801000", "181628.804000", "181628.807000", "181628.810000", "181628.813000", "181628.816000", "181628.819000", "181628.822000", "181628.824000", "181628.827000", "181628.830000", "181628.833000", "181628.836000", "181628.839000", "181628.842000", "181628.845000", "181628.847000", "181628.850000", "181628.853000", "181708.778000", "181708.781000", "181708.784000", "181708.787000", "181708.790000", "181708.793000", "181708.796000", "181708.798000", "181708.801000", "181708.804000", "181708.807000", "181708.810000", "181708.813000", "181708.816000", "181708.819000", "181708.822000", "181708.825000", "181708.827000", "181708.830000", "181708.833000", "181708.836000", "181708.839000", "181708.842000", "181708.845000", "181708.848000", "181708.851000", "181708.853000", "181748.778000", "181748.795000", "181748.814000", "181748.817000", "181748.820000", "181748.823000", "181748.826000", "181748.828000", "181748.831000", "181748.853000", "181748.856000", "181748.858000", "181748.861000", "181748.871000", "181748.874000", "181748.877000", "181748.880000", "181748.883000", "181748.886000", "181748.888000", "181748.891000", "181748.894000", "181748.897000", "181748.900000", "181748.903000", "181748.906000", "181748.909000", "181808.778000", "181808.794000", "181808.796000", "181808.799000", "181808.802000", "181808.805000", "181808.808000", "181808.811000", "181808.814000", "181808.817000", "181808.819000", "181808.822000", "181808.826000", "181818.378000", "181818.381000", "181818.384000", "181818.387000", "181818.390000", "181818.393000", "181818.396000"],
