{
  "AcquisitionMatrixPE": 104,
  "AcquisitionNumber": 1,
  "AcquisitionTime": "15:37:46.370000",
  "BandwidthPerPixelPhaseEncode": 17.17,
  "BaseResolution": 104,
  "BodyPartExamined": "BRAIN",
  "CoilString": "HC1-7;NC1_2",
  "ConsistencyInfo": "N4_VE11C_LATEST_20160120",
  "ConversionSoftware": "dcm2niix",
  "ConversionSoftwareVersion": "v1.0.20190902",
  "DerivedVendorReportedEchoSpacing": 0.000560011,
  "DeviceSerialNumber": "167006",
  "DwellTime": 2.1e-06,
  "EchoTime": 0.037,
  "EchoTrainLength": 104,
  "EffectiveEchoSpacing": 0.000560011,
  "FlipAngle": 52,
  "ImageComments": "Unaliased_MB4_PE3_LB",
  "ImageOrientationPatientDICOM": [0.999755, -0.0183131, -0.0124132, 0.0134365, 0.948355, -0.316928],
  "ImageType": [
    "ORIGINAL",
    "PRIMARY",
    "M",
    "MB",
    "ND",
    "MOSAIC"
],
  "ImagingFrequency": 123.259,
  "InPlanePhaseEncodingDirectionDICOM": "COL",
  "InstitutionAddress": "Chemin_Queen-Mary_4565_Montreal_District_CA_H3W_1W5",
  "InstitutionName": "IUGM",
  "InstitutionalDepartmentName": "Department",
  "MRAcquisitionType": "2D",
  "MagneticFieldStrength": 3,
  "Manufacturer": "Siemens",
  "ManufacturersModelName": "Prisma_fit",
  "Modality": "MR",
  "MultibandAccelerationFactor": 4,
  "PartialFourier": 1,
  "PatientPosition": "HFS",
  "PercentPhaseFOV": 100,
  "PhaseEncodingDirection": "j",
  "PhaseEncodingSteps": 104,
  "PhaseResolution": 1,
  "PixelBandwidth": 2290,
  "ProcedureStepDescription": "video_friends",
  "ProtocolName": "func_task-friends-s05e09a",
  "PulseSequenceDetails": "%CustomerSeq%_cmrr_mbep2d_bold",
  "ReceiveCoilActiveElements": "HC1-7;NC1,2",
  "ReceiveCoilName": "HeadNeck_64",
  "ReconMatrixPE": 104,
  "RepetitionTime": 1.49,
  "SAR": 0.0124294,
  "ScanOptions": "FS",
  "ScanningSequence": "EP",
  "SequenceName": "epfid2d1_104",
  "SequenceVariant": "SK_SS",
  "SeriesDescription": "func_task-friends-s05e09a",
  "SeriesNumber": 9,
  "ShimSetting": [635, -7257, -8867, 659, 34, -235, 17, -8],
  "SliceThickness": 2,
  "SliceTiming": [0, 0.785, 0.0975, 0.8825, 0.195, 0.98, 0.295, 1.0775, 0.3925, 1.175, 0.49, 1.275, 0.5875, 1.3725, 0.685, 0, 0.785, 0.0975, 0.8825, 0.195, 0.98, 0.295, 1.0775, 0.3925, 1.175, 0.49, 1.275, 0.5875, 1.3725, 0.685, 0, 0.785, 0.0975, 0.8825, 0.195, 0.98, 0.295, 1.0775, 0.3925, 1.175, 0.49, 1.275, 0.5875, 1.3725, 0.685, 0, 0.785, 0.0975, 0.8825, 0.195, 0.98, 0.295, 1.0775, 0.3925, 1.175, 0.49, 1.275, 0.5875, 1.3725, 0.685],
  "SoftwareVersions": "syngo_MR_E11",
  "SpacingBetweenSlices": 2,
  "StationName": "MRC35049",
  "TaskName": "s05e09a",
  "TotalReadoutTime": 0.0576811,
  "TxRefAmp": 218.788,
  "WipMemBlock": "5d2fa138-de46-4a29-8f6c-be645de7e3bd||Sequence: R016 ve11c/master r/e634e98; Dec 19 2017 11:00:25 by eja",
  "dcmmeta_affine": [
    [-1.9995105266571045, 0.02687307447195053, -0.0351521372795105, 101.64888763427734],
    [0.03662626072764397, 1.8967090845108032, -0.6333666443824768, -74.91712951660156],
    [-0.02482643537223339, 0.633855402469635, 1.896736979484558, -74.32210540771484],
    [0.0, 0.0, 0.0, 1.0]
],
  "dcmmeta_reorient_transform": [
    [0.0, -1.0, 0.0, 103.0],
    [1.0, 0.0, 0.0, 0.0],
    [0.0, 0.0, 1.0, 0.0],
    [0.0, 0.0, 0.0, 1.0]
],
  "dcmmeta_shape": [104, 104, 60, 456],
  "dcmmeta_slice_dim": 2,
  "dcmmeta_version": 0.6,
  "global": {
    "const": {
      "AcquisitionMatrix": [104, 0, 0, 104],
      "AngioFlag": "N",
      "BitsAllocated": 16,
      "BitsStored": 16,
      "BodyPartExamined": "BRAIN",
      "Columns": 832,
      "EchoNumbers": 1,
      "EchoTime": 37.0,
      "EchoTrainLength": 104,
      "FlipAngle": 52.0,
      "HighBit": 15,
      "ImageOrientationPatient": [0.99975524067968, -0.0183131308713, -0.0124132176009, 0.01343653683753, 0.9483545222515, -0.316927688287],
      "ImagePositionPatient": [-842.02042819802, -797.51403258378, 230.72518045167],
      "ImageType": [
        "ORIGINAL",
        "PRIMARY",
        "M",
        "MB",
        "ND",
        "MOSAIC"
],
      "ImagedNucleus": "1H",
      "ImagingFrequency": 123.25898,
      "InPlanePhaseEncodingDirection": "COL",
      "MRAcquisitionType": "2D",
      "MagneticFieldStrength": 3.0,
      "Manufacturer": "SIEMENS",
      "ManufacturerModelName": "Prisma_fit",
      "Modality": "MR",
      "NumberOfAverages": 1.0,
      "NumberOfPhaseEncodingSteps": 104,
      "PercentPhaseFieldOfView": 100.0,
      "PercentSampling": 100.0,
      "PerformedProcedureStepStartTime": "150937.429000",
      "PhotometricInterpretation": "MONOCHROME2",
      "PixelBandwidth": 2290.0,
      "PixelRepresentation": 0,
      "PixelSpacing": [2.0, 2.0],
      "ProtocolName": "func_task-friends-s05e09a",
      "RepetitionTime": 1490.0,
      "Rows": 832,
      "SAR": 0.01242941707487,
      "SamplesPerPixel": 1,
      "ScanOptions": "FS",
      "ScanningSequence": "EP",
      "SequenceName": "epfid2d1_104",
      "SequenceVariant": [
        "SK",
        "SS"
],
      "SeriesDescription": "func_task-friends-s05e09a",
      "SeriesNumber": 9,
      "SeriesTime": "153911.347000",
      "SliceLocation": -48.54632017483,
      "SliceThickness": 2.0,
      "SmallestImagePixelValue": 0,
      "SoftwareVersions": "syngo MR E11",
      "SpacingBetweenSlices": 1.9999999833404,
      "SpecificCharacterSet": "ISO_IR 100",
      "StudyID": "1",
      "StudyTime": "150937.351000",
      "TransmitCoilName": "Body",
      "VariableFlipAngleFlag": "N",
      "WindowCenterWidthExplanation": "Algo1",
      "dBdt": 0.0},
    "slices": {}
  },
  "time": {
    "samples": {
      "AcquisitionNumber": [1, 2, 3, 4, 5, 6, 7, 8, 9, 10, 11, 12, 13, 14, 15, 16, 17, 18, 19, 20, 21, 22, 23, 24, 25, 26, 27, 28, 29, 30, 31, 32, 33, 34, 35, 36, 37, 38, 39, 40, 41, 42, 43, 44, 45, 46, 47, 48, 49, 50, 51, 52, 53, 54, 55, 56, 57, 58, 59, 60, 61, 62, 63, 64, 65, 66, 67, 68, 69, 70, 71, 72, 73, 74, 75, 76, 77, 78, 79, 80, 81, 82, 83, 84, 85, 86, 87, 88, 89, 90, 91, 92, 93, 94, 95, 96, 97, 98, 99, 100, 101, 102, 103, 104, 105, 106, 107, 108, 109, 110, 111, 112, 113, 114, 115, 116, 117, 118, 119, 120, 121, 122, 123, 124, 125, 126, 127, 128, 129, 130, 131, 132, 133, 134, 135, 136, 137, 138, 139, 140, 141, 142, 143, 144, 145, 146, 147, 148, 149, 150, 151, 152, 153, 154, 155, 156, 157, 158, 159, 160, 161, 162, 163, 164, 165, 166, 167, 168, 169, 170, 171, 172, 173, 174, 175, 176, 177, 178, 179, 180, 181, 182, 183, 184, 185, 186, 187, 188, 189, 190, 191, 192, 193, 194, 195, 196, 197, 198, 199, 200, 201, 202, 203, 204, 205, 206, 207, 208, 209, 210, 211, 212, 213, 214, 215, 216, 217, 218, 219, 220, 221, 222, 223, 224, 225, 226, 227, 228, 229, 230, 231, 232, 233, 234, 235, 236, 237, 238, 239, 240, 241, 242, 243, 244, 245, 246, 247, 248, 249, 250, 251, 252, 253, 254, 255, 256, 257, 258, 259, 260, 261, 262, 263, 264, 265, 266, 267, 268, 269, 270, 271, 272, 273, 274, 275, 276, 277, 278, 279, 280, 281, 282, 283, 284, 285, 286, 287, 288, 289, 290, 291, 292, 293, 294, 295, 296, 297, 298, 299, 300, 301, 302, 303, 304, 305, 306, 307, 308, 309, 310, 311, 312, 313, 314, 315, 316, 317, 318, 319, 320, 321, 322, 323, 324, 325, 326, 327, 328, 329, 330, 331, 332, 333, 334, 335, 336, 337, 338, 339, 340, 341, 342, 343, 344, 345, 346, 347, 348, 349, 350, 351, 352, 353, 354, 355, 356, 357, 358, 359, 360, 361, 362, 363, 364, 365, 366, 367, 368, 369, 370, 371, 372, 373, 374, 375, 376, 377, 378, 379, 380, 381, 382, 383, 384, 385, 386, 387, 388, 389, 390, 391, 392, 393, 394, 395, 396, 397, 398, 399, 400, 401, 402, 403, 404, 405, 406, 407, 408, 409, 410, 411, 412, 413, 414, 415, 416, 417, 418, 419, 420, 421, 422, 423, 424, 425, 426, 427, 428, 429, 430, 431, 432, 433, 434, 435, 436, 437, 438, 439, 440, 441, 442, 443, 444, 445, 446, 447, 448, 449, 450, 451, 452, 453, 454, 455, 456],
      "AcquisitionTime": ["153746.370000", "153747.860000", "153749.350000", "153750.840000", "153752.330000", "153753.820000", "153755.310000", "153756.800000", "153758.290000", "153759.780000", "153801.270000", "153802.760000", "153804.250000", "153805.740000", "153807.230000", "153808.720000", "153810.210000", "153811.700000", "153813.190000", "153814.680000", "153816.170000", "153817.660000", "153819.150000", "153820.640000", "153822.130000", "153823.620000", "153825.110000", "153826.600000", "153828.090000", "153829.580000", "153831.070000", "153832.560000", "153834.050000", "153835.540000", "153837.030000", "153838.520000", "153840.010000", "153841.500000", "153842.990000", "153844.480000", "153845.970000", "153847.460000", "153848.950000", "153850.440000", "153851.930000", "153853.420000", "153854.910000", "153856.400000", "153857.890000", "153859.380000", "153900.870000", "153902.360000", "153903.850000", "153905.340000", "153906.830000", "153908.320000", "153909.810000", "153911.300000", "153912.790000", "153914.280000", "153915.770000", "153917.260000", "153918.750000", "153920.240000", "153921.730000", "153923.220000", "153924.710000", "153926.200000", "153927.690000", "153929.180000", "153930.670000", "153932.160000", "153933.650000", "153935.140000", "153936.630000", "153938.120000", "153939.610000", "153941.100000", "153942.590000", "153944.080000", "153945.570000", "153947.060000", "153948.550000", "153950.040000", "153951.530000", "153953.020000", "153954.510000", "153956.000000", "153957.490000", "153958.980000", "154000.470000", "154001.960000", "154003.450000", "154004.940000", "154006.430000", "154007.920000", "154009.410000", "154010.900000", "154012.390000", "154013.880000", "154015.370000", "154016.860000", "154018.350000", "154019.840000", "154021.330000", "154022.820000", "154024.310000", "154025.800000", "154027.290000", "154028.780000", "154030.270000", "154031.760000", "154033.250000", "154034.740000", "154036.230000", "154037.720000", "154039.210000", "154040.700000", "154042.190000", "154043.680000", "154045.170000", "154046.660000", "154048.150000", "154049.640000", "154051.130000", "154052.620000", "154054.110000", "154055.600000", "154057.090000", "154058.580000", "154100.070000", "154101.560000", "154103.050000", "154104.540000", "154106.030000", "154107.520000", "154109.010000", "154110.500000", "154111.990000", "154113.480000", "154114.970000", "154116.460000", "154117.950000", "154119.440000", "154120.930000", "154122.420000", "154123.910000", "154125.400000", "154126.890000", "154128.380000", "154129.870000", "154131.360000", "154132.850000", "154134.340000", "154135.830000", "154137.320000", "154138.810000", "154140.300000", "154141.790000", "154143.280000", "154144.770000", "154146.260000", "154147.750000", "154149.240000", "154150.730000", "154152.220000", "154153.710000", "154155.200000", "154156.690000", "154158.180000", "154159.670000", "154201.160000", "154202.650000", "154204.140000", "154205.630000", "154207.120000", "154208.610000", "154210.100000", "154211.590000", "154213.080000", "154214.570000", "154216.060000", "154217.550000", "154219.040000", "154220.530000", "154222.020000", "154223.510000", "154225.000000", "154226.490000", "154227.980000", "154229.470000", "154230.960000", "154232.450000", "154233.940000", "154235.430000", "154236.920000", "154238.410000", "154239.900000", "154241.390000", "154242.880000", "154244.370000", "154245.860000", "154247.350000", "154248.840000", "154250.330000", "154251.820000", "154253.310000", "154254.800000", "154256.290000", "154257.780000", "154259.270000", "154300.760000", "154302.250000", "154303.740000", "154305.230000", "154306.720000", "154308.210000", "154309.700000", "154311.190000", "154312.680000", "154314.170000", "154315.660000", "154317.150000", "154318.640000", "154320.130000", "154321.620000", "154323.110000", "154324.600000", "154326.090000", "154327.580000", "154329.070000", "154330.560000", "154332.050000", "154333.540000", "154335.030000", "154336.520000", "154338.010000", "154339.500000", "154340.990000", "154342.480000", "154343.970000", "154345.460000", "154346.950000", "154348.440000", "154349.930000", "154351.420000", "154352.910000", "154354.400000", "154355.890000", "154357.380000", "154358.870000", "154400.360000", "154401.850000", "154403.340000", "154404.830000", "154406.320000", "154407.810000", "154409.300000", "154410.790000", "154412.280000", "154413.770000", "154415.260000", "154416.750000", "154418.240000", "154419.730000", "154421.220000", "154422.710000", "154424.200000", "154425.690000", "154427.180000", "154428.670000", "154430.160000", "154431.650000", "154433.140000", "154434.630000", "154436.120000", "154437.610000", "154439.100000", "154440.590000", "154442.080000", "154443.570000", "154445.060000", "154446.550000", "154448.040000", "154449.530000", "154451.020000", "154452.510000", "154454.000000", "154455.490000", "154456.980000", "154458.470000", "154459.960000", "154501.450000", "154502.940000", "154504.430000", "154505.920000", "154507.410000", "154508.900000", "154510.390000", "154511.880000", "154513.370000", "154514.860000", "154516.350000", "154517.840000", "154519.330000", "154520.820000", "154522.310000", "154523.800000", "154525.290000", "154526.780000", "154528.270000", "154529.760000", "154531.250000", "154532.740000", "154534.230000", "154535.720000", "154537.210000", "154538.700000", "154540.190000", "154541.680000", "154543.170000", "154544.660000", "154546.150000", "154547.640000", "154549.130000", "154550.620000", "154552.110000", "154553.600000", "154555.090000", "154556.580000", "154558.070000", "154559.560000", "154601.050000", "154602.540000", "154604.030000", "154605.520000", "154607.010000", "154608.500000", "154609.990000", "154611.480000", "154612.970000", "154614.460000", "154615.950000", "154617.440000", "154618.930000", "154620.420000", "154621.910000", "154623.400000", "154624.890000", "154626.380000", "154627.870000", "154629.360000", "154630.850000", "154632.340000", "154633.830000", "154635.320000", "154636.810000", "154638.300000", "154639.790000", "154641.280000", "154642.770000", "154644.260000", "154645.750000", "154647.240000", "154648.730000", "154650.220000", "154651.710000", "154653.200000", "154654.690000", "154656.180000", "154657.670000", "154659.160000", "154700.650000", "154702.140000", "154703.630000", "154705.120000", "154706.610000", "154708.100000", "154709.590000", "154711.080000", "154712.570000", "154714.060000", "154715.550000", "154717.040000", "154718.530000", "154720.020000", "154721.510000", "154723.000000", "154724.490000", "154725.980000", "154727.470000", "154728.960000", "154730.450000", "154731.940000", "154733.430000", "154734.920000", "154736.410000", "154737.900000", "154739.390000", "154740.880000", "154742.370000", "154743.860000", "154745.350000", "154746.840000", "154748.330000", "154749.820000", "154751.310000", "154752.800000", "154754.290000", "154755.780000", "154757.270000", "154758.760000", "154800.250000", "154801.740000", "154803.230000", "154804.720000", "154806.210000", "154807.700000", "154809.190000", "154810.680000", "154812.170000", "154813.660000", "154815.150000", "154816.640000", "154818.130000", "154819.620000", "154821.110000", "154822.600000", "154824.090000", "154825.580000", "154827.070000", "154828.560000", "154830.050000", "154831.540000", "154833.030000", "154834.520000", "154836.010000", "154837.500000", "154838.990000", "154840.480000", "154841.970000", "154843.460000", "154844.950000", "154846.440000", "154847.930000", "154849.420000", "154850.910000", "154852.400000", "154853.890000", "154855.380000", "154856.870000", "154858.360000", "154859.850000", "154901.340000", "154902.830000", "154904.320000"],
      "ContentTime": ["153911.350000", "153911.359000", "153911.362000", "153911.365000", "153911.368000", "153911.371000", "153911.374000", "153911.377000", "153911.380000", "153911.382000", "153911.385000", "153911.388000", "153911.391000", "153911.394000", "153911.397000", "153911.400000", "153911.403000", "153911.405000", "153911.408000", "153911.411000", "153911.414000", "153911.417000", "153911.420000", "153911.423000", "153911.425000", "153911.428000", "153911.431000", "153911.434000", "153911.437000", "153911.442000", "153931.310000", "153931.313000", "153931.316000", "153931.319000", "153931.322000", "153931.324000", "153931.327000", "153931.330000", "153931.333000", "153931.336000", "153931.338000", "153931.341000", "153931.344000", "153931.347000", "153931.350000", "153931.353000", "153931.356000", "153931.358000", "153931.361000", "153931.364000", "153951.310000", "153951.313000", "153951.316000", "153951.319000", "153951.322000", "153951.324000", "153951.327000", "153951.330000", "153951.333000", "153951.336000", "153951.343000", "153951.346000", "153951.349000", "153951.352000", "153951.355000", "153951.357000", "153951.360000", "153951.363000", "153951.366000", "153951.369000", "154011.311000", "154011.314000", "154011.317000", "154011.320000", "154011.322000", "154011.325000", "154011.328000", "154011.343000", "154011.346000", "154011.348000", "154011.351000", "154011.354000", "154011.357000", "154011.360000", "154011.363000", "154011.366000", "154011.368000", "154011.376000", "154011.379000", "154011.382000", "154011.384000", "154051.311000", "154051.314000", "154051.317000", "154051.320000", "154051.323000", "154051.326000", "154051.328000", "154051.331000", "154051.334000", "154051.337000", "154051.340000", "154051.343000", "154051.346000", "154051.349000", "154051.352000", "154051.354000", "154051.357000", "154051.360000", "154051.363000", "154051.366000", "154051.369000", "154051.372000", "154051.374000", "154051.377000", "154051.380000", "154051.383000", "154051.386000", "154051.389000", "154051.392000", "154051.395000", "154051.397000", "154051.400000", "154131.310000", "154131.313000", "154131.316000", "154131.319000", "154131.322000", "154131.325000", "154131.327000", "154131.330000", "154131.333000", "154131.336000", "154131.339000", "154131.342000", "154131.345000", "154131.348000", "154131.350000", "154131.353000", "154131.356000", "154131.359000", "154131.362000", "154131.365000", "154131.368000", "154131.371000", "154131.373000", "154131.376000", "154131.379000", "154131.382000", "154131.385000", "154211.311000", "154211.314000", "154211.317000", "154211.320000", "154211.322000", "154211.325000", "154211.328000", "154211.331000", "154211.334000", "154211.337000", "154211.340000", "154211.343000", "154211.345000", "154211.348000", "154211.351000", "154211.354000", "154211.357000", "154211.360000", "154211.363000", "154211.366000", "154211.368000", "154211.371000", "154211.374000", "154211.377000", "154211.380000", "154211.383000", "154211.386000", "154251.311000", "154251.314000", "154251.317000", "154251.320000", "154251.323000", "154251.326000", "154251.329000", "154251.332000", "154251.334000", "154251.337000", "154251.340000", "154251.343000", "154251.346000", "154251.348000", "154251.351000", "154251.354000", "154251.357000", "154251.360000", "154251.363000", "154251.366000", "154251.369000", "154251.371000", "154251.374000", "154251.377000", "154251.380000", "154251.383000", "154251.386000", "154331.311000", "154331.314000", "154331.317000", "154331.320000", "154331.323000", "154331.326000", "154331.329000", "154331.331000", "154331.334000", "154331.337000", "154331.347000", "154331.350000", "154331.353000", "154331.356000", "154331.359000", "154331.361000", "154331.364000", "154331.367000", "154331.370000", "154331.373000", "154331.376000", "154331.379000", "154331.382000", "154331.384000", "154331.387000", "154331.390000", "154411.310000", "154411.313000", "154411.316000", "154411.319000", "154411.322000", "154411.325000", "154411.328000", "154411.331000", "154411.333000", "154411.336000", "154411.339000", "154411.349000", "154411.351000", "154411.354000", "154411.357000", "154411.360000", "154411.363000", "154411.366000", "154411.369000", "154411.372000", "154411.375000", "154411.377000", "154411.380000", "154411.383000", "154411.386000", "154411.389000", "154411.392000", "154451.311000", "154451.314000", "154451.317000", "154451.320000", "154451.323000", "154451.326000", "154451.329000", "154451.331000", "154451.334000", "154451.337000", "154451.340000", "154451.343000", "154451.346000", "154451.349000", "154451.352000", "154451.354000", "154451.357000", "154451.378000", "154451.381000", "154451.384000", "154451.387000", "154451.390000", "154451.393000", "154451.396000", "154451.398000", "154451.401000", "154451.404000", "154531.311000", "154531.314000", "154531.317000", "154531.320000", "154531.323000", "154531.326000", "154531.328000", "154531.331000", "154531.334000", "154531.337000", "154531.340000", "154531.343000", "154531.345000", "154531.348000", "154531.351000", "154531.354000", "154531.357000", "154531.360000", "154531.363000", "154531.365000", "154531.368000", "154531.371000", "154531.374000", "154531.377000", "154531.380000", "154531.382000", "154531.385000", "154611.310000", "154611.313000", "154611.316000", "154611.319000", "154611.321000", "154611.324000", "154611.327000", "154611.330000", "154611.333000", "154611.336000", "154611.339000", "154611.341000", "154611.344000", "154611.347000", "154611.350000", "154611.353000", "154611.356000", "154611.358000", "154611.361000", "154611.364000", "154611.367000", "154611.370000", "154611.373000", "154611.375000", "154611.378000", "154611.381000", "154611.384000", "154651.310000", "154651.313000", "154651.316000", "154651.319000", "154651.322000", "154651.324000", "154651.327000", "154651.330000", "154651.333000", "154651.336000", "154651.339000", "154651.341000", "154651.344000", "154651.347000", "154651.350000", "154651.353000", "154651.356000", "154651.359000", "154651.361000", "154651.364000", "154651.367000", "154651.370000", "154651.373000", "154651.376000", "154651.379000", "154651.381000", "154651.384000", "154731.311000", "154731.314000", "154731.317000", "154731.320000", "154731.323000", "154731.325000", "154731.328000", "154731.331000", "154731.334000", "154731.337000", "154731.340000", "154731.343000", "154731.346000", "154731.349000", "154731.352000", "154731.354000", "154731.357000", "154731.360000", "154731.363000", "154731.366000", "154731.368000", "154731.371000", "154731.374000", "154731.377000", "154731.380000", "154731.383000", "154811.311000", "154811.314000", "154811.317000", "154811.320000", "154811.322000", "154811.325000", "154811.328000", "154811.331000", "154811.334000", "154811.337000", "154811.340000", "154811.343000", "154811.345000", "154811.348000", "154811.351000", "154811.354000", "154811.357000", "154811.360000", "154811.362000", "154811.365000", "154811.368000", "154811.371000", "154811.374000", "154811.377000", "154811.379000", "154811.382000", "154811.385000", "154851.310000", "154851.313000", "154851.316000", "154851.319000", "154851.322000", "154851.324000", "154851.327000", "154851.330000", "154851.333000", "154851.336000", "154851.339000", "154851.342000", "154851.344000", "154851.347000", "154851.350000", "154851.353000", "154851.356000", "154851.359000", "154851.362000", "154851.364000", "154851.367000", "154851.370000", "154851.373000", "154851.376000", "154851.379000", "154851.381000", "154851.398000", "154906.832000", "154906.835000", "154906.838000", "154906.841000", "154906.844000", "154906.862000", "154906.865000", "154906.868000", "154906.871000", "154906.874000", "154906.877000"],
