{
  "AcquisitionMatrixPE": 104,
  "AcquisitionNumber": 1,
  "AcquisitionTime": "16:14:53.227500",
  "BandwidthPerPixelPhaseEncode": 17.17,
  "BaseResolution": 104,
  "BodyPartExamined": "BRAIN",
  "CoilString": "HC1-7;NC1_2",
  "ConsistencyInfo": "N4_VE11C_LATEST_20160120",
  "ConversionSoftware": "dcm2niix",
  "ConversionSoftwareVersion": "v1.0.20190902",
  "DerivedVendorReportedEchoSpacing": 0.000560011,
  "DeviceSerialNumber": "167006",
  "DwellTime": 2.1e-06,
  "EchoTime": 0.037,
  "EchoTrainLength": 104,
  "EffectiveEchoSpacing": 0.000560011,
  "FlipAngle": 52,
  "ImageComments": "Unaliased_MB4_PE3_LB",
  "ImageOrientationPatientDICOM": [0.999755, -0.0183131, -0.0124132, 0.0134365, 0.948355, -0.316928],
  "ImageType": [
    "ORIGINAL",
    "PRIMARY",
    "M",
    "MB",
    "ND",
    "MOSAIC"
],
  "ImagingFrequency": 123.259,
  "InPlanePhaseEncodingDirectionDICOM": "COL",
  "InstitutionAddress": "Chemin_Queen-Mary_4565_Montreal_District_CA_H3W_1W5",
  "InstitutionName": "IUGM",
  "InstitutionalDepartmentName": "Department",
  "MRAcquisitionType": "2D",
  "MagneticFieldStrength": 3,
  "Manufacturer": "Siemens",
  "ManufacturersModelName": "Prisma_fit",
  "Modality": "MR",
  "MultibandAccelerationFactor": 4,
  "PartialFourier": 1,
  "PatientPosition": "HFS",
  "PercentPhaseFOV": 100,
  "PhaseEncodingDirection": "j",
  "PhaseEncodingSteps": 104,
  "PhaseResolution": 1,
  "PixelBandwidth": 2290,
  "ProcedureStepDescription": "video_friends",
  "ProtocolName": "func_task-friends-s05e10b",
  "PulseSequenceDetails": "%CustomerSeq%_cmrr_mbep2d_bold",
  "ReceiveCoilActiveElements": "HC1-7;NC1,2",
  "ReceiveCoilName": "HeadNeck_64",
  "ReconMatrixPE": 104,
  "RepetitionTime": 1.49,
  "SAR": 0.0124325,
  "ScanOptions": "FS",
  "ScanningSequence": "EP",
  "SequenceName": "epfid2d1_104",
  "SequenceVariant": "SK_SS",
  "SeriesDescription": "func_task-friends-s05e10b",
  "SeriesNumber": 15,
  "ShimSetting": [635, -7257, -8867, 659, 34, -235, 17, -8],
  "SliceThickness": 2,
  "SliceTiming": [0, 0.785, 0.0975, 0.8825, 0.1975, 0.98, 0.295, 1.0775, 0.3925, 1.1775, 0.49, 1.275, 0.5875, 1.3725, 0.6875, 0, 0.785, 0.0975, 0.8825, 0.1975, 0.98, 0.295, 1.0775, 0.3925, 1.1775, 0.49, 1.275, 0.5875, 1.3725, 0.6875, 0, 0.785, 0.0975, 0.8825, 0.1975, 0.98, 0.295, 1.0775, 0.3925, 1.1775, 0.49, 1.275, 0.5875, 1.3725, 0.6875, 0, 0.785, 0.0975, 0.8825, 0.1975, 0.98, 0.295, 1.0775, 0.3925, 1.1775, 0.49, 1.275, 0.5875, 1.3725, 0.6875],
  "SoftwareVersions": "syngo_MR_E11",
  "SpacingBetweenSlices": 2,
  "StationName": "MRC35049",
  "TaskName": "s05e10b",
  "TotalReadoutTime": 0.0576811,
  "TxRefAmp": 218.788,
  "WipMemBlock": "fab80fcb-d680-4045-af3a-c9c53ed8d1a6||Sequence: R016 ve11c/master r/e634e98; Dec 19 2017 11:00:25 by eja",
  "dcmmeta_affine": [
    [-1.9995105266571045, 0.02687307447195053, -0.0351521372795105, 101.64888763427734],
    [0.03662626072764397, 1.8967090845108032, -0.6333666443824768, -74.91712951660156],
    [-0.02482643537223339, 0.633855402469635, 1.896736979484558, -74.32210540771484],
    [0.0, 0.0, 0.0, 1.0]
],
  "dcmmeta_reorient_transform": [
    [0.0, -1.0, 0.0, 103.0],
    [1.0, 0.0, 0.0, 0.0],
    [0.0, 0.0, 1.0, 0.0],
    [0.0, 0.0, 0.0, 1.0]
],
  "dcmmeta_shape": [104, 104, 60, 484],
  "dcmmeta_slice_dim": 2,
  "dcmmeta_version": 0.6,
  "global": {
    "const": {
      "AcquisitionMatrix": [104, 0, 0, 104],
      "AngioFlag": "N",
      "BitsAllocated": 16,
      "BitsStored": 16,
      "BodyPartExamined": "BRAIN",
      "Columns": 832,
      "EchoNumbers": 1,
      "EchoTime": 37.0,
      "EchoTrainLength": 104,
      "FlipAngle": 52.0,
      "HighBit": 15,
      "ImageOrientationPatient": [0.99975524067968, -0.0183131308713, -0.0124132176009, 0.01343653683753, 0.9483545222515, -0.316927688287],
      "ImagePositionPatient": [-842.02042819802, -797.51403258378, 230.72518045167],
      "ImageType": [
        "ORIGINAL",
        "PRIMARY",
        "M",
        "MB",
        "ND",
        "MOSAIC"
],
      "ImagedNucleus": "1H",
      "ImagingFrequency": 123.258999,
      "InPlanePhaseEncodingDirection": "COL",
      "MRAcquisitionType": "2D",
      "MagneticFieldStrength": 3.0,
      "Manufacturer": "SIEMENS",
      "ManufacturerModelName": "Prisma_fit",
      "Modality": "MR",
      "NumberOfAverages": 1.0,
      "NumberOfPhaseEncodingSteps": 104,
      "PercentPhaseFieldOfView": 100.0,
      "PercentSampling": 100.0,
      "PerformedProcedureStepStartTime": "150937.429000",
      "PhotometricInterpretation": "MONOCHROME2",
      "PixelBandwidth": 2290.0,
      "PixelRepresentation": 0,
      "PixelSpacing": [2.0, 2.0],
      "ProtocolName": "func_task-friends-s05e10b",
      "RepetitionTime": 1490.0,
      "Rows": 832,
      "SAR": 0.01243253312417,
      "SamplesPerPixel": 1,
      "ScanOptions": "FS",
      "ScanningSequence": "EP",
      "SequenceName": "epfid2d1_104",
      "SequenceVariant": [
        "SK",
        "SS"
],
      "SeriesDescription": "func_task-friends-s05e10b",
      "SeriesNumber": 15,
      "SeriesTime": "161611.338000",
      "SliceLocation": -48.54632017483,
      "SliceThickness": 2.0,
      "SmallestImagePixelValue": 0,
      "SoftwareVersions": "syngo MR E11",
      "SpacingBetweenSlices": 1.9999999833404,
      "SpecificCharacterSet": "ISO_IR 100",
      "StudyID": "1",
      "StudyTime": "150937.351000",
      "TransmitCoilName": "Body",
      "VariableFlipAngleFlag": "N",
      "WindowCenterWidthExplanation": "Algo1",
      "dBdt": 0.0},
    "slices": {}
  },
  "time": {
    "samples": {
      "AcquisitionNumber": [1, 2, 3, 4, 5, 6, 7, 8, 9, 10, 11, 12, 13, 14, 15, 16, 17, 18, 19, 20, 21, 22, 23, 24, 25, 26, 27, 28, 29, 30, 31, 32, 33, 34, 35, 36, 37, 38, 39, 40, 41, 42, 43, 44, 45, 46, 47, 48, 49, 50, 51, 52, 53, 54, 55, 56, 57, 58, 59, 60, 61, 62, 63, 64, 65, 66, 67, 68, 69, 70, 71, 72, 73, 74, 75, 76, 77, 78, 79, 80, 81, 82, 83, 84, 85, 86, 87, 88, 89, 90, 91, 92, 93, 94, 95, 96, 97, 98, 99, 100, 101, 102, 103, 104, 105, 106, 107, 108, 109, 110, 111, 112, 113, 114, 115, 116, 117, 118, 119, 120, 121, 122, 123, 124, 125, 126, 127, 128, 129, 130, 131, 132, 133, 134, 135, 136, 137, 138, 139, 140, 141, 142, 143, 144, 145, 146, 147, 148, 149, 150, 151, 152, 153, 154, 155, 156, 157, 158, 159, 160, 161, 162, 163, 164, 165, 166, 167, 168, 169, 170, 171, 172, 173, 174, 175, 176, 177, 178, 179, 180, 181, 182, 183, 184, 185, 186, 187, 188, 189, 190, 191, 192, 193, 194, 195, 196, 197, 198, 199, 200, 201, 202, 203, 204, 205, 206, 207, 208, 209, 210, 211, 212, 213, 214, 215, 216, 217, 218, 219, 220, 221, 222, 223, 224, 225, 226, 227, 228, 229, 230, 231, 232, 233, 234, 235, 236, 237, 238, 239, 240, 241, 242, 243, 244, 245, 246, 247, 248, 249, 250, 251, 252, 253, 254, 255, 256, 257, 258, 259, 260, 261, 262, 263, 264, 265, 266, 267, 268, 269, 270, 271, 272, 273, 274, 275, 276, 277, 278, 279, 280, 281, 282, 283, 284, 285, 286, 287, 288, 289, 290, 291, 292, 293, 294, 295, 296, 297, 298, 299, 300, 301, 302, 303, 304, 305, 306, 307, 308, 309, 310, 311, 312, 313, 314, 315, 316, 317, 318, 319, 320, 321, 322, 323, 324, 325, 326, 327, 328, 329, 330, 331, 332, 333, 334, 335, 336, 337, 338, 339, 340, 341, 342, 343, 344, 345, 346, 347, 348, 349, 350, 351, 352, 353, 354, 355, 356, 357, 358, 359, 360, 361, 362, 363, 364, 365, 366, 367, 368, 369, 370, 371, 372, 373, 374, 375, 376, 377, 378, 379, 380, 381, 382, 383, 384, 385, 386, 387, 388, 389, 390, 391, 392, 393, 394, 395, 396, 397, 398, 399, 400, 401, 402, 403, 404, 405, 406, 407, 408, 409, 410, 411, 412, 413, 414, 415, 416, 417, 418, 419, 420, 421, 422, 423, 424, 425, 426, 427, 428, 429, 430, 431, 432, 433, 434, 435, 436, 437, 438, 439, 440, 441, 442, 443, 444, 445, 446, 447, 448, 449, 450, 451, 452, 453, 454, 455, 456, 457, 458, 459, 460, 461, 462, 463, 464, 465, 466, 467, 468, 469, 470, 471, 472, 473, 474, 475, 476, 477, 478, 479, 480, 481, 482, 483, 484],
      "AcquisitionTime": ["161453.227500", "161454.717500", "161456.207500", "161457.697500", "161459.187500", "161500.677500", "161502.167500", "161503.657500", "161505.147500", "161506.637500", "161508.127500", "161509.617500", "161511.107500", "161512.597500", "161514.087500", "161515.577500", "161517.067500", "161518.557500", "161520.047500", "161521.537500", "161523.027500", "161524.517500", "161526.007500", "161527.497500", "161528.987500", "161530.477500", "161531.967500", "161533.457500", "161534.947500", "161536.437500", "161537.927500", "161539.417500", "161540.907500", "161542.397500", "161543.887500", "161545.377500", "161546.867500", "161548.357500", "161549.847500", "161551.337500", "161552.827500", "161554.317500", "161555.807500", "161557.297500", "161558.787500", "161600.277500", "161601.767500", "161603.257500", "161604.747500", "161606.237500", "161607.727500", "161609.217500", "161610.707500", "161612.197500", "161613.687500", "161615.177500", "161616.667500", "161618.157500", "161619.647500", "161621.137500", "161622.627500", "161624.117500", "161625.607500", "161627.097500", "161628.587500", "161630.077500", "161631.567500", "161633.057500", "161634.547500", "161636.037500", "161637.527500", "161639.017500", "161640.507500", "161641.997500", "161643.487500", "161644.977500", "161646.467500", "161647.957500", "161649.447500", "161650.937500", "161652.427500", "161653.917500", "161655.407500", "161656.897500", "161658.387500", "161659.877500", "161701.367500", "161702.857500", "161704.347500", "161705.837500", "161707.327500", "161708.817500", "161710.307500", "161711.797500", "161713.287500", "161714.777500", "161716.267500", "161717.757500", "161719.247500", "161720.737500", "161722.227500", "161723.717500", "161725.207500", "161726.697500", "161728.187500", "161729.677500", "161731.167500", "161732.657500", "161734.147500", "161735.637500", "161737.127500", "161738.617500", "161740.107500", "161741.597500", "161743.087500", "161744.577500", "161746.067500", "161747.557500", "161749.047500", "161750.537500", "161752.027500", "161753.517500", "161755.007500", "161756.497500", "161757.987500", "161759.477500", "161800.967500", "161802.457500", "161803.947500", "161805.437500", "161806.927500", "161808.417500", "161809.907500", "161811.397500", "161812.887500", "161814.377500", "161815.867500", "161817.357500", "161818.847500", "161820.337500", "161821.827500", "161823.317500", "161824.807500", "161826.297500", "161827.787500", "161829.277500", "161830.767500", "161832.257500", "161833.747500", "161835.237500", "161836.727500", "161838.217500", "161839.707500", "161841.197500", "161842.687500", "161844.177500", "161845.667500", "161847.157500", "161848.647500", "161850.137500", "161851.627500", "161853.117500", "161854.607500", "161856.097500", "161857.587500", "161859.077500", "161900.567500", "161902.057500", "161903.547500", "161905.037500", "161906.527500", "161908.017500", "161909.507500", "161910.997500", "161912.487500", "161913.977500", "161915.467500", "161916.957500", "161918.447500", "161919.937500", "161921.427500", "161922.917500", "161924.407500", "161925.897500", "161927.387500", "161928.877500", "161930.367500", "161931.857500", "161933.347500", "161934.837500", "161936.327500", "161937.817500", "161939.307500", "161940.797500", "161942.287500", "161943.777500", "161945.267500", "161946.757500", "161948.247500", "161949.737500", "161951.227500", "161952.717500", "161954.207500", "161955.697500", "161957.187500", "161958.677500", "162000.167500", "162001.657500", "162003.147500", "162004.637500", "162006.127500", "162007.617500", "162009.107500", "162010.597500", "162012.087500", "162013.577500", "162015.067500", "162016.557500", "162018.047500", "162019.537500", "162021.027500", "162022.517500", "162024.007500", "162025.497500", "162026.987500", "162028.477500", "162029.967500", "162031.457500", "162032.947500", "162034.437500", "162035.927500", "162037.417500", "162038.907500", "162040.397500", "162041.887500", "162043.377500", "162044.867500", "162046.357500", "162047.847500", "162049.337500", "162050.827500", "162052.317500", "162053.807500", "162055.297500", "162056.787500", "162058.277500", "162059.767500", "162101.257500", "162102.747500", "162104.237500", "162105.727500", "162107.217500", "162108.707500", "162110.197500", "162111.687500", "162113.177500", "162114.667500", "162116.157500", "162117.647500", "162119.137500", "162120.627500", "162122.117500", "162123.607500", "162125.097500", "162126.587500", "162128.077500", "162129.567500", "162131.057500", "162132.547500", "162134.037500", "162135.527500", "162137.017500", "162138.507500", "162139.997500", "162141.487500", "162142.977500", "162144.467500", "162145.957500", "162147.447500", "162148.937500", "162150.427500", "162151.917500", "162153.407500", "162154.897500", "162156.387500", "162157.877500", "162159.367500", "162200.857500", "162202.347500", "162203.837500", "162205.327500", "162206.817500", "162208.307500", "162209.797500", "162211.287500", "162212.777500", "162214.267500", "162215.757500", "162217.247500", "162218.737500", "162220.227500", "162221.717500", "162223.207500", "162224.697500", "162226.187500", "162227.677500", "162229.167500", "162230.657500", "162232.147500", "162233.637500", "162235.127500", "162236.617500", "162238.107500", "162239.597500", "162241.087500", "162242.577500", "162244.067500", "162245.557500", "162247.047500", "162248.537500", "162250.027500", "162251.517500", "162253.007500", "162254.497500", "162255.987500", "162257.477500", "162258.967500", "162300.457500", "162301.947500", "162303.437500", "162304.927500", "162306.417500", "162307.907500", "162309.397500", "162310.887500", "162312.377500", "162313.867500", "162315.357500", "162316.847500", "162318.337500", "162319.827500", "162321.317500", "162322.807500", "162324.297500", "162325.787500", "162327.277500", "162328.767500", "162330.257500", "162331.747500", "162333.237500", "162334.727500", "162336.217500", "162337.707500", "162339.197500", "162340.687500", "162342.177500", "162343.667500", "162345.157500", "162346.647500", "162348.137500", "162349.627500", "162351.117500", "162352.607500", "162354.097500", "162355.587500", "162357.077500", "162358.567500", "162400.057500", "162401.547500", "162403.037500", "162404.527500", "162406.017500", "162407.507500", "162408.997500", "162410.487500", "162411.977500", "162413.467500", "162414.957500", "162416.447500", "162417.937500", "162419.427500", "162420.917500", "162422.407500", "162423.897500", "162425.387500", "162426.877500", "162428.367500", "162429.857500", "162431.347500", "162432.837500", "162434.327500", "162435.817500", "162437.307500", "162438.797500", "162440.287500", "162441.777500", "162443.267500", "162444.757500", "162446.247500", "162447.737500", "162449.227500", "162450.717500", "162452.207500", "162453.697500", "162455.187500", "162456.677500", "162458.167500", "162459.657500", "162501.147500", "162502.637500", "162504.127500", "162505.617500", "162507.107500", "162508.597500", "162510.087500", "162511.577500", "162513.067500", "162514.557500", "162516.047500", "162517.537500", "162519.027500", "162520.517500", "162522.007500", "162523.497500", "162524.987500", "162526.477500", "162527.967500", "162529.457500", "162530.947500", "162532.437500", "162533.927500", "162535.417500", "162536.907500", "162538.397500", "162539.887500", "162541.377500", "162542.867500", "162544.357500", "162545.847500", "162547.337500", "162548.827500", "162550.317500", "162551.807500", "162553.297500", "162554.787500", "162556.277500", "162557.767500", "162559.257500", "162600.747500", "162602.237500", "162603.727500", "162605.217500", "162606.707500", "162608.197500", "162609.687500", "162611.177500", "162612.667500", "162614.157500", "162615.647500", "162617.137500", "162618.627500", "162620.117500", "162621.607500", "162623.097500", "162624.587500", "162626.077500", "162627.567500", "162629.057500", "162630.547500", "162632.037500", "162633.527500", "162635.017500", "162636.507500", "162637.997500", "162639.487500", "162640.977500", "162642.467500", "162643.957500", "162645.447500", "162646.937500", "162648.427500", "162649.917500", "162651.407500", "162652.897500"],
      "ContentTime": ["161611.340000", "161611.344000", "161611.347000", "161611.350000", "161611.353000", "161611.356000", "161611.358000", "161611.361000", "161611.364000", "161611.367000", "161611.370000", "161611.373000", "161611.381000", "161611.384000", "161611.387000", "161611.390000", "161611.394000", "161611.397000", "161611.400000", "161611.403000", "161611.406000", "161611.409000", "161631.310000", "161631.313000", "161631.316000", "161631.319000", "161631.322000", "161631.324000", "161631.327000", "161631.330000", "161631.333000", "161631.336000", "161631.339000", "161631.341000", "161631.344000", "161631.347000", "161631.350000", "161631.353000", "161631.356000", "161631.360000", "161631.362000", "161631.365000", "161631.368000", "161651.310000", "161651.313000", "161651.316000", "161651.319000", "161651.322000", "161651.324000", "161651.327000", "161651.330000", "161651.333000", "161651.336000", "161651.339000", "161651.342000", "161651.344000", "161651.347000", "161651.350000", "161651.353000", "161651.356000", "161651.359000", "161651.361000", "161651.364000", "161711.311000", "161711.314000", "161711.317000", "161711.320000", "161711.323000", "161711.325000", "161711.328000", "161711.331000", "161711.334000", "161711.337000", "161711.340000", "161711.343000", "161711.345000", "161711.348000", "161711.351000", "161711.354000", "161711.357000", "161711.360000", "161711.363000", "161711.366000", "161731.311000", "161731.314000", "161731.317000", "161731.320000", "161731.323000", "161731.325000", "161731.328000", "161731.332000", "161731.335000", "161731.338000", "161731.341000", "161731.344000", "161731.347000", "161731.350000", "161731.353000", "161731.356000", "161731.358000", "161731.361000", "161731.364000", "161731.367000", "161811.311000", "161811.314000", "161811.317000", "161811.320000", "161811.323000", "161811.326000", "161811.329000", "161811.331000", "161811.334000", "161811.337000", "161811.340000", "161811.343000", "161811.346000", "161811.348000", "161811.351000", "161811.354000", "161811.357000", "161811.360000", "161811.363000", "161811.373000", "161811.375000", "161811.378000", "161811.381000", "161811.384000", "161811.387000", "161811.390000", "161811.393000", "161811.395000", "161811.398000", "161851.310000", "161851.313000", "161851.322000", "161851.325000", "161851.327000", "161851.330000", "161851.333000", "161851.336000", "161851.339000", "161851.342000", "161851.345000", "161851.348000", "161851.351000", "161851.355000", "161851.358000", "161851.361000", "161851.364000", "161851.367000", "161851.370000", "161851.373000", "161851.376000", "161851.380000", "161851.383000", "161851.386000", "161851.389000", "161851.392000", "161851.395000", "161931.311000", "161931.314000", "161931.317000", "161931.320000", "161931.322000", "161931.325000", "161931.328000", "161931.331000", "161931.334000", "161931.337000", "161931.340000", "161931.343000", "161931.346000", "161931.349000", "161931.351000", "161931.354000", "161931.357000", "161931.360000", "161931.363000", "161931.366000", "161931.369000", "161931.372000", "161931.375000", "161931.377000", "161931.380000", "161931.383000", "161931.386000", "162011.311000", "162011.314000", "162011.317000", "162011.320000", "162011.323000", "162011.326000", "162011.328000", "162011.332000", "162011.335000", "162011.337000", "162011.340000", "162011.343000", "162011.346000", "162011.349000", "162011.352000", "162011.354000", "162011.357000", "162011.360000", "162011.363000", "162011.366000", "162011.369000", "162011.372000", "162011.375000", "162011.377000", "162011.380000", "162011.383000", "162011.386000", "162051.310000", "162051.313000", "162051.316000", "162051.319000", "162051.322000", "162051.325000", "162051.327000", "162051.331000", "162051.333000", "162051.336000", "162051.339000", "162051.342000", "162051.345000", "162051.348000", "162051.351000", "162051.354000", "162051.357000", "162051.359000", "162051.362000", "162051.365000", "162051.368000", "162051.371000", "162051.374000", "162051.377000", "162051.380000", "162051.383000", "162051.386000", "162131.310000", "162131.313000", "162131.322000", "162131.325000", "162131.346000", "162131.349000", "162131.352000", "162131.355000", "162131.358000", "162131.361000", "162131.364000", "162131.367000", "162131.370000", "162131.373000", "162131.376000", "162131.379000", "162131.382000", "162131.384000", "162131.387000", "162131.390000", "162131.393000", "162131.396000", "162131.399000", "162131.402000", "162131.405000", "162131.407000", "162211.311000", "162211.314000", "162211.317000", "162211.320000", "162211.323000", "162211.326000", "162211.329000", "162211.331000", "162211.334000", "162211.337000", "162211.340000", "162211.343000", "162211.346000", "162211.349000", "162211.352000", "162211.355000", "162211.358000", "162211.360000", "162211.363000", "162211.366000", "162211.369000", "162211.372000", "162211.375000", "162211.378000", "162211.381000", "162211.384000", "162211.386000", "162251.311000", "162251.314000", "162251.317000", "162251.320000", "162251.323000", "162251.326000", "162251.329000", "162251.332000", "162251.335000", "162251.337000", "162251.340000", "162251.343000", "162251.346000", "162251.349000", "162251.352000", "162251.355000", "162251.358000", "162251.361000", "162251.364000", "162251.367000", "162251.370000", "162251.373000", "162251.376000", "162251.379000", "162251.382000", "162251.385000", "162251.388000", "162331.310000", "162331.313000", "162331.316000", "162331.319000", "162331.322000", "162331.325000", "162331.328000", "162331.331000", "162331.334000", "162331.337000", "162331.340000", "162331.343000", "162331.346000", "162331.349000", "162331.352000", "162331.355000", "162331.358000", "162331.361000", "162331.364000", "162331.367000", "162331.370000", "162331.373000", "162331.376000", "162331.379000", "162331.382000", "162331.384000", "162331.387000", "162411.311000", "162411.314000", "162411.317000", "162411.320000", "162411.323000", "162411.326000", "162411.329000", "162411.332000", "162411.334000", "162411.337000", "162411.340000", "162411.343000", "162411.346000", "162411.349000", "162411.352000", "162411.355000", "162411.358000", "162411.361000", "162411.363000", "162411.366000", "162411.369000", "162411.372000", "162411.375000", "162411.378000", "162411.381000", "162411.384000", "162411.386000", "162451.311000", "162451.314000", "162451.317000", "162451.320000", "162451.330000", "162451.332000", "162451.335000", "162451.338000", "162451.341000", "162451.344000", "162451.347000", "162451.350000", "162451.353000", "162451.355000", "162451.358000", "162451.361000", "162451.364000", "162451.367000", "162451.370000", "162451.373000", "162451.376000", "162451.379000", "162451.381000", "162451.384000", "162451.387000", "162451.390000", "162451.393000", "162531.310000", "162531.313000", "162531.316000", "162531.319000", "162531.322000", "162531.325000", "162531.328000", "162531.331000", "162531.333000", "162531.336000", "162531.339000", "162531.342000", "162531.345000", "162531.348000", "162531.351000", "162531.354000", "162531.357000", "162531.360000", "162531.362000", "162531.365000", "162531.368000", "162531.371000", "162531.374000", "162531.377000", "162531.380000", "162531.383000", "162531.385000", "162611.310000", "162611.313000", "162611.316000", "162611.319000", "162611.322000", "162611.325000", "162611.328000", "162611.331000", "162611.334000", "162611.337000", "162611.340000", "162611.343000", "162611.346000", "162611.349000", "162611.352000", "162611.355000", "162611.358000", "162611.360000", "162611.363000", "162611.366000", "162611.369000", "162611.372000", "162611.375000", "162611.378000", "162611.380000", "162611.383000", "162651.311000", "162651.314000", "162651.317000", "162651.320000", "162651.323000", "162651.326000", "162651.329000", "162651.331000", "162651.334000", "162651.337000", "162651.340000", "162651.343000", "162651.346000", "162651.349000", "162651.352000", "162651.364000", "162651.367000", "162651.370000", "162651.372000", "162651.375000", "162651.378000", "162651.381000", "162651.384000", "162651.387000", "162651.390000", "162651.393000", "162651.395000", "162654.734000", "162654.737000", "162654.740000"],
