{
  "AcquisitionMatrixPE": 104,
  "AcquisitionNumber": 1,
  "AcquisitionTime": "16:03:13.682500",
  "BandwidthPerPixelPhaseEncode": 17.17,
  "BaseResolution": 104,
  "BodyPartExamined": "BRAIN",
  "CoilString": "HC1-7;NC1_2",
  "ConsistencyInfo": "N4_VE11C_LATEST_20160120",
  "ConversionSoftware": "dcm2niix",
  "ConversionSoftwareVersion": "v1.0.20190902",
  "DerivedVendorReportedEchoSpacing": 0.000560011,
  "DeviceSerialNumber": "167006",
  "DwellTime": 2.1e-06,
  "EchoTime": 0.037,
  "EchoTrainLength": 104,
  "EffectiveEchoSpacing": 0.000560011,
  "FlipAngle": 52,
  "ImageComments": "Unaliased_MB4_PE3_LB",
  "ImageOrientationPatientDICOM": [0.999755, -0.0183131, -0.0124132, 0.0134365, 0.948355, -0.316928],
  "ImageType": [
    "ORIGINAL",
    "PRIMARY",
    "M",
    "MB",
    "ND",
    "MOSAIC"
],
  "ImagingFrequency": 123.259,
  "InPlanePhaseEncodingDirectionDICOM": "COL",
  "InstitutionAddress": "Chemin_Queen-Mary_4565_Montreal_District_CA_H3W_1W5",
  "InstitutionName": "IUGM",
  "InstitutionalDepartmentName": "Department",
  "MRAcquisitionType": "2D",
  "MagneticFieldStrength": 3,
  "Manufacturer": "Siemens",
  "ManufacturersModelName": "Prisma_fit",
  "Modality": "MR",
  "MultibandAccelerationFactor": 4,
  "PartialFourier": 1,
  "PatientPosition": "HFS",
  "PercentPhaseFOV": 100,
  "PhaseEncodingDirection": "j",
  "PhaseEncodingSteps": 104,
  "PhaseResolution": 1,
  "PixelBandwidth": 2290,
  "ProcedureStepDescription": "video_friends",
  "ProtocolName": "func_task-friends-s05e10a",
  "PulseSequenceDetails": "%CustomerSeq%_cmrr_mbep2d_bold",
  "ReceiveCoilActiveElements": "HC1-7;NC1,2",
  "ReceiveCoilName": "HeadNeck_64",
  "ReconMatrixPE": 104,
  "RepetitionTime": 1.49,
  "SAR": 0.0124287,
  "ScanOptions": "FS",
  "ScanningSequence": "EP",
  "SequenceName": "epfid2d1_104",
  "SequenceVariant": "SK_SS",
  "SeriesDescription": "func_task-friends-s05e10a",
  "SeriesNumber": 13,
  "ShimSetting": [635, -7257, -8867, 659, 34, -235, 17, -8],
  "SliceThickness": 2,
  "SliceTiming": [0, 0.7825, 0.0975, 0.88, 0.195, 0.98, 0.2925, 1.0775, 0.39, 1.175, 0.49, 1.2725, 0.5875, 1.37, 0.685, 0, 0.7825, 0.0975, 0.88, 0.195, 0.98, 0.2925, 1.0775, 0.39, 1.175, 0.49, 1.2725, 0.5875, 1.37, 0.685, 0, 0.7825, 0.0975, 0.88, 0.195, 0.98, 0.2925, 1.0775, 0.39, 1.175, 0.49, 1.2725, 0.5875, 1.37, 0.685, 0, 0.7825, 0.0975, 0.88, 0.195, 0.98, 0.2925, 1.0775, 0.39, 1.175, 0.49, 1.2725, 0.5875, 1.37, 0.685],
  "SoftwareVersions": "syngo_MR_E11",
  "SpacingBetweenSlices": 2,
  "StationName": "MRC35049",
  "TaskName": "s05e10a",
  "TotalReadoutTime": 0.0576811,
  "TxRefAmp": 218.788,
  "WipMemBlock": "11b1c2a3-9b51-456f-baff-624b08b50ac4||Sequence: R016 ve11c/master r/e634e98; Dec 19 2017 11:00:25 by eja",
  "dcmmeta_affine": [
    [-1.9995105266571045, 0.02687307447195053, -0.0351521372795105, 101.64888763427734],
    [0.03662626072764397, 1.8967090845108032, -0.6333666443824768, -74.91712951660156],
    [-0.02482643537223339, 0.633855402469635, 1.896736979484558, -74.32210540771484],
    [0.0, 0.0, 0.0, 1.0]
],
  "dcmmeta_reorient_transform": [
    [0.0, -1.0, 0.0, 103.0],
    [1.0, 0.0, 0.0, 0.0],
    [0.0, 0.0, 1.0, 0.0],
    [0.0, 0.0, 0.0, 1.0]
],
  "dcmmeta_shape": [104, 104, 60, 450],
  "dcmmeta_slice_dim": 2,
  "dcmmeta_version": 0.6,
  "global": {
    "const": {
      "AcquisitionMatrix": [104, 0, 0, 104],
      "AngioFlag": "N",
      "BitsAllocated": 16,
      "BitsStored": 16,
      "BodyPartExamined": "BRAIN",
      "Columns": 832,
      "EchoNumbers": 1,
      "EchoTime": 37.0,
      "EchoTrainLength": 104,
      "FlipAngle": 52.0,
      "HighBit": 15,
      "ImageOrientationPatient": [0.99975524067968, -0.0183131308713, -0.0124132176009, 0.01343653683753, 0.9483545222515, -0.316927688287],
      "ImagePositionPatient": [-842.02042819802, -797.51403258378, 230.72518045167],
      "ImageType": [
        "ORIGINAL",
        "PRIMARY",
        "M",
        "MB",
        "ND",
        "MOSAIC"
],
      "ImagedNucleus": "1H",
      "ImagingFrequency": 123.259,
      "InPlanePhaseEncodingDirection": "COL",
      "MRAcquisitionType": "2D",
      "MagneticFieldStrength": 3.0,
      "Manufacturer": "SIEMENS",
      "ManufacturerModelName": "Prisma_fit",
      "Modality": "MR",
      "NumberOfAverages": 1.0,
      "NumberOfPhaseEncodingSteps": 104,
      "PercentPhaseFieldOfView": 100.0,
      "PercentSampling": 100.0,
      "PerformedProcedureStepStartTime": "150937.429000",
      "PhotometricInterpretation": "MONOCHROME2",
      "PixelBandwidth": 2290.0,
      "PixelRepresentation": 0,
      "PixelSpacing": [2.0, 2.0],
      "ProtocolName": "func_task-friends-s05e10a",
      "RepetitionTime": 1490.0,
      "Rows": 832,
      "SAR": 0.01242870060707,
      "SamplesPerPixel": 1,
      "ScanOptions": "FS",
      "ScanningSequence": "EP",
      "SequenceName": "epfid2d1_104",
      "SequenceVariant": [
        "SK",
        "SS"
],
      "SeriesDescription": "func_task-friends-s05e10a",
      "SeriesNumber": 13,
      "SeriesTime": "160414.804000",
      "SliceLocation": -48.54632017483,
      "SliceThickness": 2.0,
      "SmallestImagePixelValue": 0,
      "SoftwareVersions": "syngo MR E11",
      "SpacingBetweenSlices": 1.9999999833404,
      "SpecificCharacterSet": "ISO_IR 100",
      "StudyID": "1",
      "StudyTime": "150937.351000",
      "TransmitCoilName": "Body",
      "VariableFlipAngleFlag": "N",
      "WindowCenterWidthExplanation": "Algo1",
      "dBdt": 0.0},
    "slices": {}
  },
  "time": {
    "samples": {
      "AcquisitionNumber": [1, 2, 3, 4, 5, 6, 7, 8, 9, 10, 11, 12, 13, 14, 15, 16, 17, 18, 19, 20, 21, 22, 23, 24, 25, 26, 27, 28, 29, 30, 31, 32, 33, 34, 35, 36, 37, 38, 39, 40, 41, 42, 43, 44, 45, 46, 47, 48, 49, 50, 51, 52, 53, 54, 55, 56, 57, 58, 59, 60, 61, 62, 63, 64, 65, 66, 67, 68, 69, 70, 71, 72, 73, 74, 75, 76, 77, 78, 79, 80, 81, 82, 83, 84, 85, 86, 87, 88, 89, 90, 91, 92, 93, 94, 95, 96, 97, 98, 99, 100, 101, 102, 103, 104, 105, 106, 107, 108, 109, 110, 111, 112, 113, 114, 115, 116, 117, 118, 119, 120, 121, 122, 123, 124, 125, 126, 127, 128, 129, 130, 131, 132, 133, 134, 135, 136, 137, 138, 139, 140, 141, 142, 143, 144, 145, 146, 147, 148, 149, 150, 151, 152, 153, 154, 155, 156, 157, 158, 159, 160, 161, 162, 163, 164, 165, 166, 167, 168, 169, 170, 171, 172, 173, 174, 175, 176, 177, 178, 179, 180, 181, 182, 183, 184, 185, 186, 187, 188, 189, 190, 191, 192, 193, 194, 195, 196, 197, 198, 199, 200, 201, 202, 203, 204, 205, 206, 207, 208, 209, 210, 211, 212, 213, 214, 215, 216, 217, 218, 219, 220, 221, 222, 223, 224, 225, 226, 227, 228, 229, 230, 231, 232, 233, 234, 235, 236, 237, 238, 239, 240, 241, 242, 243, 244, 245, 246, 247, 248, 249, 250, 251, 252, 253, 254, 255, 256, 257, 258, 259, 260, 261, 262, 263, 264, 265, 266, 267, 268, 269, 270, 271, 272, 273, 274, 275, 276, 277, 278, 279, 280, 281, 282, 283, 284, 285, 286, 287, 288, 289, 290, 291, 292, 293, 294, 295, 296, 297, 298, 299, 300, 301, 302, 303, 304, 305, 306, 307, 308, 309, 310, 311, 312, 313, 314, 315, 316, 317, 318, 319, 320, 321, 322, 323, 324, 325, 326, 327, 328, 329, 330, 331, 332, 333, 334, 335, 336, 337, 338, 339, 340, 341, 342, 343, 344, 345, 346, 347, 348, 349, 350, 351, 352, 353, 354, 355, 356, 357, 358, 359, 360, 361, 362, 363, 364, 365, 366, 367, 368, 369, 370, 371, 372, 373, 374, 375, 376, 377, 378, 379, 380, 381, 382, 383, 384, 385, 386, 387, 388, 389, 390, 391, 392, 393, 394, 395, 396, 397, 398, 399, 400, 401, 402, 403, 404, 405, 406, 407, 408, 409, 410, 411, 412, 413, 414, 415, 416, 417, 418, 419, 420, 421, 422, 423, 424, 425, 426, 427, 428, 429, 430, 431, 432, 433, 434, 435, 436, 437, 438, 439, 440, 441, 442, 443, 444, 445, 446, 447, 448, 449, 450],
      "AcquisitionTime": ["160313.682500", "160315.172500", "160316.662500", "160318.152500", "160319.642500", "160321.132500", "160322.622500", "160324.112500", "160325.602500", "160327.092500", "160328.582500", "160330.072500", "160331.562500", "160333.052500", "160334.542500", "160336.032500", "160337.522500", "160339.012500", "160340.502500", "160341.992500", "160343.482500", "160344.972500", "160346.462500", "160347.952500", "160349.442500", "160350.932500", "160352.422500", "160353.912500", "160355.402500", "160356.892500", "160358.382500", "160359.872500", "160401.362500", "160402.852500", "160404.342500", "160405.832500", "160407.322500", "160408.812500", "160410.302500", "160411.792500", "160413.282500", "160414.772500", "160416.262500", "160417.752500", "160419.242500", "160420.732500", "160422.222500", "160423.712500", "160425.202500", "160426.692500", "160428.182500", "160429.672500", "160431.162500", "160432.652500", "160434.142500", "160435.632500", "160437.122500", "160438.612500", "160440.102500", "160441.592500", "160443.082500", "160444.572500", "160446.062500", "160447.552500", "160449.042500", "160450.532500", "160452.022500", "160453.512500", "160455.002500", "160456.492500", "160457.982500", "160459.472500", "160500.962500", "160502.452500", "160503.942500", "160505.432500", "160506.922500", "160508.412500", "160509.902500", "160511.392500", "160512.882500", "160514.372500", "160515.862500", "160517.352500", "160518.842500", "160520.332500", "160521.822500", "160523.312500", "160524.802500", "160526.292500", "160527.782500", "160529.272500", "160530.762500", "160532.252500", "160533.742500", "160535.232500", "160536.722500", "160538.212500", "160539.702500", "160541.192500", "160542.682500", "160544.172500", "160545.662500", "160547.152500", "160548.642500", "160550.132500", "160551.622500", "160553.112500", "160554.602500", "160556.092500", "160557.582500", "160559.072500", "160600.562500", "160602.052500", "160603.542500", "160605.032500", "160606.522500", "160608.012500", "160609.502500", "160610.992500", "160612.482500", "160613.972500", "160615.462500", "160616.952500", "160618.442500", "160619.932500", "160621.422500", "160622.912500", "160624.402500", "160625.892500", "160627.382500", "160628.872500", "160630.362500", "160631.852500", "160633.342500", "160634.832500", "160636.322500", "160637.812500", "160639.302500", "160640.792500", "160642.282500", "160643.772500", "160645.262500", "160646.752500", "160648.242500", "160649.732500", "160651.222500", "160652.712500", "160654.202500", "160655.692500", "160657.182500", "160658.672500", "160700.162500", "160701.652500", "160703.142500", "160704.632500", "160706.122500", "160707.612500", "160709.102500", "160710.592500", "160712.082500", "160713.572500", "160715.062500", "160716.552500", "160718.042500", "160719.532500", "160721.022500", "160722.512500", "160724.002500", "160725.492500", "160726.982500", "160728.472500", "160729.962500", "160731.452500", "160732.942500", "160734.432500", "160735.922500", "160737.412500", "160738.902500", "160740.392500", "160741.882500", "160743.372500", "160744.862500", "160746.352500", "160747.842500", "160749.332500", "160750.822500", "160752.312500", "160753.802500", "160755.292500", "160756.782500", "160758.272500", "160759.762500", "160801.252500", "160802.742500", "160804.232500", "160805.722500", "160807.212500", "160808.702500", "160810.192500", "160811.682500", "160813.172500", "160814.662500", "160816.152500", "160817.642500", "160819.132500", "160820.622500", "160822.112500", "160823.602500", "160825.092500", "160826.582500", "160828.072500", "160829.562500", "160831.052500", "160832.542500", "160834.032500", "160835.522500", "160837.012500", "160838.502500", "160839.992500", "160841.482500", "160842.972500", "160844.462500", "160845.952500", "160847.442500", "160848.932500", "160850.422500", "160851.912500", "160853.402500", "160854.892500", "160856.382500", "160857.872500", "160859.362500", "160900.852500", "160902.342500", "160903.832500", "160905.322500", "160906.812500", "160908.302500", "160909.792500", "160911.282500", "160912.772500", "160914.262500", "160915.752500", "160917.242500", "160918.732500", "160920.222500", "160921.712500", "160923.202500", "160924.692500", "160926.182500", "160927.672500", "160929.162500", "160930.652500", "160932.142500", "160933.632500", "160935.122500", "160936.612500", "160938.102500", "160939.592500", "160941.082500", "160942.572500", "160944.062500", "160945.552500", "160947.042500", "160948.532500", "160950.022500", "160951.512500", "160953.002500", "160954.492500", "160955.982500", "160957.472500", "160958.962500", "161000.452500", "161001.942500", "161003.432500", "161004.922500", "161006.412500", "161007.902500", "161009.392500", "161010.882500", "161012.372500", "161013.862500", "161015.352500", "161016.842500", "161018.332500", "161019.822500", "161021.312500", "161022.802500", "161024.292500", "161025.782500", "161027.272500", "161028.762500", "161030.252500", "161031.742500", "161033.232500", "161034.722500", "161036.212500", "161037.702500", "161039.192500", "161040.682500", "161042.172500", "161043.662500", "161045.152500", "161046.642500", "161048.132500", "161049.622500", "161051.112500", "161052.602500", "161054.092500", "161055.582500", "161057.072500", "161058.562500", "161100.052500", "161101.542500", "161103.032500", "161104.522500", "161106.012500", "161107.502500", "161108.992500", "161110.482500", "161111.972500", "161113.462500", "161114.952500", "161116.442500", "161117.932500", "161119.422500", "161120.912500", "161122.402500", "161123.892500", "161125.382500", "161126.872500", "161128.362500", "161129.852500", "161131.342500", "161132.832500", "161134.322500", "161135.812500", "161137.302500", "161138.792500", "161140.282500", "161141.772500", "161143.262500", "161144.752500", "161146.242500", "161147.732500", "161149.222500", "161150.712500", "161152.202500", "161153.692500", "161155.182500", "161156.672500", "161158.162500", "161159.652500", "161201.142500", "161202.632500", "161204.122500", "161205.612500", "161207.102500", "161208.592500", "161210.082500", "161211.572500", "161213.062500", "161214.552500", "161216.042500", "161217.532500", "161219.022500", "161220.512500", "161222.002500", "161223.492500", "161224.982500", "161226.472500", "161227.962500", "161229.452500", "161230.942500", "161232.432500", "161233.922500", "161235.412500", "161236.902500", "161238.392500", "161239.882500", "161241.372500", "161242.862500", "161244.352500", "161245.842500", "161247.332500", "161248.822500", "161250.312500", "161251.802500", "161253.292500", "161254.782500", "161256.272500", "161257.762500", "161259.252500", "161300.742500", "161302.232500", "161303.722500", "161305.212500", "161306.702500", "161308.192500", "161309.682500", "161311.172500", "161312.662500", "161314.152500", "161315.642500", "161317.132500", "161318.622500", "161320.112500", "161321.602500", "161323.092500", "161324.582500", "161326.072500", "161327.562500", "161329.052500", "161330.542500", "161332.032500", "161333.522500", "161335.012500", "161336.502500", "161337.992500", "161339.482500", "161340.972500", "161342.462500", "161343.952500", "161345.442500", "161346.932500", "161348.422500", "161349.912500", "161351.402500", "161352.892500", "161354.382500", "161355.872500", "161357.362500", "161358.852500", "161400.342500", "161401.832500", "161403.322500", "161404.812500", "161406.302500", "161407.792500", "161409.282500", "161410.772500", "161412.262500", "161413.752500", "161415.242500", "161416.732500", "161418.222500", "161419.712500", "161421.202500", "161422.692500"],
      "ContentTime": ["160414.808000", "160414.811000", "160414.814000", "160414.817000", "160414.819000", "160414.822000", "160434.763000", "160434.766000", "160434.772000", "160434.775000", "160434.778000", "160434.781000", "160434.784000", "160434.786000", "160434.789000", "160434.792000", "160434.795000", "160434.798000", "160434.801000", "160434.804000", "160434.807000", "160434.815000", "160434.818000", "160434.822000", "160434.836000", "160434.839000", "160454.763000", "160454.766000", "160454.769000", "160454.771000", "160454.774000", "160454.780000", "160454.783000", "160454.786000", "160454.789000", "160454.792000", "160454.794000", "160454.797000", "160454.800000", "160454.803000", "160454.806000", "160454.808000", "160454.811000", "160454.814000", "160454.817000", "160454.820000", "160454.823000", "160514.764000", "160514.767000", "160514.770000", "160514.772000", "160514.775000", "160514.787000", "160514.790000", "160514.793000", "160514.810000", "160514.813000", "160514.816000", "160514.818000", "160514.821000", "160514.824000", "160514.827000", "160514.830000", "160514.832000", "160514.835000", "160514.838000", "160514.841000", "160534.764000", "160534.767000", "160534.770000", "160534.773000", "160534.775000", "160534.778000", "160534.781000", "160534.784000", "160534.786000", "160534.789000", "160534.792000", "160534.795000", "160534.798000", "160534.801000", "160534.803000", "160534.806000", "160534.809000", "160534.812000", "160534.814000", "160534.817000", "160554.764000", "160554.767000", "160554.770000", "160554.773000", "160554.775000", "160554.778000", "160554.781000", "160554.784000", "160554.787000", "160554.790000", "160554.793000", "160554.795000", "160554.798000", "160554.801000", "160554.804000", "160554.806000", "160554.809000", "160554.812000", "160554.815000", "160554.818000", "160634.764000", "160634.767000", "160634.770000", "160634.773000", "160634.775000", "160634.778000", "160634.781000", "160634.784000", "160634.787000", "160634.790000", "160634.799000", "160634.802000", "160634.805000", "160634.808000", "160634.811000", "160634.814000", "160634.816000", "160634.819000", "160634.822000", "160634.825000", "160634.828000", "160634.830000", "160634.833000", "160634.836000", "160634.839000", "160634.847000", "160634.850000", "160714.763000", "160714.766000", "160714.769000", "160714.772000", "160714.775000", "160714.777000", "160714.780000", "160714.783000", "160714.787000", "160714.790000", "160714.793000", "160714.796000", "160714.799000", "160714.802000", "160714.804000", "160714.807000", "160714.810000", "160714.813000", "160714.816000", "160714.819000", "160714.822000", "160714.824000", "160714.827000", "160714.830000", "160714.833000", "160714.836000", "160714.839000", "160754.764000", "160754.767000", "160754.770000", "160754.773000", "160754.776000", "160754.778000", "160754.781000", "160754.793000", "160754.809000", "160754.812000", "160754.814000", "160754.817000", "160754.820000", "160754.823000", "160754.826000", "160754.829000", "160754.832000", "160754.834000", "160754.837000", "160754.840000", "160754.843000", "160754.846000", "160754.849000", "160754.852000", "160754.855000", "160754.857000", "160754.860000", "160834.764000", "160834.767000", "160834.770000", "160834.773000", "160834.776000", "160834.778000", "160834.781000", "160834.784000", "160834.787000", "160834.790000", "160834.793000", "160834.796000", "160834.798000", "160834.801000", "160834.804000", "160834.807000", "160834.810000", "160834.812000", "160834.815000", "160834.818000", "160834.821000", "160834.824000", "160834.827000", "160834.829000", "160834.832000", "160834.835000", "160834.838000", "160914.763000", "160914.766000", "160914.769000", "160914.772000", "160914.774000", "160914.777000", "160914.780000", "160914.783000", "160914.786000", "160914.789000", "160914.792000", "160914.794000", "160914.797000", "160914.800000", "160914.803000", "160914.806000", "160914.809000", "160914.811000", "160914.814000", "160914.817000", "160914.820000", "160914.823000", "160914.825000", "160914.842000", "160914.845000", "160914.848000", "160954.764000", "160954.767000", "160954.770000", "160954.773000", "160954.776000", "160954.778000", "160954.781000", "160954.784000", "160954.787000", "160954.790000", "160954.793000", "160954.796000", "160954.799000", "160954.815000", "160954.817000", "160954.820000", "160954.823000", "160954.826000", "160954.829000", "160954.832000", "160954.835000", "160954.838000", "160954.840000", "160954.843000", "160954.846000", "160954.849000", "160954.852000", "161034.764000", "161034.767000", "161034.770000", "161034.773000", "161034.776000", "161034.779000", "161034.781000", "161034.784000", "161034.787000", "161034.790000", "161034.793000", "161034.796000", "161034.799000", "161034.801000", "161034.804000", "161034.807000", "161034.810000", "161034.813000", "161034.815000", "161034.818000", "161034.821000", "161034.824000", "161034.827000", "161034.830000", "161034.832000", "161034.835000", "161034.838000", "161114.764000", "161114.767000", "161114.770000", "161114.773000", "161114.775000", "161114.778000", "161114.781000", "161114.784000", "161114.787000", "161114.790000", "161114.793000", "161114.795000", "161114.798000", "161114.801000", "161114.804000", "161114.807000", "161114.809000", "161114.812000", "161114.815000", "161114.818000", "161114.821000", "161114.827000", "161114.830000", "161114.833000", "161114.836000", "161114.839000", "161114.842000", "161154.763000", "161154.766000", "161154.769000", "161154.772000", "161154.775000", "161154.778000", "161154.780000", "161154.783000", "161154.786000", "161154.789000", "161154.792000", "161154.795000", "161154.798000", "161154.801000", "161154.803000", "161154.806000", "161154.809000", "161154.812000", "161154.815000", "161154.818000", "161154.821000", "161154.823000", "161154.826000", "161154.829000", "161154.832000", "161154.835000", "161154.838000", "161234.764000", "161234.767000", "161234.770000", "161234.773000", "161234.775000", "161234.778000", "161234.781000", "161234.784000", "161234.787000", "161234.790000", "161234.792000", "161234.795000", "161234.798000", "161234.801000", "161234.804000", "161234.807000", "161234.810000", "161234.812000", "161234.815000", "161234.818000", "161234.821000", "161234.824000", "161234.827000", "161234.830000", "161234.832000", "161234.835000", "161234.838000", "161314.764000", "161314.767000", "161314.770000", "161314.773000", "161314.776000", "161314.779000", "161314.781000", "161314.784000", "161314.787000", "161314.790000", "161314.793000", "161314.796000", "161314.800000", "161314.802000", "161314.805000", "161314.808000", "161314.811000", "161314.814000", "161314.817000", "161314.820000", "161314.822000", "161314.825000", "161314.828000", "161314.831000", "161314.834000", "161314.837000", "161334.764000", "161334.767000", "161334.770000", "161334.773000", "161334.776000", "161334.779000", "161334.782000", "161334.848000", "161334.851000", "161334.854000", "161334.857000", "161334.860000", "161334.862000", "161334.865000", "161414.763000", "161414.766000", "161414.769000", "161414.772000", "161414.774000", "161414.777000", "161414.780000", "161414.783000", "161414.786000", "161414.789000", "161414.792000", "161414.795000", "161414.797000", "161414.800000", "161414.803000", "161414.806000", "161414.809000", "161414.812000", "161414.815000", "161414.817000", "161414.820000", "161414.823000", "161414.826000", "161414.829000", "161414.831000", "161414.834000", "161414.851000", "161424.957000", "161424.960000", "161424.963000", "161424.966000", "161424.969000", "161424.972000", "161424.974000"],
