{
  "AcquisitionMatrixPE": 104,
  "AcquisitionNumber": 1,
  "AcquisitionTime": "15:50:1.870000",
  "BandwidthPerPixelPhaseEncode": 17.17,
  "BaseResolution": 104,
  "BodyPartExamined": "BRAIN",
  "CoilString": "HC1-7;NC1_2",
  "ConsistencyInfo": "N4_VE11C_LATEST_20160120",
  "ConversionSoftware": "dcm2niix",
  "ConversionSoftwareVersion": "v1.0.20190902",
  "DerivedVendorReportedEchoSpacing": 0.000560011,
  "DeviceSerialNumber": "167006",
  "DwellTime": 2.1e-06,
  "EchoTime": 0.037,
  "EchoTrainLength": 104,
  "EffectiveEchoSpacing": 0.000560011,
  "FlipAngle": 52,
  "ImageComments": "Unaliased_MB4_PE3_LB",
  "ImageOrientationPatientDICOM": [0.999755, -0.0183131, -0.0124132, 0.0134365, 0.948355, -0.316928],
  "ImageType": [
    "ORIGINAL",
    "PRIMARY",
    "M",
    "MB",
    "ND",
    "MOSAIC"
],
  "ImagingFrequency": 123.259,
  "InPlanePhaseEncodingDirectionDICOM": "COL",
  "InstitutionAddress": "Chemin_Queen-Mary_4565_Montreal_District_CA_H3W_1W5",
  "InstitutionName": "IUGM",
  "InstitutionalDepartmentName": "Department",
  "MRAcquisitionType": "2D",
  "MagneticFieldStrength": 3,
  "Manufacturer": "Siemens",
  "ManufacturersModelName": "Prisma_fit",
  "Modality": "MR",
  "MultibandAccelerationFactor": 4,
  "PartialFourier": 1,
  "PatientPosition": "HFS",
  "PercentPhaseFOV": 100,
  "PhaseEncodingDirection": "j",
  "PhaseEncodingSteps": 104,
  "PhaseResolution": 1,
  "PixelBandwidth": 2290,
  "ProcedureStepDescription": "video_friends",
  "ProtocolName": "func_task-friends-s05e09b",
  "PulseSequenceDetails": "%CustomerSeq%_cmrr_mbep2d_bold",
  "ReceiveCoilActiveElements": "HC1-7;NC1,2",
  "ReceiveCoilName": "HeadNeck_64",
  "ReconMatrixPE": 104,
  "RepetitionTime": 1.49,
  "SAR": 0.0124332,
  "ScanOptions": "FS",
  "ScanningSequence": "EP",
  "SequenceName": "epfid2d1_104",
  "SequenceVariant": "SK_SS",
  "SeriesDescription": "func_task-friends-s05e09b",
  "SeriesNumber": 11,
  "ShimSetting": [635, -7257, -8867, 659, 34, -235, 17, -8],
  "SliceThickness": 2,
  "SliceTiming": [0, 0.785, 0.1, 0.8825, 0.1975, 0.98, 0.295, 1.08, 0.3925, 1.1775, 0.49, 1.275, 0.59, 1.3725, 0.6875, 0, 0.785, 0.1, 0.8825, 0.1975, 0.98, 0.295, 1.08, 0.3925, 1.1775, 0.49, 1.275, 0.59, 1.3725, 0.6875, 0, 0.785, 0.1, 0.8825, 0.1975, 0.98, 0.295, 1.08, 0.3925, 1.1775, 0.49, 1.275, 0.59, 1.3725, 0.6875, 0, 0.785, 0.1, 0.8825, 0.1975, 0.98, 0.295, 1.08, 0.3925, 1.1775, 0.49, 1.275, 0.59, 1.3725, 0.6875],
  "SoftwareVersions": "syngo_MR_E11",
  "SpacingBetweenSlices": 2,
  "StationName": "MRC35049",
  "TaskName": "s05e09b",
  "TotalReadoutTime": 0.0576811,
  "TxRefAmp": 218.788,
  "WipMemBlock": "3b4bc462-0bcc-4f59-a682-83da44976081||Sequence: R016 ve11c/master r/e634e98; Dec 19 2017 11:00:25 by eja",
  "dcmmeta_affine": [
    [-1.9995105266571045, 0.02687307447195053, -0.0351521372795105, 101.64888763427734],
    [0.03662626072764397, 1.8967090845108032, -0.6333666443824768, -74.91712951660156],
    [-0.02482643537223339, 0.633855402469635, 1.896736979484558, -74.32210540771484],
    [0.0, 0.0, 0.0, 1.0]
],
  "dcmmeta_reorient_transform": [
    [0.0, -1.0, 0.0, 103.0],
    [1.0, 0.0, 0.0, 0.0],
    [0.0, 0.0, 1.0, 0.0],
    [0.0, 0.0, 0.0, 1.0]
],
  "dcmmeta_shape": [104, 104, 60, 490],
  "dcmmeta_slice_dim": 2,
  "dcmmeta_version": 0.6,
  "global": {
    "const": {
      "AcquisitionMatrix": [104, 0, 0, 104],
      "AngioFlag": "N",
      "BitsAllocated": 16,
      "BitsStored": 16,
      "BodyPartExamined": "BRAIN",
      "Columns": 832,
      "EchoNumbers": 1,
      "EchoTime": 37.0,
      "EchoTrainLength": 104,
      "FlipAngle": 52.0,
      "HighBit": 15,
      "ImageOrientationPatient": [0.99975524067968, -0.0183131308713, -0.0124132176009, 0.01343653683753, 0.9483545222515, -0.316927688287],
      "ImagePositionPatient": [-842.02042819802, -797.51403258378, 230.72518045167],
      "ImageType": [
        "ORIGINAL",
        "PRIMARY",
        "M",
        "MB",
        "ND",
        "MOSAIC"
],
      "ImagedNucleus": "1H",
      "ImagingFrequency": 123.258988,
      "InPlanePhaseEncodingDirection": "COL",
      "MRAcquisitionType": "2D",
      "MagneticFieldStrength": 3.0,
      "Manufacturer": "SIEMENS",
      "ManufacturerModelName": "Prisma_fit",
      "Modality": "MR",
      "NumberOfAverages": 1.0,
      "NumberOfPhaseEncodingSteps": 104,
      "PercentPhaseFieldOfView": 100.0,
      "PercentSampling": 100.0,
      "PerformedProcedureStepStartTime": "150937.429000",
      "PhotometricInterpretation": "MONOCHROME2",
      "PixelBandwidth": 2290.0,
      "PixelRepresentation": 0,
      "PixelSpacing": [2.0, 2.0],
      "ProtocolName": "func_task-friends-s05e09b",
      "RepetitionTime": 1490.0,
      "Rows": 832,
      "SAR": 0.01243315533594,
      "SamplesPerPixel": 1,
      "ScanOptions": "FS",
      "ScanningSequence": "EP",
      "SequenceName": "epfid2d1_104",
      "SequenceVariant": [
        "SK",
        "SS"
],
      "SeriesDescription": "func_task-friends-s05e09b",
      "SeriesNumber": 11,
      "SeriesTime": "155119.968000",
      "SliceLocation": -48.54632017483,
      "SliceThickness": 2.0,
      "SmallestImagePixelValue": 0,
      "SoftwareVersions": "syngo MR E11",
      "SpacingBetweenSlices": 1.9999999833404,
      "SpecificCharacterSet": "ISO_IR 100",
      "StudyID": "1",
      "StudyTime": "150937.351000",
      "TransmitCoilName": "Body",
      "VariableFlipAngleFlag": "N",
      "WindowCenterWidthExplanation": "Algo1",
      "dBdt": 0.0},
    "slices": {}
  },
  "time": {
    "samples": {
      "AcquisitionNumber": [1, 2, 3, 4, 5, 6, 7, 8, 9, 10, 11, 12, 13, 14, 15, 16, 17, 18, 19, 20, 21, 22, 23, 24, 25, 26, 27, 28, 29, 30, 31, 32, 33, 34, 35, 36, 37, 38, 39, 40, 41, 42, 43, 44, 45, 46, 47, 48, 49, 50, 51, 52, 53, 54, 55, 56, 57, 58, 59, 60, 61, 62, 63, 64, 65, 66, 67, 68, 69, 70, 71, 72, 73, 74, 75, 76, 77, 78, 79, 80, 81, 82, 83, 84, 85, 86, 87, 88, 89, 90, 91, 92, 93, 94, 95, 96, 97, 98, 99, 100, 101, 102, 103, 104, 105, 106, 107, 108, 109, 110, 111, 112, 113, 114, 115, 116, 117, 118, 119, 120, 121, 122, 123, 124, 125, 126, 127, 128, 129, 130, 131, 132, 133, 134, 135, 136, 137, 138, 139, 140, 141, 142, 143, 144, 145, 146, 147, 148, 149, 150, 151, 152, 153, 154, 155, 156, 157, 158, 159, 160, 161, 162, 163, 164, 165, 166, 167, 168, 169, 170, 171, 172, 173, 174, 175, 176, 177, 178, 179, 180, 181, 182, 183, 184, 185, 186, 187, 188, 189, 190, 191, 192, 193, 194, 195, 196, 197, 198, 199, 200, 201, 202, 203, 204, 205, 206, 207, 208, 209, 210, 211, 212, 213, 214, 215, 216, 217, 218, 219, 220, 221, 222, 223, 224, 225, 226, 227, 228, 229, 230, 231, 232, 233, 234, 235, 236, 237, 238, 239, 240, 241, 242, 243, 244, 245, 246, 247, 248, 249, 250, 251, 252, 253, 254, 255, 256, 257, 258, 259, 260, 261, 262, 263, 264, 265, 266, 267, 268, 269, 270, 271, 272, 273, 274, 275, 276, 277, 278, 279, 280, 281, 282, 283, 284, 285, 286, 287, 288, 289, 290, 291, 292, 293, 294, 295, 296, 297, 298, 299, 300, 301, 302, 303, 304, 305, 306, 307, 308, 309, 310, 311, 312, 313, 314, 315, 316, 317, 318, 319, 320, 321, 322, 323, 324, 325, 326, 327, 328, 329, 330, 331, 332, 333, 334, 335, 336, 337, 338, 339, 340, 341, 342, 343, 344, 345, 346, 347, 348, 349, 350, 351, 352, 353, 354, 355, 356, 357, 358, 359, 360, 361, 362, 363, 364, 365, 366, 367, 368, 369, 370, 371, 372, 373, 374, 375, 376, 377, 378, 379, 380, 381, 382, 383, 384, 385, 386, 387, 388, 389, 390, 391, 392, 393, 394, 395, 396, 397, 398, 399, 400, 401, 402, 403, 404, 405, 406, 407, 408, 409, 410, 411, 412, 413, 414, 415, 416, 417, 418, 419, 420, 421, 422, 423, 424, 425, 426, 427, 428, 429, 430, 431, 432, 433, 434, 435, 436, 437, 438, 439, 440, 441, 442, 443, 444, 445, 446, 447, 448, 449, 450, 451, 452, 453, 454, 455, 456, 457, 458, 459, 460, 461, 462, 463, 464, 465, 466, 467, 468, 469, 470, 471, 472, 473, 474, 475, 476, 477, 478, 479, 480, 481, 482, 483, 484, 485, 486, 487, 488, 489, 490],
      "AcquisitionTime": ["155001.870000", "155003.360000", "155004.850000", "155006.340000", "155007.830000", "155009.320000", "155010.810000", "155012.300000", "155013.790000", "155015.280000", "155016.770000", "155018.260000", "155019.750000", "155021.240000", "155022.730000", "155024.220000", "155025.710000", "155027.200000", "155028.690000", "155030.180000", "155031.670000", "155033.160000", "155034.650000", "155036.140000", "155037.630000", "155039.120000", "155040.610000", "155042.100000", "155043.590000", "155045.080000", "155046.570000", "155048.060000", "155049.550000", "155051.040000", "155052.530000", "155054.020000", "155055.510000", "155057.000000", "155058.490000", "155059.980000", "155101.470000", "155102.960000", "155104.450000", "155105.940000", "155107.430000", "155108.920000", "155110.410000", "155111.900000", "155113.390000", "155114.880000", "155116.370000", "155117.860000", "155119.350000", "155120.840000", "155122.330000", "155123.820000", "155125.310000", "155126.800000", "155128.290000", "155129.780000", "155131.270000", "155132.760000", "155134.250000", "155135.740000", "155137.230000", "155138.720000", "155140.210000", "155141.700000", "155143.190000", "155144.680000", "155146.170000", "155147.660000", "155149.150000", "155150.640000", "155152.130000", "155153.620000", "155155.110000", "155156.600000", "155158.090000", "155159.580000", "155201.070000", "155202.560000", "155204.050000", "155205.540000", "155207.030000", "155208.520000", "155210.010000", "155211.500000", "155212.990000", "155214.480000", "155215.970000", "155217.460000", "155218.950000", "155220.440000", "155221.930000", "155223.420000", "155224.910000", "155226.400000", "155227.890000", "155229.380000", "155230.870000", "155232.360000", "155233.850000", "155235.340000", "155236.830000", "155238.320000", "155239.810000", "155241.300000", "155242.790000", "155244.280000", "155245.770000", "155247.260000", "155248.750000", "155250.240000", "155251.730000", "155253.220000", "155254.710000", "155256.200000", "155257.690000", "155259.180000", "155300.670000", "155302.160000", "155303.650000", "155305.140000", "155306.630000", "155308.120000", "155309.610000", "155311.100000", "155312.590000", "155314.080000", "155315.570000", "155317.060000", "155318.550000", "155320.040000", "155321.530000", "155323.020000", "155324.510000", "155326.000000", "155327.490000", "155328.980000", "155330.470000", "155331.960000", "155333.450000", "155334.940000", "155336.430000", "155337.920000", "155339.410000", "155340.900000", "155342.390000", "155343.880000", "155345.370000", "155346.860000", "155348.350000", "155349.840000", "155351.330000", "155352.820000", "155354.310000", "155355.800000", "155357.290000", "155358.780000", "155400.270000", "155401.760000", "155403.250000", "155404.740000", "155406.230000", "155407.720000", "155409.210000", "155410.700000", "155412.190000", "155413.680000", "155415.170000", "155416.660000", "155418.150000", "155419.640000", "155421.130000", "155422.620000", "155424.110000", "155425.600000", "155427.090000", "155428.580000", "155430.070000", "155431.560000", "155433.050000", "155434.540000", "155436.030000", "155437.520000", "155439.010000", "155440.500000", "155441.990000", "155443.480000", "155444.970000", "155446.460000", "155447.950000", "155449.440000", "155450.930000", "155452.420000", "155453.910000", "155455.400000", "155456.890000", "155458.380000", "155459.870000", "155501.360000", "155502.850000", "155504.340000", "155505.830000", "155507.320000", "155508.810000", "155510.300000", "155511.790000", "155513.280000", "155514.770000", "155516.260000", "155517.750000", "155519.240000", "155520.730000", "155522.220000", "155523.710000", "155525.200000", "155526.690000", "155528.180000", "155529.670000", "155531.160000", "155532.650000", "155534.140000", "155535.630000", "155537.120000", "155538.610000", "155540.100000", "155541.590000", "155543.080000", "155544.570000", "155546.060000", "155547.550000", "155549.040000", "155550.530000", "155552.020000", "155553.510000", "155555.000000", "155556.490000", "155557.980000", "155559.470000", "155600.960000", "155602.450000", "155603.940000", "155605.430000", "155606.920000", "155608.410000", "155609.900000", "155611.390000", "155612.880000", "155614.370000", "155615.860000", "155617.350000", "155618.840000", "155620.330000", "155621.820000", "155623.310000", "155624.800000", "155626.290000", "155627.780000", "155629.270000", "155630.760000", "155632.250000", "155633.740000", "155635.230000", "155636.720000", "155638.210000", "155639.700000", "155641.190000", "155642.680000", "155644.170000", "155645.660000", "155647.150000", "155648.640000", "155650.130000", "155651.620000", "155653.110000", "155654.600000", "155656.090000", "155657.580000", "155659.070000", "155700.560000", "155702.050000", "155703.540000", "155705.030000", "155706.520000", "155708.010000", "155709.500000", "155710.990000", "155712.480000", "155713.970000", "155715.460000", "155716.950000", "155718.440000", "155719.930000", "155721.420000", "155722.910000", "155724.400000", "155725.890000", "155727.380000", "155728.870000", "155730.360000", "155731.850000", "155733.340000", "155734.830000", "155736.320000", "155737.810000", "155739.300000", "155740.790000", "155742.280000", "155743.770000", "155745.260000", "155746.750000", "155748.240000", "155749.730000", "155751.220000", "155752.710000", "155754.200000", "155755.690000", "155757.180000", "155758.670000", "155800.160000", "155801.650000", "155803.140000", "155804.630000", "155806.120000", "155807.610000", "155809.100000", "155810.590000", "155812.080000", "155813.570000", "155815.060000", "155816.550000", "155818.040000", "155819.530000", "155821.020000", "155822.510000", "155824.000000", "155825.490000", "155826.980000", "155828.470000", "155829.960000", "155831.450000", "155832.940000", "155834.430000", "155835.920000", "155837.410000", "155838.900000", "155840.390000", "155841.880000", "155843.370000", "155844.860000", "155846.350000", "155847.840000", "155849.330000", "155850.820000", "155852.310000", "155853.800000", "155855.290000", "155856.780000", "155858.270000", "155859.760000", "155901.250000", "155902.740000", "155904.230000", "155905.720000", "155907.210000", "155908.700000", "155910.190000", "155911.680000", "155913.170000", "155914.660000", "155916.150000", "155917.640000", "155919.130000", "155920.620000", "155922.110000", "155923.600000", "155925.090000", "155926.580000", "155928.070000", "155929.560000", "155931.050000", "155932.540000", "155934.030000", "155935.520000", "155937.010000", "155938.500000", "155939.990000", "155941.480000", "155942.970000", "155944.460000", "155945.950000", "155947.440000", "155948.930000", "155950.420000", "155951.910000", "155953.400000", "155954.890000", "155956.380000", "155957.870000", "155959.360000", "160000.850000", "160002.340000", "160003.830000", "160005.320000", "160006.810000", "160008.300000", "160009.790000", "160011.280000", "160012.770000", "160014.260000", "160015.750000", "160017.240000", "160018.730000", "160020.220000", "160021.710000", "160023.200000", "160024.690000", "160026.180000", "160027.670000", "160029.160000", "160030.650000", "160032.140000", "160033.630000", "160035.120000", "160036.610000", "160038.100000", "160039.590000", "160041.080000", "160042.570000", "160044.060000", "160045.550000", "160047.040000", "160048.530000", "160050.020000", "160051.510000", "160053.000000", "160054.490000", "160055.980000", "160057.470000", "160058.960000", "160100.450000", "160101.940000", "160103.430000", "160104.920000", "160106.410000", "160107.900000", "160109.390000", "160110.880000", "160112.370000", "160113.860000", "160115.350000", "160116.840000", "160118.330000", "160119.820000", "160121.310000", "160122.800000", "160124.290000", "160125.780000", "160127.270000", "160128.760000", "160130.250000", "160131.740000", "160133.230000", "160134.720000", "160136.210000", "160137.700000", "160139.190000", "160140.680000", "160142.170000", "160143.660000", "160145.150000", "160146.640000", "160148.130000", "160149.620000", "160151.110000", "160152.600000", "160154.090000", "160155.580000", "160157.070000", "160158.560000", "160200.050000", "160201.540000", "160203.030000", "160204.520000", "160206.010000", "160207.500000", "160208.990000", "160210.480000"],
      "ContentTime": ["155119.970000", "155119.974000", "155119.977000", "155119.979000", "155119.982000", "155119.985000", "155119.988000", "155119.991000", "155119.994000", "155119.997000", "155120.001000", "155120.003000", "155120.006000", "155120.009000", "155120.012000", "155120.019000", "155120.029000", "155120.032000", "155120.035000", "155120.038000", "155120.041000", "155120.044000", "155120.046000", "155120.049000", "155139.941000", "155139.944000", "155139.947000", "155139.949000", "155139.953000", "155139.955000", "155139.958000", "155139.961000", "155139.964000", "155139.967000", "155139.969000", "155139.972000", "155139.975000", "155139.978000", "155139.981000", "155139.984000", "155139.987000", "155139.989000", "155139.992000", "155139.995000", "155159.941000", "155159.944000", "155159.947000", "155159.949000", "155159.952000", "155159.955000", "155159.958000", "155159.961000", "155159.964000", "155159.967000", "155159.970000", "155159.972000", "155159.983000", "155159.986000", "155159.989000", "155159.992000", "155159.995000", "155159.998000", "155200.001000", "155200.003000", "155219.941000", "155219.944000", "155219.947000", "155219.950000", "155219.952000", "155219.955000", "155219.958000", "155219.961000", "155219.964000", "155219.966000", "155219.975000", "155219.978000", "155219.981000", "155219.983000", "155219.986000", "155219.989000", "155219.992000", "155219.995000", "155219.998000", "155220.002000", "155220.013000", "155239.940000", "155239.943000", "155239.946000", "155239.949000", "155239.952000", "155239.955000", "155239.958000", "155239.961000", "155239.963000", "155239.966000", "155239.969000", "155239.972000", "155239.975000", "155239.978000", "155239.980000", "155239.983000", "155239.986000", "155239.989000", "155239.992000", "155239.995000", "155319.941000", "155319.944000", "155319.947000", "155319.950000", "155319.952000", "155319.955000", "155319.958000", "155319.961000", "155319.964000", "155319.966000", "155319.969000", "155319.972000", "155319.975000", "155319.978000", "155319.981000", "155319.983000", "155319.986000", "155319.989000", "155319.992000", "155319.995000", "155319.997000", "155320.000000", "155320.003000", "155320.006000", "155320.009000", "155320.011000", "155320.014000", "155339.941000", "155339.944000", "155339.947000", "155339.950000", "155339.952000", "155339.955000", "155339.958000", "155339.961000", "155339.964000", "155339.966000", "155339.969000", "155339.972000", "155339.975000", "155339.978000", "155419.942000", "155419.945000", "155419.947000", "155419.950000", "155419.953000", "155419.956000", "155419.959000", "155419.962000", "155419.964000", "155419.967000", "155419.970000", "155419.973000", "155419.976000", "155419.978000", "155419.981000", "155419.984000", "155419.987000", "155419.990000", "155419.992000", "155419.995000", "155419.998000", "155420.002000", "155420.005000", "155420.008000", "155420.018000", "155420.021000", "155420.023000", "155459.940000", "155459.943000", "155459.946000", "155459.949000", "155459.951000", "155459.954000", "155459.957000", "155459.960000", "155459.963000", "155459.970000", "155459.973000", "155459.976000", "155459.979000", "155459.982000", "155459.998000", "155500.001000", "155500.004000", "155500.008000", "155500.011000", "155500.014000", "155500.016000", "155500.019000", "155500.022000", "155500.025000", "155500.028000", "155500.031000", "155539.941000", "155539.944000", "155539.947000", "155539.950000", "155539.952000", "155539.955000", "155539.958000", "155539.961000", "155539.964000", "155539.966000", "155539.969000", "155539.972000", "155539.975000", "155539.978000", "155539.981000", "155539.983000", "155539.986000", "155539.989000", "155539.992000", "155539.995000", "155539.997000", "155540.001000", "155540.004000", "155540.007000", "155540.010000", "155540.012000", "155540.015000", "155619.941000", "155619.944000", "155619.947000", "155619.950000", "155619.953000", "155619.955000", "155619.958000", "155619.961000", "155619.964000", "155619.967000", "155619.970000", "155619.972000", "155619.975000", "155619.978000", "155619.981000", "155619.984000", "155619.987000", "155619.990000", "155619.992000", "155619.995000", "155619.998000", "155620.001000", "155620.004000", "155620.006000", "155620.014000", "155620.017000", "155620.020000", "155659.941000", "155659.944000", "155659.947000", "155659.950000", "155659.952000", "155659.955000", "155659.958000", "155659.961000", "155659.964000", "155659.967000", "155659.970000", "155659.973000", "155659.975000", "155659.978000", "155659.981000", "155659.984000", "155659.987000", "155659.990000", "155659.992000", "155659.996000", "155659.998000", "155700.001000", "155700.004000", "155700.007000", "155700.010000", "155700.013000", "155700.015000", "155739.941000", "155739.944000", "155739.947000", "155739.950000", "155739.953000", "155739.956000", "155739.959000", "155739.961000", "155739.964000", "155739.967000", "155739.970000", "155739.973000", "155739.976000", "155739.979000", "155739.982000", "155739.984000", "155739.987000", "155739.990000", "155739.993000", "155739.996000", "155739.999000", "155740.001000", "155740.004000", "155740.007000", "155740.010000", "155740.013000", "155740.016000", "155819.941000", "155819.944000", "155819.947000", "155819.950000", "155819.953000", "155819.956000", "155819.959000", "155819.961000", "155819.964000", "155819.967000", "155819.970000", "155819.973000", "155819.975000", "155819.978000", "155819.981000", "155819.984000", "155819.987000", "155819.990000", "155819.993000", "155819.996000", "155819.998000", "155820.003000", "155820.005000", "155820.008000", "155820.011000", "155820.014000", "155820.017000", "155859.941000", "155859.944000", "155859.947000", "155859.950000", "155859.953000", "155859.956000", "155859.959000", "155859.962000", "155859.965000", "155859.968000", "155859.971000", "155859.974000", "155859.977000", "155859.979000", "155859.982000", "155859.985000", "155859.988000", "155859.991000", "155859.994000", "155859.997000", "155900.001000", "155900.003000", "155900.006000", "155900.009000", "155900.012000", "155900.015000", "155939.940000", "155939.943000", "155939.946000", "155939.949000", "155939.952000", "155939.955000", "155939.958000", "155939.960000", "155939.963000", "155939.966000", "155939.969000", "155939.972000", "155939.975000", "155939.977000", "155939.980000", "155939.994000", "155939.997000", "155940.001000", "155940.004000", "155940.007000", "155940.009000", "155940.012000", "155940.015000", "155940.018000", "155940.021000", "155940.024000", "155940.026000", "160019.941000", "160019.944000", "160019.947000", "160019.950000", "160019.953000", "160019.955000", "160019.958000", "160019.961000", "160019.964000", "160019.967000", "160019.970000", "160019.973000", "160019.975000", "160019.978000", "160019.981000", "160019.984000", "160019.987000", "160019.990000", "160019.992000", "160019.995000", "160019.998000", "160020.002000", "160020.005000", "160020.008000", "160020.010000", "160020.013000", "160020.016000", "160059.941000", "160059.944000", "160059.947000", "160059.950000", "160059.953000", "160059.955000", "160059.958000", "160059.961000", "160059.964000", "160059.967000", "160059.969000", "160059.972000", "160059.975000", "160059.978000", "160059.981000", "160059.984000", "160059.987000", "160059.989000", "160059.992000", "160059.995000", "160059.998000", "160100.001000", "160100.004000", "160100.006000", "160100.009000", "160100.012000", "160100.015000", "160139.941000", "160139.944000", "160139.947000", "160139.950000", "160139.952000", "160139.955000", "160139.958000", "160139.961000", "160139.964000", "160139.967000", "160139.969000", "160139.972000", "160139.975000", "160139.978000", "160139.981000", "160139.984000", "160139.986000", "160139.989000", "160139.992000", "160139.995000", "160139.998000", "160140.002000", "160140.004000", "160140.007000", "160140.010000", "160140.013000", "160140.016000", "160212.287000", "160212.291000", "160212.294000", "160212.296000", "160212.299000", "160212.302000", "160212.305000", "160212.308000", "160212.311000", "160212.313000", "160212.316000", "160212.319000", "160212.322000", "160212.325000", "160212.328000", "160212.331000", "160212.334000", "160212.337000", "160212.339000", "160212.342000", "160212.345000", "160212.348000"],
