{
  "AcquisitionMatrixPE": 104,
  "AcquisitionNumber": 1,
  "AcquisitionTime": "11:06:54.000000",
  "BandwidthPerPixelPhaseEncode": 17.17,
  "BaseResolution": 104,
  "BodyPartExamined": "BRAIN",
  "CoilString": "HC1-7;NC1_2",
  "ConsistencyInfo": "N4_VE11C_LATEST_20160120",
  "ConversionSoftware": "dcm2niix",
  "ConversionSoftwareVersion": "v1.0.20190902",
  "DerivedVendorReportedEchoSpacing": 0.000560011,
  "DeviceSerialNumber": "167006",
  "DwellTime": 2.1e-06,
  "EchoTime": 0.037,
  "EchoTrainLength": 104,
  "EffectiveEchoSpacing": 0.000560011,
  "FlipAngle": 52,
  "ImageComments": "Unaliased_MB4_PE3_LB",
  "ImageOrientationPatientDICOM": [0.998341, -0.0124671, -0.0562143, -0.00121972, 0.971481, -0.237114],
  "ImageType": [
    "ORIGINAL",
    "PRIMARY",
    "M",
    "MB",
    "ND",
    "MOSAIC"
],
  "ImagingFrequency": 123.259,
  "InPlanePhaseEncodingDirectionDICOM": "COL",
  "InstitutionAddress": "Chemin_Queen-Mary_4565_Montreal_District_CA_H3W_1W5",
  "InstitutionName": "IUGM",
  "InstitutionalDepartmentName": "Department",
  "MRAcquisitionType": "2D",
  "MagneticFieldStrength": 3,
  "Manufacturer": "Siemens",
  "ManufacturersModelName": "Prisma_fit",
  "Modality": "MR",
  "MultibandAccelerationFactor": 4,
  "PartialFourier": 1,
  "PatientPosition": "HFS",
  "PercentPhaseFOV": 100,
  "PhaseEncodingDirection": "j",
  "PhaseEncodingSteps": 104,
  "PhaseResolution": 1,
  "PixelBandwidth": 2290,
  "ProcedureStepDescription": "video_friends",
  "ProtocolName": "func_task-friends-s03e20b",
  "PulseSequenceDetails": "%CustomerSeq%_cmrr_mbep2d_bold",
  "ReceiveCoilActiveElements": "HC1-7;NC1,2",
  "ReceiveCoilName": "HeadNeck_64",
  "ReconMatrixPE": 104,
  "RepetitionTime": 1.49,
  "SAR": 0.0285519,
  "ScanOptions": "FS",
  "ScanningSequence": "EP",
  "SequenceName": "epfid2d1_104",
  "SequenceVariant": "SK_SS",
  "SeriesDescription": "func_task-friends-s03e20b",
  "SeriesNumber": 11,
  "ShimSetting": [600, -7251, -8853, 612, -58, -302, 39, 51],
  "SliceThickness": 2,
  "SliceTiming": [0, 0.7825, 0.0975, 0.8825, 0.195, 0.98, 0.295, 1.0775, 0.3925, 1.175, 0.49, 1.2725, 0.5875, 1.3725, 0.685, 0, 0.7825, 0.0975, 0.8825, 0.195, 0.98, 0.295, 1.0775, 0.3925, 1.175, 0.49, 1.2725, 0.5875, 1.3725, 0.685, 0, 0.7825, 0.0975, 0.8825, 0.195, 0.98, 0.295, 1.0775, 0.3925, 1.175, 0.49, 1.2725, 0.5875, 1.3725, 0.685, 0, 0.7825, 0.0975, 0.8825, 0.195, 0.98, 0.295, 1.0775, 0.3925, 1.175, 0.49, 1.2725, 0.5875, 1.3725, 0.685],
  "SoftwareVersions": "syngo_MR_E11",
  "SpacingBetweenSlices": 2,
  "StationName": "MRC35049",
  "TaskName": "s03e20b",
  "TotalReadoutTime": 0.0576811,
  "TxRefAmp": 217.451,
  "WipMemBlock": "42cb9f82-8cbd-4106-ae38-1f3ef0cf78ed||Sequence: R016 ve11c/master r/e634e98; Dec 19 2017 11:00:25 by eja",
  "dcmmeta_affine": [
    [-1.996681809425354, -0.002439431846141815, -0.11513447761535645, 101.90852355957031],
    [0.024934105575084686, 1.9429621696472168, -0.4735783636569977, -83.18196105957031],
    [-0.11242859810590744, 0.47422805428504944, 1.9397081136703491, -54.89006042480469],
    [0.0, 0.0, 0.0, 1.0]
],
  "dcmmeta_reorient_transform": [
    [0.0, -1.0, 0.0, 103.0],
    [1.0, 0.0, 0.0, 0.0],
    [0.0, 0.0, 1.0, 0.0],
    [0.0, 0.0, 0.0, 1.0]
],
  "dcmmeta_shape": [104, 104, 60, 464],
  "dcmmeta_slice_dim": 2,
  "dcmmeta_version": 0.6,
  "global": {
    "const": {
      "AcquisitionMatrix": [104, 0, 0, 104],
      "AngioFlag": "N",
      "BitsAllocated": 16,
      "BitsStored": 16,
      "BodyPartExamined": "BRAIN",
      "Columns": 832,
      "EchoNumbers": 1,
      "EchoTime": 37.0,
      "EchoTrainLength": 104,
      "FlipAngle": 52.0,
      "HighBit": 15,
      "ImageOrientationPatient": [0.99834088629115, -0.0124670531824, -0.0562142983978, -0.001219715953, 0.97148106159638, -0.2371140216279],
      "ImagePositionPatient": [-827.56147208472, -815.10533203291, 207.49844586127],
      "ImageType": [
        "ORIGINAL",
        "PRIMARY",
        "M",
        "MB",
        "ND",
        "MOSAIC"
],
      "ImagedNucleus": "1H",
      "ImagingFrequency": 123.2594,
      "InPlanePhaseEncodingDirection": "COL",
      "MRAcquisitionType": "2D",
      "MagneticFieldStrength": 3.0,
      "Manufacturer": "SIEMENS",
      "ManufacturerModelName": "Prisma_fit",
      "Modality": "MR",
      "NumberOfAverages": 1.0,
      "NumberOfPhaseEncodingSteps": 104,
      "PercentPhaseFieldOfView": 100.0,
      "PercentSampling": 100.0,
      "PerformedProcedureStepStartTime": "093625.250000",
      "PhotometricInterpretation": "MONOCHROME2",
      "PixelBandwidth": 2290.0,
      "PixelRepresentation": 0,
      "PixelSpacing": [2.0, 2.0],
      "ProtocolName": "func_task-friends-s03e20b",
      "RepetitionTime": 1490.0,
      "Rows": 832,
      "SAR": 0.02855189160663,
      "SamplesPerPixel": 1,
      "ScanOptions": "FS",
      "ScanningSequence": "EP",
      "SequenceName": "epfid2d1_104",
      "SequenceVariant": [
        "SK",
        "SS"
],
      "SeriesDescription": "func_task-friends-s03e20b",
      "SeriesNumber": 11,
      "SeriesTime": "110808.094000",
      "SliceLocation": -39.405349371648,
      "SliceThickness": 2.0,
      "SmallestImagePixelValue": 0,
      "SoftwareVersions": "syngo MR E11",
      "SpacingBetweenSlices": 1.9999999446234,
      "SpecificCharacterSet": "ISO_IR 100",
      "StudyID": "1",
      "StudyTime": "093625.071000",
      "TransmitCoilName": "Body",
      "VariableFlipAngleFlag": "N",
      "WindowCenterWidthExplanation": "Algo1",
      "dBdt": 0.0},
    "slices": {}
  },
  "time": {
    "samples": {
      "AcquisitionNumber": [1, 2, 3, 4, 5, 6, 7, 8, 9, 10, 11, 12, 13, 14, 15, 16, 17, 18, 19, 20, 21, 22, 23, 24, 25, 26, 27, 28, 29, 30, 31, 32, 33, 34, 35, 36, 37, 38, 39, 40, 41, 42, 43, 44, 45, 46, 47, 48, 49, 50, 51, 52, 53, 54, 55, 56, 57, 58, 59, 60, 61, 62, 63, 64, 65, 66, 67, 68, 69, 70, 71, 72, 73, 74, 75, 76, 77, 78, 79, 80, 81, 82, 83, 84, 85, 86, 87, 88, 89, 90, 91, 92, 93, 94, 95, 96, 97, 98, 99, 100, 101, 102, 103, 104, 105, 106, 107, 108, 109, 110, 111, 112, 113, 114, 115, 116, 117, 118, 119, 120, 121, 122, 123, 124, 125, 126, 127, 128, 129, 130, 131, 132, 133, 134, 135, 136, 137, 138, 139, 140, 141, 142, 143, 144, 145, 146, 147, 148, 149, 150, 151, 152, 153, 154, 155, 156, 157, 158, 159, 160, 161, 162, 163, 164, 165, 166, 167, 168, 169, 170, 171, 172, 173, 174, 175, 176, 177, 178, 179, 180, 181, 182, 183, 184, 185, 186, 187, 188, 189, 190, 191, 192, 193, 194, 195, 196, 197, 198, 199, 200, 201, 202, 203, 204, 205, 206, 207, 208, 209, 210, 211, 212, 213, 214, 215, 216, 217, 218, 219, 220, 221, 222, 223, 224, 225, 226, 227, 228, 229, 230, 231, 232, 233, 234, 235, 236, 237, 238, 239, 240, 241, 242, 243, 244, 245, 246, 247, 248, 249, 250, 251, 252, 253, 254, 255, 256, 257, 258, 259, 260, 261, 262, 263, 264, 265, 266, 267, 268, 269, 270, 271, 272, 273, 274, 275, 276, 277, 278, 279, 280, 281, 282, 283, 284, 285, 286, 287, 288, 289, 290, 291, 292, 293, 294, 295, 296, 297, 298, 299, 300, 301, 302, 303, 304, 305, 306, 307, 308, 309, 310, 311, 312, 313, 314, 315, 316, 317, 318, 319, 320, 321, 322, 323, 324, 325, 326, 327, 328, 329, 330, 331, 332, 333, 334, 335, 336, 337, 338, 339, 340, 341, 342, 343, 344, 345, 346, 347, 348, 349, 350, 351, 352, 353, 354, 355, 356, 357, 358, 359, 360, 361, 362, 363, 364, 365, 366, 367, 368, 369, 370, 371, 372, 373, 374, 375, 376, 377, 378, 379, 380, 381, 382, 383, 384, 385, 386, 387, 388, 389, 390, 391, 392, 393, 394, 395, 396, 397, 398, 399, 400, 401, 402, 403, 404, 405, 406, 407, 408, 409, 410, 411, 412, 413, 414, 415, 416, 417, 418, 419, 420, 421, 422, 423, 424, 425, 426, 427, 428, 429, 430, 431, 432, 433, 434, 435, 436, 437, 438, 439, 440, 441, 442, 443, 444, 445, 446, 447, 448, 449, 450, 451, 452, 453, 454, 455, 456, 457, 458, 459, 460, 461, 462, 463, 464],
      "AcquisitionTime": ["110654.000000", "110655.490000", "110656.980000", "110658.470000", "110659.960000", "110701.450000", "110702.940000", "110704.430000", "110705.920000", "110707.410000", "110708.900000", "110710.390000", "110711.880000", "110713.370000", "110714.860000", "110716.350000", "110717.840000", "110719.330000", "110720.820000", "110722.310000", "110723.800000", "110725.290000", "110726.780000", "110728.270000", "110729.760000", "110731.250000", "110732.740000", "110734.230000", "110735.720000", "110737.210000", "110738.700000", "110740.190000", "110741.680000", "110743.170000", "110744.660000", "110746.150000", "110747.640000", "110749.130000", "110750.620000", "110752.110000", "110753.600000", "110755.090000", "110756.580000", "110758.070000", "110759.560000", "110801.050000", "110802.540000", "110804.030000", "110805.520000", "110807.010000", "110808.500000", "110809.990000", "110811.480000", "110812.970000", "110814.460000", "110815.950000", "110817.440000", "110818.930000", "110820.420000", "110821.910000", "110823.400000", "110824.890000", "110826.380000", "110827.870000", "110829.360000", "110830.850000", "110832.340000", "110833.830000", "110835.320000", "110836.810000", "110838.300000", "110839.790000", "110841.280000", "110842.770000", "110844.260000", "110845.750000", "110847.240000", "110848.730000", "110850.220000", "110851.710000", "110853.200000", "110854.690000", "110856.180000", "110857.670000", "110859.160000", "110900.650000", "110902.140000", "110903.630000", "110905.120000", "110906.610000", "110908.100000", "110909.590000", "110911.080000", "110912.570000", "110914.060000", "110915.550000", "110917.040000", "110918.530000", "110920.020000", "110921.510000", "110923.000000", "110924.490000", "110925.980000", "110927.470000", "110928.960000", "110930.450000", "110931.940000", "110933.430000", "110934.920000", "110936.410000", "110937.900000", "110939.390000", "110940.880000", "110942.370000", "110943.860000", "110945.350000", "110946.840000", "110948.330000", "110949.820000", "110951.310000", "110952.800000", "110954.290000", "110955.780000", "110957.270000", "110958.760000", "111000.250000", "111001.740000", "111003.230000", "111004.720000", "111006.210000", "111007.700000", "111009.190000", "111010.680000", "111012.170000", "111013.660000", "111015.150000", "111016.640000", "111018.130000", "111019.620000", "111021.110000", "111022.600000", "111024.090000", "111025.580000", "111027.070000", "111028.560000", "111030.050000", "111031.540000", "111033.030000", "111034.520000", "111036.010000", "111037.500000", "111038.990000", "111040.480000", "111041.970000", "111043.460000", "111044.950000", "111046.440000", "111047.930000", "111049.420000", "111050.910000", "111052.400000", "111053.890000", "111055.380000", "111056.870000", "111058.360000", "111059.850000", "111101.340000", "111102.830000", "111104.320000", "111105.810000", "111107.300000", "111108.790000", "111110.280000", "111111.770000", "111113.260000", "111114.750000", "111116.240000", "111117.730000", "111119.220000", "111120.710000", "111122.200000", "111123.690000", "111125.180000", "111126.670000", "111128.160000", "111129.650000", "111131.140000", "111132.630000", "111134.120000", "111135.610000", "111137.100000", "111138.590000", "111140.080000", "111141.570000", "111143.060000", "111144.550000", "111146.040000", "111147.530000", "111149.020000", "111150.510000", "111152.000000", "111153.490000", "111154.980000", "111156.470000", "111157.960000", "111159.450000", "111200.940000", "111202.430000", "111203.920000", "111205.410000", "111206.900000", "111208.390000", "111209.880000", "111211.370000", "111212.860000", "111214.350000", "111215.840000", "111217.330000", "111218.820000", "111220.310000", "111221.800000", "111223.290000", "111224.780000", "111226.270000", "111227.760000", "111229.250000", "111230.740000", "111232.230000", "111233.720000", "111235.210000", "111236.700000", "111238.190000", "111239.680000", "111241.170000", "111242.660000", "111244.150000", "111245.640000", "111247.130000", "111248.620000", "111250.110000", "111251.600000", "111253.090000", "111254.580000", "111256.070000", "111257.560000", "111259.050000", "111300.540000", "111302.030000", "111303.520000", "111305.010000", "111306.500000", "111307.990000", "111309.480000", "111310.970000", "111312.460000", "111313.950000", "111315.440000", "111316.930000", "111318.420000", "111319.910000", "111321.400000", "111322.890000", "111324.380000", "111325.870000", "111327.360000", "111328.850000", "111330.340000", "111331.830000", "111333.320000", "111334.810000", "111336.300000", "111337.790000", "111339.280000", "111340.770000", "111342.260000", "111343.750000", "111345.240000", "111346.730000", "111348.220000", "111349.710000", "111351.200000", "111352.690000", "111354.180000", "111355.670000", "111357.160000", "111358.650000", "111400.140000", "111401.630000", "111403.120000", "111404.610000", "111406.100000", "111407.590000", "111409.080000", "111410.570000", "111412.060000", "111413.550000", "111415.040000", "111416.530000", "111418.020000", "111419.510000", "111421.000000", "111422.490000", "111423.980000", "111425.470000", "111426.960000", "111428.450000", "111429.940000", "111431.430000", "111432.920000", "111434.410000", "111435.900000", "111437.390000", "111438.880000", "111440.370000", "111441.860000", "111443.350000", "111444.840000", "111446.330000", "111447.820000", "111449.310000", "111450.800000", "111452.290000", "111453.780000", "111455.270000", "111456.760000", "111458.250000", "111459.740000", "111501.230000", "111502.720000", "111504.210000", "111505.700000", "111507.190000", "111508.680000", "111510.170000", "111511.660000", "111513.150000", "111514.640000", "111516.130000", "111517.620000", "111519.110000", "111520.600000", "111522.090000", "111523.580000", "111525.070000", "111526.560000", "111528.050000", "111529.540000", "111531.030000", "111532.520000", "111534.010000", "111535.500000", "111536.990000", "111538.480000", "111539.970000", "111541.460000", "111542.950000", "111544.440000", "111545.930000", "111547.420000", "111548.910000", "111550.400000", "111551.890000", "111553.380000", "111554.870000", "111556.360000", "111557.850000", "111559.340000", "111600.830000", "111602.320000", "111603.810000", "111605.300000", "111606.790000", "111608.280000", "111609.770000", "111611.260000", "111612.750000", "111614.240000", "111615.730000", "111617.220000", "111618.710000", "111620.200000", "111621.690000", "111623.180000", "111624.670000", "111626.160000", "111627.650000", "111629.140000", "111630.630000", "111632.120000", "111633.610000", "111635.100000", "111636.590000", "111638.080000", "111639.570000", "111641.060000", "111642.550000", "111644.040000", "111645.530000", "111647.020000", "111648.510000", "111650.000000", "111651.490000", "111652.980000", "111654.470000", "111655.960000", "111657.450000", "111658.940000", "111700.430000", "111701.920000", "111703.410000", "111704.900000", "111706.390000", "111707.880000", "111709.370000", "111710.860000", "111712.350000", "111713.840000", "111715.330000", "111716.820000", "111718.310000", "111719.800000", "111721.290000", "111722.780000", "111724.270000", "111725.760000", "111727.250000", "111728.740000", "111730.230000", "111731.720000", "111733.210000", "111734.700000", "111736.190000", "111737.680000", "111739.170000", "111740.660000", "111742.150000", "111743.640000", "111745.130000", "111746.620000", "111748.110000", "111749.600000", "111751.090000", "111752.580000", "111754.070000", "111755.560000", "111757.050000", "111758.540000", "111800.030000", "111801.520000", "111803.010000", "111804.500000", "111805.990000", "111807.480000", "111808.970000", "111810.460000", "111811.950000", "111813.440000", "111814.930000", "111816.420000", "111817.910000", "111819.400000", "111820.890000", "111822.380000", "111823.870000"],
      "ContentTime": ["110808.097000", "110808.100000", "110808.103000", "110808.106000", "110808.109000", "110808.112000", "110808.115000", "110808.118000", "110808.121000", "110808.124000", "110808.142000", "110808.145000", "110808.148000", "110808.151000", "110808.154000", "110808.157000", "110808.160000", "110808.163000", "110808.168000", "110808.171000", "110828.067000", "110828.077000", "110828.080000", "110828.083000", "110828.086000", "110828.089000", "110828.092000", "110828.095000", "110828.098000", "110828.101000", "110828.104000", "110828.106000", "110828.109000", "110828.112000", "110828.115000", "110828.118000", "110828.121000", "110828.124000", "110828.127000", "110828.130000", "110848.067000", "110848.071000", "110848.077000", "110848.080000", "110848.083000", "110848.086000", "110848.089000", "110848.092000", "110848.095000", "110848.098000", "110848.101000", "110848.104000", "110848.107000", "110848.110000", "110848.113000", "110848.116000", "110848.119000", "110848.121000", "110848.124000", "110848.127000", "110908.066000", "110908.069000", "110908.072000", "110908.075000", "110908.078000", "110908.081000", "110908.084000", "110908.087000", "110908.090000", "110908.093000", "110908.096000", "110908.098000", "110908.101000", "110908.104000", "110908.107000", "110908.110000", "110908.113000", "110908.116000", "110908.119000", "110908.122000", "110908.125000", "110928.066000", "110928.069000", "110928.072000", "110928.075000", "110928.078000", "110928.081000", "110928.084000", "110928.087000", "110928.090000", "110928.093000", "110928.104000", "110928.107000", "110928.110000", "110928.113000", "110928.115000", "110928.118000", "110928.121000", "110928.124000", "110928.127000", "110928.130000", "111008.067000", "111008.070000", "111008.073000", "111008.076000", "111008.079000", "111008.082000", "111008.085000", "111008.088000", "111008.091000", "111008.094000", "111008.097000", "111008.100000", "111008.103000", "111008.106000", "111008.109000", "111008.112000", "111008.114000", "111008.117000", "111008.120000", "111008.123000", "111008.126000", "111008.129000", "111008.132000", "111008.135000", "111008.138000", "111008.141000", "111008.144000", "111008.147000", "111048.067000", "111048.070000", "111048.073000", "111048.076000", "111048.079000", "111048.082000", "111048.085000", "111048.088000", "111048.091000", "111048.094000", "111048.097000", "111048.100000", "111048.103000", "111048.106000", "111048.109000", "111048.112000", "111048.114000", "111048.117000", "111048.120000", "111048.123000", "111048.126000", "111048.129000", "111048.132000", "111048.135000", "111048.138000", "111048.141000", "111048.144000", "111128.066000", "111128.069000", "111128.072000", "111128.075000", "111128.078000", "111128.081000", "111128.084000", "111128.087000", "111128.090000", "111128.093000", "111128.096000", "111128.105000", "111128.108000", "111128.127000", "111128.130000", "111128.133000", "111128.136000", "111128.139000", "111128.142000", "111128.145000", "111128.148000", "111128.150000", "111128.153000", "111128.156000", "111128.159000", "111128.162000", "111128.165000", "111208.066000", "111208.069000", "111208.072000", "111208.075000", "111208.078000", "111208.081000", "111208.084000", "111208.087000", "111208.090000", "111208.093000", "111208.096000", "111208.099000", "111208.102000", "111208.105000", "111208.108000", "111208.111000", "111208.113000", "111208.116000", "111208.119000", "111208.122000", "111208.125000", "111208.129000", "111208.132000", "111208.135000", "111208.138000", "111208.141000", "111208.144000", "111248.067000", "111248.070000", "111248.073000", "111248.076000", "111248.079000", "111248.082000", "111248.085000", "111248.088000", "111248.091000", "111248.094000", "111248.097000", "111248.100000", "111248.103000", "111248.106000", "111248.109000", "111248.112000", "111248.115000", "111248.118000", "111248.121000", "111248.123000", "111248.126000", "111248.129000", "111248.132000", "111248.135000", "111248.138000", "111248.141000", "111248.144000", "111328.066000", "111328.069000", "111328.072000", "111328.075000", "111328.078000", "111328.081000", "111328.084000", "111328.087000", "111328.090000", "111328.093000", "111328.096000", "111328.099000", "111328.102000", "111328.105000", "111328.108000", "111328.111000", "111328.114000", "111328.117000", "111328.120000", "111328.122000", "111328.125000", "111328.128000", "111328.131000", "111328.134000", "111328.137000", "111328.140000", "111328.143000", "111348.066000", "111348.069000", "111348.072000", "111348.075000", "111348.078000", "111348.081000", "111348.084000", "111348.087000", "111348.090000", "111348.093000", "111348.096000", "111348.099000", "111348.102000", "111428.067000", "111428.070000", "111428.073000", "111428.076000", "111428.079000", "111428.082000", "111428.085000", "111428.088000", "111428.091000", "111428.094000", "111428.097000", "111428.100000", "111428.103000", "111428.106000", "111428.109000", "111428.112000", "111428.115000", "111428.118000", "111428.121000", "111428.124000", "111428.127000", "111428.129000", "111428.132000", "111428.135000", "111428.138000", "111428.141000", "111428.144000", "111508.067000", "111508.070000", "111508.077000", "111508.080000", "111508.083000", "111508.086000", "111508.089000", "111508.092000", "111508.095000", "111508.098000", "111508.101000", "111508.104000", "111508.107000", "111508.110000", "111508.113000", "111508.116000", "111508.119000", "111508.122000", "111508.125000", "111508.128000", "111508.130000", "111508.133000", "111508.137000", "111508.139000", "111508.142000", "111508.145000", "111508.148000", "111548.066000", "111548.069000", "111548.073000", "111548.076000", "111548.079000", "111548.082000", "111548.085000", "111548.088000", "111548.091000", "111548.094000", "111548.097000", "111548.100000", "111548.103000", "111548.106000", "111548.109000", "111548.112000", "111548.115000", "111548.118000", "111548.121000", "111548.124000", "111548.127000", "111548.140000", "111548.143000", "111548.146000", "111548.149000", "111548.152000", "111628.066000", "111628.069000", "111628.072000", "111628.075000", "111628.078000", "111628.081000", "111628.084000", "111628.087000", "111628.090000", "111628.093000", "111628.096000", "111628.099000", "111628.102000", "111628.105000", "111628.108000", "111628.111000", "111628.114000", "111628.117000", "111628.120000", "111628.123000", "111628.126000", "111628.129000", "111628.131000", "111628.134000", "111628.137000", "111628.140000", "111628.143000", "111708.067000", "111708.070000", "111708.073000", "111708.076000", "111708.079000", "111708.082000", "111708.085000", "111708.088000", "111708.091000", "111708.094000", "111708.097000", "111708.100000", "111708.103000", "111708.106000", "111708.109000", "111708.112000", "111708.115000", "111708.118000", "111708.121000", "111708.124000", "111708.126000", "111708.137000", "111708.140000", "111708.143000", "111708.146000", "111708.149000", "111708.152000", "111748.067000", "111748.070000", "111748.073000", "111748.076000", "111748.079000", "111748.082000", "111748.085000", "111748.088000", "111748.091000", "111748.094000", "111748.097000", "111748.100000", "111748.103000", "111748.106000", "111748.108000", "111748.111000", "111748.114000", "111748.117000", "111748.120000", "111748.123000", "111748.126000", "111748.129000", "111748.132000", "111748.135000", "111748.138000", "111748.141000", "111748.144000", "111826.067000", "111826.070000", "111826.073000", "111826.076000", "111826.079000", "111826.082000", "111826.085000", "111826.088000", "111826.091000", "111826.094000", "111826.098000", "111826.101000", "111826.104000", "111826.107000", "111826.110000", "111826.113000", "111826.116000", "111826.119000", "111826.122000", "111826.125000", "111826.128000", "111826.131000", "111826.134000", "111826.137000", "111826.140000", "111826.143000"],
