{
  "AcquisitionMatrixPE": 104,
  "AcquisitionNumber": 1,
  "AcquisitionTime": "11:30:40.137500",
  "BandwidthPerPixelPhaseEncode": 17.17,
  "BaseResolution": 104,
  "BodyPartExamined": "BRAIN",
  "CoilString": "HC1-7;NC1_2",
  "ConsistencyInfo": "N4_VE11C_LATEST_20160120",
  "ConversionSoftware": "dcm2niix",
  "ConversionSoftwareVersion": "v1.0.20190902",
  "DerivedVendorReportedEchoSpacing": 0.000560011,
  "DeviceSerialNumber": "167006",
  "DwellTime": 2.1e-06,
  "EchoTime": 0.037,
  "EchoTrainLength": 104,
  "EffectiveEchoSpacing": 0.000560011,
  "FlipAngle": 52,
  "ImageComments": "Unaliased_MB4_PE3_LB",
  "ImageOrientationPatientDICOM": [0.998341, -0.0124671, -0.0562143, -0.00121972, 0.971481, -0.237114],
  "ImageType": [
    "ORIGINAL",
    "PRIMARY",
    "M",
    "MB",
    "ND",
    "MOSAIC"
],
  "ImagingFrequency": 123.259,
  "InPlanePhaseEncodingDirectionDICOM": "COL",
  "InstitutionAddress": "Chemin_Queen-Mary_4565_Montreal_District_CA_H3W_1W5",
  "InstitutionName": "IUGM",
  "InstitutionalDepartmentName": "Department",
  "MRAcquisitionType": "2D",
  "MagneticFieldStrength": 3,
  "Manufacturer": "Siemens",
  "ManufacturersModelName": "Prisma_fit",
  "Modality": "MR",
  "MultibandAccelerationFactor": 4,
  "PartialFourier": 1,
  "PatientPosition": "HFS",
  "PercentPhaseFOV": 100,
  "PhaseEncodingDirection": "j",
  "PhaseEncodingSteps": 104,
  "PhaseResolution": 1,
  "PixelBandwidth": 2290,
  "ProcedureStepDescription": "video_friends",
  "ProtocolName": "func_task-friends-s03e21b",
  "PulseSequenceDetails": "%CustomerSeq%_cmrr_mbep2d_bold",
  "ReceiveCoilActiveElements": "HC1-7;NC1,2",
  "ReceiveCoilName": "HeadNeck_64",
  "ReconMatrixPE": 104,
  "RepetitionTime": 1.49,
  "SAR": 0.0285508,
  "ScanOptions": "FS",
  "ScanningSequence": "EP",
  "SequenceName": "epfid2d1_104",
  "SequenceVariant": "SK_SS",
  "SeriesDescription": "func_task-friends-s03e21b",
  "SeriesNumber": 15,
  "ShimSetting": [600, -7251, -8853, 612, -58, -302, 39, 51],
  "SliceThickness": 2,
  "SliceTiming": [0, 0.785, 0.0975, 0.8825, 0.195, 0.98, 0.295, 1.0775, 0.3925, 1.175, 0.49, 1.275, 0.5875, 1.3725, 0.685, 0, 0.785, 0.0975, 0.8825, 0.195, 0.98, 0.295, 1.0775, 0.3925, 1.175, 0.49, 1.275, 0.5875, 1.3725, 0.685, 0, 0.785, 0.0975, 0.8825, 0.195, 0.98, 0.295, 1.0775, 0.3925, 1.175, 0.49, 1.275, 0.5875, 1.3725, 0.685, 0, 0.785, 0.0975, 0.8825, 0.195, 0.98, 0.295, 1.0775, 0.3925, 1.175, 0.49, 1.275, 0.5875, 1.3725, 0.685],
  "SoftwareVersions": "syngo_MR_E11",
  "SpacingBetweenSlices": 2,
  "StationName": "MRC35049",
  "TaskName": "s03e21b",
  "TotalReadoutTime": 0.0576811,
  "TxRefAmp": 217.451,
  "WipMemBlock": "79111c3a-1f43-4cf1-99df-0cecefb4a39a||Sequence: R016 ve11c/master r/e634e98; Dec 19 2017 11:00:25 by eja",
  "dcmmeta_affine": [
    [-1.996681809425354, -0.002439431846141815, -0.11513447761535645, 101.90852355957031],
    [0.024934105575084686, 1.9429621696472168, -0.4735783636569977, -83.18196105957031],
    [-0.11242859810590744, 0.47422805428504944, 1.9397081136703491, -54.89006042480469],
    [0.0, 0.0, 0.0, 1.0]
],
  "dcmmeta_reorient_transform": [
    [0.0, -1.0, 0.0, 103.0],
    [1.0, 0.0, 0.0, 0.0],
    [0.0, 0.0, 1.0, 0.0],
    [0.0, 0.0, 0.0, 1.0]
],
  "dcmmeta_shape": [104, 104, 60, 460],
  "dcmmeta_slice_dim": 2,
  "dcmmeta_version": 0.6,
  "global": {
    "const": {
      "AcquisitionMatrix": [104, 0, 0, 104],
      "AngioFlag": "N",
      "BitsAllocated": 16,
      "BitsStored": 16,
      "BodyPartExamined": "BRAIN",
      "Columns": 832,
      "EchoNumbers": 1,
      "EchoTime": 37.0,
      "EchoTrainLength": 104,
      "FlipAngle": 52.0,
      "HighBit": 15,
      "ImageOrientationPatient": [0.99834088629115, -0.0124670531824, -0.0562142983978, -0.001219715953, 0.97148106159638, -0.2371140216279],
      "ImagePositionPatient": [-827.56147208472, -815.10533203291, 207.49844586127],
      "ImageType": [
        "ORIGINAL",
        "PRIMARY",
        "M",
        "MB",
        "ND",
        "MOSAIC"
],
      "ImagedNucleus": "1H",
      "ImagingFrequency": 123.259414,
      "InPlanePhaseEncodingDirection": "COL",
      "MRAcquisitionType": "2D",
      "MagneticFieldStrength": 3.0,
      "Manufacturer": "SIEMENS",
      "ManufacturerModelName": "Prisma_fit",
      "Modality": "MR",
      "NumberOfAverages": 1.0,
      "NumberOfPhaseEncodingSteps": 104,
      "PercentPhaseFieldOfView": 100.0,
      "PercentSampling": 100.0,
      "PerformedProcedureStepStartTime": "093625.250000",
      "PhotometricInterpretation": "MONOCHROME2",
      "PixelBandwidth": 2290.0,
      "PixelRepresentation": 0,
      "PixelSpacing": [2.0, 2.0],
      "ProtocolName": "func_task-friends-s03e21b",
      "RepetitionTime": 1490.0,
      "Rows": 832,
      "SAR": 0.02855083519339,
      "SamplesPerPixel": 1,
      "ScanOptions": "FS",
      "ScanningSequence": "EP",
      "SequenceName": "epfid2d1_104",
      "SequenceVariant": [
        "SK",
        "SS"
],
      "SeriesDescription": "func_task-friends-s03e21b",
      "SeriesNumber": 15,
      "SeriesTime": "113210.091000",
      "SliceLocation": -39.405349371648,
      "SliceThickness": 2.0,
      "SmallestImagePixelValue": 0,
      "SoftwareVersions": "syngo MR E11",
      "SpacingBetweenSlices": 1.9999999446234,
      "SpecificCharacterSet": "ISO_IR 100",
      "StudyID": "1",
      "StudyTime": "093625.071000",
      "TransmitCoilName": "Body",
      "VariableFlipAngleFlag": "N",
      "WindowCenterWidthExplanation": "Algo1",
      "dBdt": 0.0},
    "slices": {}
  },
  "time": {
    "samples": {
      "AcquisitionNumber": [1, 2, 3, 4, 5, 6, 7, 8, 9, 10, 11, 12, 13, 14, 15, 16, 17, 18, 19, 20, 21, 22, 23, 24, 25, 26, 27, 28, 29, 30, 31, 32, 33, 34, 35, 36, 37, 38, 39, 40, 41, 42, 43, 44, 45, 46, 47, 48, 49, 50, 51, 52, 53, 54, 55, 56, 57, 58, 59, 60, 61, 62, 63, 64, 65, 66, 67, 68, 69, 70, 71, 72, 73, 74, 75, 76, 77, 78, 79, 80, 81, 82, 83, 84, 85, 86, 87, 88, 89, 90, 91, 92, 93, 94, 95, 96, 97, 98, 99, 100, 101, 102, 103, 104, 105, 106, 107, 108, 109, 110, 111, 112, 113, 114, 115, 116, 117, 118, 119, 120, 121, 122, 123, 124, 125, 126, 127, 128, 129, 130, 131, 132, 133, 134, 135, 136, 137, 138, 139, 140, 141, 142, 143, 144, 145, 146, 147, 148, 149, 150, 151, 152, 153, 154, 155, 156, 157, 158, 159, 160, 161, 162, 163, 164, 165, 166, 167, 168, 169, 170, 171, 172, 173, 174, 175, 176, 177, 178, 179, 180, 181, 182, 183, 184, 185, 186, 187, 188, 189, 190, 191, 192, 193, 194, 195, 196, 197, 198, 199, 200, 201, 202, 203, 204, 205, 206, 207, 208, 209, 210, 211, 212, 213, 214, 215, 216, 217, 218, 219, 220, 221, 222, 223, 224, 225, 226, 227, 228, 229, 230, 231, 232, 233, 234, 235, 236, 237, 238, 239, 240, 241, 242, 243, 244, 245, 246, 247, 248, 249, 250, 251, 252, 253, 254, 255, 256, 257, 258, 259, 260, 261, 262, 263, 264, 265, 266, 267, 268, 269, 270, 271, 272, 273, 274, 275, 276, 277, 278, 279, 280, 281, 282, 283, 284, 285, 286, 287, 288, 289, 290, 291, 292, 293, 294, 295, 296, 297, 298, 299, 300, 301, 302, 303, 304, 305, 306, 307, 308, 309, 310, 311, 312, 313, 314, 315, 316, 317, 318, 319, 320, 321, 322, 323, 324, 325, 326, 327, 328, 329, 330, 331, 332, 333, 334, 335, 336, 337, 338, 339, 340, 341, 342, 343, 344, 345, 346, 347, 348, 349, 350, 351, 352, 353, 354, 355, 356, 357, 358, 359, 360, 361, 362, 363, 364, 365, 366, 367, 368, 369, 370, 371, 372, 373, 374, 375, 376, 377, 378, 379, 380, 381, 382, 383, 384, 385, 386, 387, 388, 389, 390, 391, 392, 393, 394, 395, 396, 397, 398, 399, 400, 401, 402, 403, 404, 405, 406, 407, 408, 409, 410, 411, 412, 413, 414, 415, 416, 417, 418, 419, 420, 421, 422, 423, 424, 425, 426, 427, 428, 429, 430, 431, 432, 433, 434, 435, 436, 437, 438, 439, 440, 441, 442, 443, 444, 445, 446, 447, 448, 449, 450, 451, 452, 453, 454, 455, 456, 457, 458, 459, 460],
      "AcquisitionTime": ["113040.137500", "113041.627500", "113043.117500", "113044.607500", "113046.097500", "113047.587500", "113049.077500", "113050.567500", "113052.057500", "113053.547500", "113055.037500", "113056.527500", "113058.017500", "113059.507500", "113100.997500", "113102.487500", "113103.977500", "113105.467500", "113106.957500", "113108.447500", "113109.937500", "113111.427500", "113112.917500", "113114.407500", "113115.897500", "113117.387500", "113118.877500", "113120.367500", "113121.857500", "113123.347500", "113124.837500", "113126.327500", "113127.817500", "113129.307500", "113130.797500", "113132.287500", "113133.777500", "113135.267500", "113136.757500", "113138.247500", "113139.737500", "113141.227500", "113142.717500", "113144.207500", "113145.697500", "113147.187500", "113148.677500", "113150.167500", "113151.657500", "113153.147500", "113154.637500", "113156.127500", "113157.617500", "113159.107500", "113200.597500", "113202.087500", "113203.577500", "113205.067500", "113206.557500", "113208.047500", "113209.537500", "113211.027500", "113212.517500", "113214.007500", "113215.497500", "113216.987500", "113218.477500", "113219.967500", "113221.457500", "113222.947500", "113224.437500", "113225.927500", "113227.417500", "113228.907500", "113230.397500", "113231.887500", "113233.377500", "113234.867500", "113236.357500", "113237.847500", "113239.337500", "113240.827500", "113242.317500", "113243.807500", "113245.297500", "113246.787500", "113248.277500", "113249.767500", "113251.257500", "113252.747500", "113254.237500", "113255.727500", "113257.217500", "113258.707500", "113300.197500", "113301.687500", "113303.177500", "113304.667500", "113306.157500", "113307.647500", "113309.137500", "113310.627500", "113312.117500", "113313.607500", "113315.097500", "113316.587500", "113318.077500", "113319.567500", "113321.057500", "113322.547500", "113324.037500", "113325.527500", "113327.017500", "113328.507500", "113329.997500", "113331.487500", "113332.977500", "113334.467500", "113335.957500", "113337.447500", "113338.937500", "113340.427500", "113341.917500", "113343.407500", "113344.897500", "113346.387500", "113347.877500", "113349.367500", "113350.857500", "113352.347500", "113353.837500", "113355.327500", "113356.817500", "113358.307500", "113359.797500", "113401.287500", "113402.777500", "113404.267500", "113405.757500", "113407.247500", "113408.737500", "113410.227500", "113411.717500", "113413.207500", "113414.697500", "113416.187500", "113417.677500", "113419.167500", "113420.657500", "113422.147500", "113423.637500", "113425.127500", "113426.617500", "113428.107500", "113429.597500", "113431.087500", "113432.577500", "113434.067500", "113435.557500", "113437.047500", "113438.537500", "113440.027500", "113441.517500", "113443.007500", "113444.497500", "113445.987500", "113447.477500", "113448.967500", "113450.457500", "113451.947500", "113453.437500", "113454.927500", "113456.417500", "113457.907500", "113459.397500", "113500.887500", "113502.377500", "113503.867500", "113505.357500", "113506.847500", "113508.337500", "113509.827500", "113511.317500", "113512.807500", "113514.297500", "113515.787500", "113517.277500", "113518.767500", "113520.257500", "113521.747500", "113523.237500", "113524.727500", "113526.217500", "113527.707500", "113529.197500", "113530.687500", "113532.177500", "113533.667500", "113535.157500", "113536.647500", "113538.137500", "113539.627500", "113541.117500", "113542.607500", "113544.097500", "113545.587500", "113547.077500", "113548.567500", "113550.057500", "113551.547500", "113553.037500", "113554.527500", "113556.017500", "113557.507500", "113558.997500", "113600.487500", "113601.977500", "113603.467500", "113604.957500", "113606.447500", "113607.937500", "113609.427500", "113610.917500", "113612.407500", "113613.897500", "113615.387500", "113616.877500", "113618.367500", "113619.857500", "113621.347500", "113622.837500", "113624.327500", "113625.817500", "113627.307500", "113628.797500", "113630.287500", "113631.777500", "113633.267500", "113634.757500", "113636.247500", "113637.737500", "113639.227500", "113640.717500", "113642.207500", "113643.697500", "113645.187500", "113646.677500", "113648.167500", "113649.657500", "113651.147500", "113652.637500", "113654.127500", "113655.617500", "113657.107500", "113658.597500", "113700.087500", "113701.577500", "113703.067500", "113704.557500", "113706.047500", "113707.537500", "113709.027500", "113710.517500", "113712.007500", "113713.497500", "113714.987500", "113716.477500", "113717.967500", "113719.457500", "113720.947500", "113722.437500", "113723.927500", "113725.417500", "113726.907500", "113728.397500", "113729.887500", "113731.377500", "113732.867500", "113734.357500", "113735.847500", "113737.337500", "113738.827500", "113740.317500", "113741.807500", "113743.297500", "113744.787500", "113746.277500", "113747.767500", "113749.257500", "113750.747500", "113752.237500", "113753.727500", "113755.217500", "113756.707500", "113758.197500", "113759.687500", "113801.177500", "113802.667500", "113804.157500", "113805.647500", "113807.137500", "113808.627500", "113810.117500", "113811.607500", "113813.097500", "113814.587500", "113816.077500", "113817.567500", "113819.057500", "113820.547500", "113822.037500", "113823.527500", "113825.017500", "113826.507500", "113827.997500", "113829.487500", "113830.977500", "113832.467500", "113833.957500", "113835.447500", "113836.937500", "113838.427500", "113839.917500", "113841.407500", "113842.897500", "113844.387500", "113845.877500", "113847.367500", "113848.857500", "113850.347500", "113851.837500", "113853.327500", "113854.817500", "113856.307500", "113857.797500", "113859.287500", "113900.777500", "113902.267500", "113903.757500", "113905.247500", "113906.737500", "113908.227500", "113909.717500", "113911.207500", "113912.697500", "113914.187500", "113915.677500", "113917.167500", "113918.657500", "113920.147500", "113921.637500", "113923.127500", "113924.617500", "113926.107500", "113927.597500", "113929.087500", "113930.577500", "113932.067500", "113933.557500", "113935.047500", "113936.537500", "113938.027500", "113939.517500", "113941.007500", "113942.497500", "113943.987500", "113945.477500", "113946.967500", "113948.457500", "113949.947500", "113951.437500", "113952.927500", "113954.417500", "113955.907500", "113957.397500", "113958.887500", "114000.377500", "114001.867500", "114003.357500", "114004.847500", "114006.337500", "114007.827500", "114009.317500", "114010.807500", "114012.297500", "114013.787500", "114015.277500", "114016.767500", "114018.257500", "114019.747500", "114021.237500", "114022.727500", "114024.217500", "114025.707500", "114027.197500", "114028.687500", "114030.177500", "114031.667500", "114033.157500", "114034.647500", "114036.137500", "114037.627500", "114039.117500", "114040.607500", "114042.097500", "114043.587500", "114045.077500", "114046.567500", "114048.057500", "114049.547500", "114051.037500", "114052.527500", "114054.017500", "114055.507500", "114056.997500", "114058.487500", "114059.977500", "114101.467500", "114102.957500", "114104.447500", "114105.937500", "114107.427500", "114108.917500", "114110.407500", "114111.897500", "114113.387500", "114114.877500", "114116.367500", "114117.857500", "114119.347500", "114120.837500", "114122.327500", "114123.817500", "114125.307500", "114126.797500", "114128.287500", "114129.777500", "114131.267500", "114132.757500", "114134.247500", "114135.737500", "114137.227500", "114138.717500", "114140.207500", "114141.697500", "114143.187500", "114144.677500", "114146.167500", "114147.657500", "114149.147500", "114150.637500", "114152.127500", "114153.617500", "114155.107500", "114156.597500", "114158.087500", "114159.577500", "114201.067500", "114202.557500", "114204.047500"],
      "ContentTime": ["113210.094000", "113210.098000", "113210.101000", "113210.104000", "113210.107000", "113210.110000", "113210.114000", "113210.117000", "113210.120000", "113210.123000", "113210.125000", "113210.129000", "113210.131000", "113210.134000", "113210.137000", "113210.140000", "113210.143000", "113210.146000", "113210.149000", "113210.152000", "113210.161000", "113210.164000", "113210.167000", "113210.169000", "113210.172000", "113210.175000", "113210.178000", "113210.181000", "113210.184000", "113210.187000", "113210.190000", "113210.193000", "113210.196000", "113210.199000", "113210.202000", "113210.205000", "113230.059000", "113230.062000", "113230.065000", "113230.068000", "113230.071000", "113230.074000", "113230.077000", "113230.080000", "113230.083000", "113230.085000", "113230.088000", "113230.091000", "113230.094000", "113230.097000", "113230.100000", "113230.103000", "113230.106000", "113230.109000", "113230.112000", "113230.115000", "113250.060000", "113250.063000", "113250.066000", "113250.069000", "113250.072000", "113250.075000", "113250.078000", "113250.081000", "113250.090000", "113250.093000", "113250.096000", "113250.099000", "113250.101000", "113250.104000", "113250.107000", "113250.110000", "113250.113000", "113250.116000", "113250.119000", "113250.122000", "113310.060000", "113310.063000", "113310.066000", "113310.069000", "113310.072000", "113310.075000", "113310.078000", "113310.081000", "113310.084000", "113310.087000", "113310.090000", "113310.093000", "113310.096000", "113310.099000", "113310.102000", "113310.105000", "113310.108000", "113310.111000", "113310.113000", "113310.116000", "113350.060000", "113350.063000", "113350.066000", "113350.069000", "113350.072000", "113350.075000", "113350.078000", "113350.081000", "113350.084000", "113350.087000", "113350.090000", "113350.093000", "113350.096000", "113350.099000", "113350.101000", "113350.104000", "113350.107000", "113350.110000", "113350.113000", "113350.116000", "113350.119000", "113350.122000", "113350.125000", "113350.137000", "113350.140000", "113350.143000", "113350.146000", "113350.148000", "113350.151000", "113350.154000", "113430.060000", "113430.063000", "113430.066000", "113430.081000", "113430.084000", "113430.087000", "113430.090000", "113430.093000", "113430.096000", "113430.099000", "113430.101000", "113430.104000", "113430.107000", "113430.110000", "113430.113000", "113430.116000", "113430.119000", "113430.122000", "113430.125000", "113430.128000", "113430.131000", "113430.134000", "113430.137000", "113430.140000", "113430.142000", "113430.145000", "113430.148000", "113510.060000", "113510.063000", "113510.066000", "113510.069000", "113510.072000", "113510.075000", "113510.078000", "113510.081000", "113510.084000", "113510.087000", "113510.090000", "113510.093000", "113510.096000", "113510.099000", "113510.102000", "113510.104000", "113510.107000", "113510.110000", "113510.113000", "113510.116000", "113510.119000", "113510.122000", "113510.125000", "113510.128000", "113510.131000", "113510.134000", "113510.137000", "113550.060000", "113550.063000", "113550.066000", "113550.069000", "113550.072000", "113550.075000", "113550.078000", "113550.081000", "113550.084000", "113550.087000", "113550.090000", "113550.093000", "113550.096000", "113550.099000", "113550.101000", "113550.104000", "113550.107000", "113550.110000", "113550.113000", "113550.116000", "113550.119000", "113550.122000", "113550.125000", "113550.128000", "113550.131000", "113550.134000", "113550.137000", "113630.060000", "113630.063000", "113630.066000", "113630.069000", "113630.072000", "113630.075000", "113630.078000", "113630.081000", "113630.084000", "113630.087000", "113630.090000", "113630.093000", "113630.099000", "113630.102000", "113630.105000", "113630.108000", "113630.111000", "113630.114000", "113630.117000", "113630.120000", "113630.123000", "113630.126000", "113630.129000", "113630.132000", "113630.135000", "113630.138000", "113630.141000", "113710.060000", "113710.064000", "113710.077000", "113710.080000", "113710.083000", "113710.086000", "113710.089000", "113710.092000", "113710.095000", "113710.098000", "113710.101000", "113710.104000", "113710.107000", "113710.110000", "113710.113000", "113710.116000", "113710.119000", "113710.122000", "113710.124000", "113710.127000", "113710.130000", "113710.133000", "113710.136000", "113710.139000", "113710.142000", "113710.145000", "113750.060000", "113750.063000", "113750.066000", "113750.069000", "113750.072000", "113750.075000", "113750.078000", "113750.081000", "113750.084000", "113750.087000", "113750.090000", "113750.092000", "113750.095000", "113750.098000", "113750.101000", "113750.104000", "113750.107000", "113750.110000", "113750.113000", "113750.116000", "113750.119000", "113750.122000", "113750.125000", "113750.128000", "113750.131000", "113750.133000", "113750.136000", "113830.060000", "113830.063000", "113830.066000", "113830.069000", "113830.072000", "113830.075000", "113830.078000", "113830.081000", "113830.084000", "113830.087000", "113830.090000", "113830.093000", "113830.096000", "113830.099000", "113830.102000", "113830.105000", "113830.108000", "113830.111000", "113830.114000", "113830.116000", "113830.119000", "113830.122000", "113830.125000", "113830.128000", "113830.131000", "113830.134000", "113830.137000", "113910.059000", "113910.062000", "113910.065000", "113910.068000", "113910.071000", "113910.074000", "113910.077000", "113910.080000", "113910.083000", "113910.086000", "113910.089000", "113910.092000", "113910.103000", "113910.106000", "113910.109000", "113910.112000", "113910.115000", "113910.118000", "113910.121000", "113910.124000", "113910.127000", "113910.130000", "113910.133000", "113910.145000", "113910.148000", "113910.151000", "113910.154000", "113950.061000", "113950.064000", "113950.067000", "113950.070000", "113950.073000", "113950.076000", "113950.079000", "113950.082000", "113950.085000", "113950.088000", "113950.091000", "113950.094000", "113950.097000", "113950.100000", "113950.103000", "113950.106000", "113950.109000", "113950.112000", "113950.115000", "113950.118000", "113950.120000", "113950.123000", "113950.126000", "113950.129000", "113950.132000", "113950.135000", "113950.138000", "114030.060000", "114030.063000", "114030.066000", "114030.069000", "114030.072000", "114030.075000", "114030.078000", "114030.081000", "114030.084000", "114030.087000", "114030.090000", "114030.093000", "114030.096000", "114030.099000", "114030.102000", "114030.105000", "114030.107000", "114030.110000", "114030.113000", "114030.116000", "114030.119000", "114030.122000", "114030.125000", "114030.128000", "114030.131000", "114030.134000", "114030.137000", "114110.060000", "114110.063000", "114110.066000", "114110.069000", "114110.072000", "114110.075000", "114110.078000", "114110.081000", "114110.084000", "114110.087000", "114110.090000", "114110.093000", "114110.096000", "114110.099000", "114110.102000", "114110.105000", "114110.108000", "114110.111000", "114110.113000", "114110.116000", "114110.119000", "114110.122000", "114110.125000", "114110.128000", "114110.131000", "114110.134000", "114110.137000", "114150.059000", "114150.062000", "114150.065000", "114150.068000", "114150.071000", "114150.074000", "114150.077000", "114150.080000", "114150.083000", "114150.086000", "114150.089000", "114150.092000", "114150.095000", "114150.098000", "114150.101000", "114150.104000", "114150.107000", "114150.110000", "114150.113000", "114150.116000", "114150.119000", "114150.122000", "114150.125000", "114150.128000", "114150.131000", "114150.134000", "114206.614000", "114206.617000", "114206.620000", "114206.623000", "114206.626000", "114206.629000", "114206.632000", "114206.635000", "114206.638000", "114206.641000", "114206.644000", "114206.647000"],
