{
  "AcquisitionMatrixPE": 104,
  "AcquisitionNumber": 1,
  "AcquisitionTime": "11:18:47.522500",
  "BandwidthPerPixelPhaseEncode": 17.17,
  "BaseResolution": 104,
  "BodyPartExamined": "BRAIN",
  "CoilString": "HC1-7;NC1_2",
  "ConsistencyInfo": "N4_VE11C_LATEST_20160120",
  "ConversionSoftware": "dcm2niix",
  "ConversionSoftwareVersion": "v1.0.20190902",
  "DerivedVendorReportedEchoSpacing": 0.000560011,
  "DeviceSerialNumber": "167006",
  "DwellTime": 2.1e-06,
  "EchoTime": 0.037,
  "EchoTrainLength": 104,
  "EffectiveEchoSpacing": 0.000560011,
  "FlipAngle": 52,
  "ImageComments": "Unaliased_MB4_PE3_LB",
  "ImageOrientationPatientDICOM": [0.998341, -0.0124671, -0.0562143, -0.00121972, 0.971481, -0.237114],
  "ImageType": [
    "ORIGINAL",
    "PRIMARY",
    "M",
    "MB",
    "ND",
    "MOSAIC"
],
  "ImagingFrequency": 123.259,
  "InPlanePhaseEncodingDirectionDICOM": "COL",
  "InstitutionAddress": "Chemin_Queen-Mary_4565_Montreal_District_CA_H3W_1W5",
  "InstitutionName": "IUGM",
  "InstitutionalDepartmentName": "Department",
  "MRAcquisitionType": "2D",
  "MagneticFieldStrength": 3,
  "Manufacturer": "Siemens",
  "ManufacturersModelName": "Prisma_fit",
  "Modality": "MR",
  "MultibandAccelerationFactor": 4,
  "PartialFourier": 1,
  "PatientPosition": "HFS",
  "PercentPhaseFOV": 100,
  "PhaseEncodingDirection": "j",
  "PhaseEncodingSteps": 104,
  "PhaseResolution": 1,
  "PixelBandwidth": 2290,
  "ProcedureStepDescription": "video_friends",
  "ProtocolName": "func_task-friends-s03e21a",
  "PulseSequenceDetails": "%CustomerSeq%_cmrr_mbep2d_bold",
  "ReceiveCoilActiveElements": "HC1-7;NC1,2",
  "ReceiveCoilName": "HeadNeck_64",
  "ReconMatrixPE": 104,
  "RepetitionTime": 1.49,
  "SAR": 0.0285508,
  "ScanOptions": "FS",
  "ScanningSequence": "EP",
  "SequenceName": "epfid2d1_104",
  "SequenceVariant": "SK_SS",
  "SeriesDescription": "func_task-friends-s03e21a",
  "SeriesNumber": 13,
  "ShimSetting": [600, -7251, -8853, 612, -58, -302, 39, 51],
  "SliceThickness": 2,
  "SliceTiming": [0, 0.785, 0.1, 0.8825, 0.1975, 0.98, 0.295, 1.08, 0.3925, 1.1775, 0.49, 1.275, 0.59, 1.3725, 0.6875, 0, 0.785, 0.1, 0.8825, 0.1975, 0.98, 0.295, 1.08, 0.3925, 1.1775, 0.49, 1.275, 0.59, 1.3725, 0.6875, 0, 0.785, 0.1, 0.8825, 0.1975, 0.98, 0.295, 1.08, 0.3925, 1.1775, 0.49, 1.275, 0.59, 1.3725, 0.6875, 0, 0.785, 0.1, 0.8825, 0.1975, 0.98, 0.295, 1.08, 0.3925, 1.1775, 0.49, 1.275, 0.59, 1.3725, 0.6875],
  "SoftwareVersions": "syngo_MR_E11",
  "SpacingBetweenSlices": 2,
  "StationName": "MRC35049",
  "TaskName": "s03e21a",
  "TotalReadoutTime": 0.0576811,
  "TxRefAmp": 217.451,
  "WipMemBlock": "af151728-e30e-4205-9ab1-23aa68f311ec||Sequence: R016 ve11c/master r/e634e98; Dec 19 2017 11:00:25 by eja",
  "dcmmeta_affine": [
    [-1.996681809425354, -0.002439431846141815, -0.11513447761535645, 101.90852355957031],
    [0.024934105575084686, 1.9429621696472168, -0.4735783636569977, -83.18196105957031],
    [-0.11242859810590744, 0.47422805428504944, 1.9397081136703491, -54.89006042480469],
    [0.0, 0.0, 0.0, 1.0]
],
  "dcmmeta_reorient_transform": [
    [0.0, -1.0, 0.0, 103.0],
    [1.0, 0.0, 0.0, 0.0],
    [0.0, 0.0, 1.0, 0.0],
    [0.0, 0.0, 0.0, 1.0]
],
  "dcmmeta_shape": [104, 104, 60, 460],
  "dcmmeta_slice_dim": 2,
  "dcmmeta_version": 0.6,
  "global": {
    "const": {
      "AcquisitionMatrix": [104, 0, 0, 104],
      "AngioFlag": "N",
      "BitsAllocated": 16,
      "BitsStored": 16,
      "BodyPartExamined": "BRAIN",
      "Columns": 832,
      "EchoNumbers": 1,
      "EchoTime": 37.0,
      "EchoTrainLength": 104,
      "FlipAngle": 52.0,
      "HighBit": 15,
      "ImageOrientationPatient": [0.99834088629115, -0.0124670531824, -0.0562142983978, -0.001219715953, 0.97148106159638, -0.2371140216279],
      "ImagePositionPatient": [-827.56147208472, -815.10533203291, 207.49844586127],
      "ImageType": [
        "ORIGINAL",
        "PRIMARY",
        "M",
        "MB",
        "ND",
        "MOSAIC"
],
      "ImagedNucleus": "1H",
      "ImagingFrequency": 123.259405,
      "InPlanePhaseEncodingDirection": "COL",
      "MRAcquisitionType": "2D",
      "MagneticFieldStrength": 3.0,
      "Manufacturer": "SIEMENS",
      "ManufacturerModelName": "Prisma_fit",
      "Modality": "MR",
      "NumberOfAverages": 1.0,
      "NumberOfPhaseEncodingSteps": 104,
      "PercentPhaseFieldOfView": 100.0,
      "PercentSampling": 100.0,
      "PerformedProcedureStepStartTime": "093625.250000",
      "PhotometricInterpretation": "MONOCHROME2",
      "PixelBandwidth": 2290.0,
      "PixelRepresentation": 0,
      "PixelSpacing": [2.0, 2.0],
      "ProtocolName": "func_task-friends-s03e21a",
      "RepetitionTime": 1490.0,
      "Rows": 832,
      "SAR": 0.02855083519339,
      "SamplesPerPixel": 1,
      "ScanOptions": "FS",
      "ScanningSequence": "EP",
      "SequenceName": "epfid2d1_104",
      "SequenceVariant": [
        "SK",
        "SS"
],
      "SeriesDescription": "func_task-friends-s03e21a",
      "SeriesNumber": 13,
      "SeriesTime": "112012.893000",
      "SliceLocation": -39.405349371648,
      "SliceThickness": 2.0,
      "SmallestImagePixelValue": 0,
      "SoftwareVersions": "syngo MR E11",
      "SpacingBetweenSlices": 1.9999999446234,
      "SpecificCharacterSet": "ISO_IR 100",
      "StudyID": "1",
      "StudyTime": "093625.071000",
      "TransmitCoilName": "Body",
      "VariableFlipAngleFlag": "N",
      "WindowCenterWidthExplanation": "Algo1",
      "dBdt": 0.0},
    "slices": {}
  },
  "time": {
    "samples": {
      "AcquisitionNumber": [1, 2, 3, 4, 5, 6, 7, 8, 9, 10, 11, 12, 13, 14, 15, 16, 17, 18, 19, 20, 21, 22, 23, 24, 25, 26, 27, 28, 29, 30, 31, 32, 33, 34, 35, 36, 37, 38, 39, 40, 41, 42, 43, 44, 45, 46, 47, 48, 49, 50, 51, 52, 53, 54, 55, 56, 57, 58, 59, 60, 61, 62, 63, 64, 65, 66, 67, 68, 69, 70, 71, 72, 73, 74, 75, 76, 77, 78, 79, 80, 81, 82, 83, 84, 85, 86, 87, 88, 89, 90, 91, 92, 93, 94, 95, 96, 97, 98, 99, 100, 101, 102, 103, 104, 105, 106, 107, 108, 109, 110, 111, 112, 113, 114, 115, 116, 117, 118, 119, 120, 121, 122, 123, 124, 125, 126, 127, 128, 129, 130, 131, 132, 133, 134, 135, 136, 137, 138, 139, 140, 141, 142, 143, 144, 145, 146, 147, 148, 149, 150, 151, 152, 153, 154, 155, 156, 157, 158, 159, 160, 161, 162, 163, 164, 165, 166, 167, 168, 169, 170, 171, 172, 173, 174, 175, 176, 177, 178, 179, 180, 181, 182, 183, 184, 185, 186, 187, 188, 189, 190, 191, 192, 193, 194, 195, 196, 197, 198, 199, 200, 201, 202, 203, 204, 205, 206, 207, 208, 209, 210, 211, 212, 213, 214, 215, 216, 217, 218, 219, 220, 221, 222, 223, 224, 225, 226, 227, 228, 229, 230, 231, 232, 233, 234, 235, 236, 237, 238, 239, 240, 241, 242, 243, 244, 245, 246, 247, 248, 249, 250, 251, 252, 253, 254, 255, 256, 257, 258, 259, 260, 261, 262, 263, 264, 265, 266, 267, 268, 269, 270, 271, 272, 273, 274, 275, 276, 277, 278, 279, 280, 281, 282, 283, 284, 285, 286, 287, 288, 289, 290, 291, 292, 293, 294, 295, 296, 297, 298, 299, 300, 301, 302, 303, 304, 305, 306, 307, 308, 309, 310, 311, 312, 313, 314, 315, 316, 317, 318, 319, 320, 321, 322, 323, 324, 325, 326, 327, 328, 329, 330, 331, 332, 333, 334, 335, 336, 337, 338, 339, 340, 341, 342, 343, 344, 345, 346, 347, 348, 349, 350, 351, 352, 353, 354, 355, 356, 357, 358, 359, 360, 361, 362, 363, 364, 365, 366, 367, 368, 369, 370, 371, 372, 373, 374, 375, 376, 377, 378, 379, 380, 381, 382, 383, 384, 385, 386, 387, 388, 389, 390, 391, 392, 393, 394, 395, 396, 397, 398, 399, 400, 401, 402, 403, 404, 405, 406, 407, 408, 409, 410, 411, 412, 413, 414, 415, 416, 417, 418, 419, 420, 421, 422, 423, 424, 425, 426, 427, 428, 429, 430, 431, 432, 433, 434, 435, 436, 437, 438, 439, 440, 441, 442, 443, 444, 445, 446, 447, 448, 449, 450, 451, 452, 453, 454, 455, 456, 457, 458, 459, 460],
      "AcquisitionTime": ["111847.522500", "111849.012500", "111850.502500", "111851.992500", "111853.482500", "111854.972500", "111856.462500", "111857.952500", "111859.442500", "111900.932500", "111902.422500", "111903.912500", "111905.402500", "111906.892500", "111908.382500", "111909.872500", "111911.362500", "111912.852500", "111914.342500", "111915.832500", "111917.322500", "111918.812500", "111920.302500", "111921.792500", "111923.282500", "111924.772500", "111926.262500", "111927.752500", "111929.242500", "111930.732500", "111932.222500", "111933.712500", "111935.202500", "111936.692500", "111938.182500", "111939.672500", "111941.162500", "111942.652500", "111944.142500", "111945.632500", "111947.122500", "111948.612500", "111950.102500", "111951.592500", "111953.082500", "111954.572500", "111956.062500", "111957.552500", "111959.042500", "112000.532500", "112002.022500", "112003.512500", "112005.002500", "112006.492500", "112007.982500", "112009.472500", "112010.962500", "112012.452500", "112013.942500", "112015.432500", "112016.922500", "112018.412500", "112019.902500", "112021.392500", "112022.882500", "112024.372500", "112025.862500", "112027.352500", "112028.842500", "112030.332500", "112031.822500", "112033.312500", "112034.802500", "112036.292500", "112037.782500", "112039.272500", "112040.762500", "112042.252500", "112043.742500", "112045.232500", "112046.722500", "112048.212500", "112049.702500", "112051.192500", "112052.682500", "112054.172500", "112055.662500", "112057.152500", "112058.642500", "112100.132500", "112101.622500", "112103.112500", "112104.602500", "112106.092500", "112107.582500", "112109.072500", "112110.562500", "112112.052500", "112113.542500", "112115.032500", "112116.522500", "112118.012500", "112119.502500", "112120.992500", "112122.482500", "112123.972500", "112125.462500", "112126.952500", "112128.442500", "112129.932500", "112131.422500", "112132.912500", "112134.402500", "112135.892500", "112137.382500", "112138.872500", "112140.362500", "112141.852500", "112143.342500", "112144.832500", "112146.322500", "112147.812500", "112149.302500", "112150.792500", "112152.282500", "112153.772500", "112155.262500", "112156.752500", "112158.242500", "112159.732500", "112201.222500", "112202.712500", "112204.202500", "112205.692500", "112207.182500", "112208.672500", "112210.162500", "112211.652500", "112213.142500", "112214.632500", "112216.122500", "112217.612500", "112219.102500", "112220.592500", "112222.082500", "112223.572500", "112225.062500", "112226.552500", "112228.042500", "112229.532500", "112231.022500", "112232.512500", "112234.002500", "112235.492500", "112236.982500", "112238.472500", "112239.962500", "112241.452500", "112242.942500", "112244.432500", "112245.922500", "112247.412500", "112248.902500", "112250.392500", "112251.882500", "112253.372500", "112254.862500", "112256.352500", "112257.842500", "112259.332500", "112300.822500", "112302.312500", "112303.802500", "112305.292500", "112306.782500", "112308.272500", "112309.762500", "112311.252500", "112312.742500", "112314.232500", "112315.722500", "112317.212500", "112318.702500", "112320.192500", "112321.682500", "112323.172500", "112324.662500", "112326.152500", "112327.642500", "112329.132500", "112330.622500", "112332.112500", "112333.602500", "112335.092500", "112336.582500", "112338.072500", "112339.562500", "112341.052500", "112342.542500", "112344.032500", "112345.522500", "112347.012500", "112348.502500", "112349.992500", "112351.482500", "112352.972500", "112354.462500", "112355.952500", "112357.442500", "112358.932500", "112400.422500", "112401.912500", "112403.402500", "112404.892500", "112406.382500", "112407.872500", "112409.362500", "112410.852500", "112412.342500", "112413.832500", "112415.322500", "112416.812500", "112418.302500", "112419.792500", "112421.282500", "112422.772500", "112424.262500", "112425.752500", "112427.242500", "112428.732500", "112430.222500", "112431.712500", "112433.202500", "112434.692500", "112436.182500", "112437.672500", "112439.162500", "112440.652500", "112442.142500", "112443.632500", "112445.122500", "112446.612500", "112448.102500", "112449.592500", "112451.082500", "112452.572500", "112454.062500", "112455.552500", "112457.042500", "112458.532500", "112500.022500", "112501.512500", "112503.002500", "112504.492500", "112505.982500", "112507.472500", "112508.962500", "112510.452500", "112511.942500", "112513.432500", "112514.922500", "112516.412500", "112517.902500", "112519.392500", "112520.882500", "112522.372500", "112523.862500", "112525.352500", "112526.842500", "112528.332500", "112529.822500", "112531.312500", "112532.802500", "112534.292500", "112535.782500", "112537.272500", "112538.762500", "112540.252500", "112541.742500", "112543.232500", "112544.722500", "112546.212500", "112547.702500", "112549.192500", "112550.682500", "112552.172500", "112553.662500", "112555.152500", "112556.642500", "112558.132500", "112559.622500", "112601.112500", "112602.602500", "112604.092500", "112605.582500", "112607.072500", "112608.562500", "112610.052500", "112611.542500", "112613.032500", "112614.522500", "112616.012500", "112617.502500", "112618.992500", "112620.482500", "112621.972500", "112623.462500", "112624.952500", "112626.442500", "112627.932500", "112629.422500", "112630.912500", "112632.402500", "112633.892500", "112635.382500", "112636.872500", "112638.362500", "112639.852500", "112641.342500", "112642.832500", "112644.322500", "112645.812500", "112647.302500", "112648.792500", "112650.282500", "112651.772500", "112653.262500", "112654.752500", "112656.242500", "112657.732500", "112659.222500", "112700.712500", "112702.202500", "112703.692500", "112705.182500", "112706.672500", "112708.162500", "112709.652500", "112711.142500", "112712.632500", "112714.122500", "112715.612500", "112717.102500", "112718.592500", "112720.082500", "112721.572500", "112723.062500", "112724.552500", "112726.042500", "112727.532500", "112729.022500", "112730.512500", "112732.002500", "112733.492500", "112734.982500", "112736.472500", "112737.962500", "112739.452500", "112740.942500", "112742.432500", "112743.922500", "112745.412500", "112746.902500", "112748.392500", "112749.882500", "112751.372500", "112752.862500", "112754.352500", "112755.842500", "112757.332500", "112758.822500", "112800.312500", "112801.802500", "112803.292500", "112804.782500", "112806.272500", "112807.762500", "112809.252500", "112810.742500", "112812.232500", "112813.722500", "112815.212500", "112816.702500", "112818.192500", "112819.682500", "112821.172500", "112822.662500", "112824.152500", "112825.642500", "112827.132500", "112828.622500", "112830.112500", "112831.602500", "112833.092500", "112834.582500", "112836.072500", "112837.562500", "112839.052500", "112840.542500", "112842.032500", "112843.522500", "112845.012500", "112846.502500", "112847.992500", "112849.482500", "112850.972500", "112852.462500", "112853.952500", "112855.442500", "112856.932500", "112858.422500", "112859.912500", "112901.402500", "112902.892500", "112904.382500", "112905.872500", "112907.362500", "112908.852500", "112910.342500", "112911.832500", "112913.322500", "112914.812500", "112916.302500", "112917.792500", "112919.282500", "112920.772500", "112922.262500", "112923.752500", "112925.242500", "112926.732500", "112928.222500", "112929.712500", "112931.202500", "112932.692500", "112934.182500", "112935.672500", "112937.162500", "112938.652500", "112940.142500", "112941.632500", "112943.122500", "112944.612500", "112946.102500", "112947.592500", "112949.082500", "112950.572500", "112952.062500", "112953.552500", "112955.042500", "112956.532500", "112958.022500", "112959.512500", "113001.002500", "113002.492500", "113003.982500", "113005.472500", "113006.962500", "113008.452500", "113009.942500", "113011.432500"],
      "ContentTime": ["112012.896000", "112012.899000", "112012.905000", "112012.908000", "112012.917000", "112012.920000", "112012.923000", "112012.926000", "112012.929000", "112012.932000", "112012.935000", "112012.938000", "112012.941000", "112012.944000", "112012.947000", "112012.950000", "112012.953000", "112012.958000", "112012.961000", "112012.964000", "112012.967000", "112012.970000", "112012.973000", "112012.976000", "112012.979000", "112012.982000", "112012.985000", "112012.988000", "112032.868000", "112032.871000", "112032.874000", "112032.877000", "112032.880000", "112032.883000", "112032.886000", "112032.897000", "112032.900000", "112032.903000", "112032.906000", "112032.909000", "112032.912000", "112032.915000", "112032.918000", "112032.921000", "112032.924000", "112032.927000", "112032.930000", "112032.933000", "112052.869000", "112052.872000", "112052.875000", "112052.878000", "112052.881000", "112052.884000", "112052.887000", "112052.890000", "112052.893000", "112052.895000", "112052.898000", "112052.901000", "112052.904000", "112052.907000", "112052.910000", "112052.913000", "112052.926000", "112052.929000", "112052.932000", "112052.935000", "112112.868000", "112112.871000", "112112.874000", "112112.877000", "112112.880000", "112112.883000", "112112.886000", "112112.889000", "112112.892000", "112112.895000", "112112.898000", "112112.900000", "112112.903000", "112112.906000", "112112.909000", "112112.912000", "112112.915000", "112112.918000", "112112.921000", "112112.924000", "112112.927000", "112132.868000", "112132.871000", "112132.874000", "112132.877000", "112132.880000", "112132.883000", "112132.886000", "112132.889000", "112132.892000", "112132.895000", "112132.898000", "112132.900000", "112132.903000", "112132.906000", "112132.909000", "112132.912000", "112132.915000", "112132.918000", "112132.921000", "112132.924000", "112212.868000", "112212.871000", "112212.874000", "112212.877000", "112212.880000", "112212.883000", "112212.886000", "112212.889000", "112212.892000", "112212.895000", "112212.898000", "112212.901000", "112212.903000", "112212.906000", "112212.909000", "112212.912000", "112212.915000", "112212.918000", "112212.921000", "112212.924000", "112212.927000", "112212.930000", "112212.933000", "112212.936000", "112212.939000", "112212.942000", "112212.944000", "112212.947000", "112252.868000", "112252.871000", "112252.874000", "112252.877000", "112252.880000", "112252.883000", "112252.886000", "112252.889000", "112252.892000", "112252.895000", "112252.898000", "112252.901000", "112252.904000", "112252.906000", "112252.909000", "112252.912000", "112252.915000", "112252.918000", "112252.921000", "112252.924000", "112252.927000", "112252.930000", "112252.933000", "112252.936000", "112252.939000", "112252.947000", "112252.950000", "112332.868000", "112332.871000", "112332.874000", "112332.877000", "112332.880000", "112332.883000", "112332.886000", "112332.889000", "112332.892000", "112332.895000", "112332.898000", "112332.901000", "112332.904000", "112332.907000", "112332.910000", "112332.913000", "112332.915000", "112332.918000", "112332.921000", "112332.924000", "112332.927000", "112332.930000", "112332.933000", "112332.936000", "112332.939000", "112332.942000", "112332.945000", "112352.868000", "112352.871000", "112352.874000", "112352.877000", "112352.880000", "112352.883000", "112352.886000", "112352.889000", "112352.892000", "112352.895000", "112352.898000", "112352.901000", "112352.904000", "112432.868000", "112432.871000", "112432.874000", "112432.877000", "112432.880000", "112432.883000", "112432.886000", "112432.889000", "112432.892000", "112432.895000", "112432.898000", "112432.901000", "112432.904000", "112432.906000", "112432.909000", "112432.912000", "112432.915000", "112432.918000", "112432.921000", "112432.924000", "112432.927000", "112432.930000", "112432.933000", "112432.936000", "112432.939000", "112432.942000", "112432.945000", "112512.868000", "112512.871000", "112512.874000", "112512.877000", "112512.880000", "112512.883000", "112512.886000", "112512.889000", "112512.892000", "112512.895000", "112512.898000", "112512.901000", "112512.904000", "112512.906000", "112512.909000", "112512.912000", "112512.934000", "112512.937000", "112512.940000", "112512.943000", "112512.945000", "112512.948000", "112512.951000", "112512.954000", "112512.957000", "112512.960000", "112512.963000", "112552.868000", "112552.871000", "112552.874000", "112552.877000", "112552.880000", "112552.883000", "112552.886000", "112552.889000", "112552.892000", "112552.895000", "112552.898000", "112552.901000", "112552.904000", "112552.907000", "112552.910000", "112552.913000", "112552.916000", "112552.919000", "112552.922000", "112552.925000", "112552.928000", "112552.931000", "112552.934000", "112552.937000", "112552.940000", "112552.943000", "112552.946000", "112632.868000", "112632.871000", "112632.874000", "112632.877000", "112632.880000", "112632.883000", "112632.886000", "112632.889000", "112632.892000", "112632.895000", "112632.898000", "112632.901000", "112632.904000", "112632.907000", "112632.910000", "112632.913000", "112632.916000", "112632.919000", "112632.922000", "112632.924000", "112632.927000", "112632.930000", "112632.933000", "112632.936000", "112632.939000", "112632.942000", "112632.945000", "112712.868000", "112712.871000", "112712.874000", "112712.877000", "112712.880000", "112712.883000", "112712.886000", "112712.889000", "112712.892000", "112712.895000", "112712.898000", "112712.901000", "112712.904000", "112712.907000", "112712.910000", "112712.913000", "112712.916000", "112712.919000", "112712.922000", "112712.925000", "112712.928000", "112712.930000", "112712.934000", "112712.936000", "112712.939000", "112712.942000", "112712.945000", "112752.869000", "112752.873000", "112752.876000", "112752.879000", "112752.882000", "112752.885000", "112752.888000", "112752.891000", "112752.894000", "112752.897000", "112752.900000", "112752.903000", "112752.906000", "112752.909000", "112752.912000", "112752.915000", "112752.917000", "112752.920000", "112752.923000", "112752.927000", "112752.930000", "112752.933000", "112752.936000", "112752.939000", "112752.943000", "112752.946000", "112832.868000", "112832.871000", "112832.874000", "112832.877000", "112832.880000", "112832.883000", "112832.886000", "112832.889000", "112832.892000", "112832.895000", "112832.898000", "112832.901000", "112832.904000", "112832.907000", "112832.910000", "112832.913000", "112832.916000", "112832.919000", "112832.922000", "112832.924000", "112832.927000", "112832.930000", "112832.933000", "112832.936000", "112832.939000", "112832.942000", "112832.945000", "112912.868000", "112912.871000", "112912.874000", "112912.877000", "112912.880000", "112912.883000", "112912.886000", "112912.889000", "112912.892000", "112912.896000", "112912.899000", "112912.902000", "112912.905000", "112912.908000", "112912.911000", "112912.914000", "112912.917000", "112912.920000", "112912.923000", "112912.926000", "112912.929000", "112912.932000", "112912.935000", "112912.937000", "112912.940000", "112912.943000", "112912.946000", "112952.868000", "112952.871000", "112952.874000", "112952.877000", "112952.880000", "112952.883000", "112952.886000", "112952.889000", "112952.892000", "112952.895000", "112952.898000", "112952.901000", "112952.917000", "112952.920000", "112952.923000", "112952.926000", "112952.929000", "112952.932000", "112952.935000", "112952.938000", "112952.941000", "112952.944000", "112952.947000", "112952.950000", "112952.953000", "112952.956000", "112952.959000", "113013.120000", "113013.123000", "113013.126000", "113013.129000", "113013.132000", "113013.135000", "113013.138000", "113013.141000", "113013.144000", "113013.147000", "113013.150000", "113013.154000", "113013.157000", "113013.161000"],
